Data from HighRes_H2_15_09_11_07_2024_HR4C61891__90__15-11-05-402.txt Node

Date: Thu Nov 07 15:11:05 EST 2024
User: crc00042
Spectrometer: HR4C6189
Trigger mode: 4
Integration Time (sec): 1.000000E-1
Scans to average: 1
Electric dark correction enabled: true
Nonlinearity correction enabled: false
Boxcar width: 0
XAxis mode: Wavelengths
Number of Pixels in Spectrum: 3648
>>>>>Begin Spectral Data<<<<<
639.567	-23.92
639.602	-23.92
639.636	-23.92
639.67	-30.92
639.704	-7.92
639.738	-0.92
639.773	6.08
639.807	-13.92
639.841	11.08
639.875	5.08
639.909	-4.92
639.943	-9.92
639.978	-13.92
640.012	-5.92
640.046	6.08
640.08	16.08
640.114	6.08
640.148	-0.92
640.182	-8.92
640.217	-5.92
640.251	18.08
640.285	16.08
640.319	-13.92
640.353	7.08
640.387	5.08
640.421	6.08
640.455	-18.92
640.49	7.08
640.524	8.08
640.558	7.08
640.592	0.08
640.626	5.08
640.66	9.08
640.694	21.08
640.728	7.08
640.762	-1.92
640.796	2.08
640.83	13.08
640.865	5.08
640.899	10.08
640.933	4.08
640.967	10.08
641.001	9.08
641.035	3.08
641.069	5.08
641.103	-12.92
641.137	5.08
641.171	-4.92
641.205	6.08
641.239	-0.92
641.273	8.08
641.307	17.08
641.341	-0.92
641.375	6.08
641.409	5.08
641.443	-5.92
641.477	5.08
641.511	14.08
641.545	12.08
641.579	-0.92
641.614	-4.92
641.648	-9.92
641.682	-21.92
641.716	6.08
641.75	18.08
641.784	9.08
641.818	4.08
641.852	6.08
641.886	-12.92
641.919	8.08
641.953	13.08
641.987	-3.92
642.021	20.08
642.055	10.08
642.089	4.08
642.123	-1.92
642.157	-1.92
642.191	-0.92
642.225	16.08
642.259	1.08
642.293	1.08
642.327	1.08
642.361	-1.92
642.395	14.08
642.429	19.08
642.463	14.08
642.497	8.08
642.531	0.08
642.565	3.08
642.599	-3.92
642.633	-2.92
642.666	21.08
642.7	17.08
642.734	8.08
642.768	8.08
642.802	0.08
642.836	13.08
642.87	-0.92
642.904	27.08
642.938	10.08
642.972	-2.92
643.005	12.08
643.039	14.08
643.073	6.08
643.107	17.08
643.141	13.08
643.175	16.08
643.209	16.08
643.243	-5.92
643.276	4.08
643.31	5.08
643.344	7.08
643.378	4.08
643.412	13.08
643.446	-8.92
643.48	-9.92
643.513	9.08
643.547	2.08
643.581	-3.92
643.615	8.08
643.649	10.08
643.683	14.08
643.716	2.08
643.75	7.08
643.784	-19.92
643.818	8.08
643.852	-2.92
643.886	-0.92
643.919	9.08
643.953	-3.92
643.987	1.08
644.021	5.08
644.055	18.08
644.088	1.08
644.122	-6.92
644.156	-2.92
644.19	19.08
644.224	18.08
644.257	6.08
644.291	4.08
644.325	15.08
644.359	8.08
644.392	20.08
644.426	23.08
644.46	7.08
644.494	9.08
644.527	6.08
644.561	9.08
644.595	2.08
644.629	8.08
644.662	7.08
644.696	9.08
644.73	6.08
644.764	14.08
644.797	7.08
644.831	4.08
644.865	7.08
644.899	7.08
644.932	16.08
644.966	13.08
645	8.08
645.033	14.08
645.067	12.08
645.101	5.08
645.135	9.08
645.168	-1.92
645.202	-2.92
645.236	10.08
645.269	22.08
645.303	6.08
645.337	-4.92
645.37	-2.92
645.404	7.08
645.438	7.08
645.471	-4.92
645.505	5.08
645.539	1.08
645.572	-5.92
645.606	-0.92
645.64	2.08
645.673	0.08
645.707	18.08
645.741	4.08
645.774	-6.92
645.808	10.08
645.842	7.08
645.875	7.08
645.909	-2.92
645.943	-15.92
645.976	14.08
646.01	7.08
646.043	23.08
646.077	8.08
646.111	6.08
646.144	10.08
646.178	6.08
646.212	-4.92
646.245	-4.92
646.279	25.08
646.312	12.08
646.346	15.08
646.38	-22.92
646.413	5.08
646.447	2.08
646.48	-1.92
646.514	10.08
646.547	1.08
646.581	5.08
646.615	1.08
646.648	-18.92
646.682	3.08
646.715	-1.92
646.749	13.08
646.782	0.08
646.816	14.08
646.85	25.08
646.883	-9.92
646.917	9.08
646.95	10.08
646.984	28.08
647.017	3.08
647.051	2.08
647.084	5.08
647.118	0.08
647.151	10.08
647.185	11.08
647.218	-5.92
647.252	-3.92
647.285	-12.92
647.319	-12.92
647.353	-5.92
647.386	25.08
647.42	-1.92
647.453	11.08
647.487	4.08
647.52	6.08
647.553	8.08
647.587	-12.92
647.62	-6.92
647.654	12.08
647.687	5.08
647.721	28.08
647.754	8.08
647.788	17.08
647.821	-0.92
647.855	7.08
647.888	-0.92
647.922	27.08
647.955	16.08
647.989	-10.92
648.022	-15.92
648.055	15.08
648.089	-3.92
648.122	36.08
648.156	7.08
648.189	0.08
648.223	17.08
648.256	15.08
648.29	15.08
648.323	13.08
648.356	-6.92
648.39	13.08
648.423	6.08
648.457	13.08
648.49	25.08
648.523	21.08
648.557	9.08
648.59	-0.92
648.624	6.08
648.657	15.08
648.69	29.08
648.724	20.08
648.757	15.08
648.791	16.08
648.824	14.08
648.857	27.08
648.891	5.08
648.924	-9.92
648.957	23.08
648.991	-4.92
649.024	7.08
649.057	2.08
649.091	-8.92
649.124	9.08
649.158	9.08
649.191	18.08
649.224	2.08
649.258	2.08
649.291	13.08
649.324	20.08
649.358	22.08
649.391	11.08
649.424	10.08
649.458	13.08
649.491	18.08
649.524	-6.92
649.557	-4.92
649.591	-12.92
649.624	6.08
649.657	3.08
649.691	2.08
649.724	11.08
649.757	20.08
649.791	-3.92
649.824	26.08
649.857	25.08
649.89	-1.92
649.924	-6.92
649.957	2.08
649.99	-16.92
650.023	-2.92
650.057	-2.92
650.09	0.08
650.123	-9.92
650.157	17.08
650.19	32.08
650.223	-8.92
650.256	-15.92
650.29	-19.92
650.323	13.08
650.356	15.08
650.389	-25.92
650.423	-13.92
650.456	-4.92
650.489	-4.92
650.522	14.08
650.555	32.08
650.589	12.08
650.622	-1.92
650.655	14.08
650.688	-0.92
650.721	-4.92
650.755	2.08
650.788	3.08
650.821	4.08
650.854	9.08
650.887	5.08
650.921	-3.92
650.954	2.08
650.987	-3.92
651.02	-9.92
651.053	5.08
651.087	-10.92
651.12	7.08
651.153	5.08
651.186	-1.92
651.219	-10.92
651.252	5.08
651.286	1.08
651.319	-5.92
651.352	14.08
651.385	8.08
651.418	-2.92
651.451	11.08
651.484	9.08
651.518	-3.92
651.551	16.08
651.584	1.08
651.617	14.08
651.65	6.08
651.683	6.08
651.716	12.08
651.749	-14.92
651.783	-6.92
651.816	-5.92
651.849	11.08
651.882	1.08
651.915	4.08
651.948	13.08
651.981	7.08
652.014	-3.92
652.047	-0.92
652.08	-20.92
652.114	-1.92
652.147	-9.92
652.18	1.08
652.213	17.08
652.246	-1.92
652.279	-2.92
652.312	19.08
652.345	3.08
652.378	8.08
652.411	17.08
652.444	-3.92
652.477	19.08
652.51	-0.92
652.543	-16.92
652.576	-8.92
652.609	-11.92
652.642	9.08
652.675	17.08
652.709	15.08
652.742	6.08
652.775	7.08
652.808	10.08
652.841	4.08
652.874	1.08
652.907	2.08
652.94	4.08
652.973	-13.92
653.006	-8.92
653.039	14.08
653.072	10.08
653.105	4.08
653.138	-25.92
653.171	-15.92
653.204	1.08
653.237	6.08
653.27	-5.92
653.303	6.08
653.336	9.08
653.368	-3.92
653.401	6.08
653.434	11.08
653.467	11.08
653.5	2.08
653.533	-16.92
653.566	4.08
653.599	4.08
653.632	-3.92
653.665	1.08
653.698	6.08
653.731	-4.92
653.764	17.08
653.797	-3.92
653.83	2.08
653.863	-7.92
653.896	2.08
653.929	-0.92
653.961	3.08
653.994	-7.92
654.027	-6.92
654.06	12.08
654.093	13.08
654.126	-2.92
654.159	-7.92
654.192	17.08
654.225	1.08
654.258	-10.92
654.29	-4.92
654.323	8.08
654.356	-9.92
654.389	-5.92
654.422	-1.92
654.455	17.08
654.488	0.08
654.521	-0.92
654.553	-4.92
654.586	17.08
654.619	-1.92
654.652	6.08
654.685	4.08
654.718	13.08
654.751	14.08
654.783	-1.92
654.816	31.08
654.849	17.08
654.882	-0.92
654.915	-10.92
654.948	6.08
654.98	4.08
655.013	8.08
655.046	-1.92
655.079	-7.92
655.112	-1.92
655.144	-11.92
655.177	4.08
655.21	5.08
655.243	18.08
655.276	14.08
655.308	1.08
655.341	-9.92
655.374	10.08
655.407	8.08
655.44	5.08
655.472	27.08
655.505	8.08
655.538	9.08
655.571	18.08
655.603	7.08
655.636	8.08
655.669	5.08
655.702	10.08
655.734	11.08
655.767	2.08
655.8	21.08
655.833	27.08
655.865	40.08
655.898	26.08
655.931	26.08
655.964	30.08
655.996	46.08
656.029	69.08
656.062	61.08
656.095	75.08
656.127	66.08
656.16	107.08
656.193	126.08
656.225	183.08
656.258	267.08
656.291	511.08
656.324	1129.08
656.356	3364.08
656.389	7529.08
656.422	6012.08
656.454	2042.08
656.487	661.08
656.52	261.08
656.552	137.08
656.585	89.08
656.618	54.08
656.65	52.08
656.683	12.08
656.716	26.08
656.748	11.08
656.781	10.08
656.814	-2.92
656.846	14.08
656.879	13.08
656.912	7.08
656.944	-32.92
656.977	-12.92
657.01	-3.92
657.042	3.08
657.075	20.08
657.108	-25.92
657.14	6.08
657.173	17.08
657.205	33.08
657.238	12.08
657.271	-3.92
657.303	3.08
657.336	9.08
657.369	-0.92
657.401	4.08
657.434	1.08
657.466	19.08
657.499	-3.92
657.532	8.08
657.564	5.08
657.597	1.08
657.629	15.08
657.662	9.08
657.694	1.08
657.727	-4.92
657.76	19.08
657.792	5.08
657.825	6.08
657.857	13.08
657.89	2.08
657.922	5.08
657.955	-17.92
657.987	18.08
658.02	10.08
658.053	5.08
658.085	9.08
658.118	11.08
658.15	-3.92
658.183	12.08
658.215	3.08
658.248	-3.92
658.28	-8.92
658.313	10.08
658.345	34.08
658.378	16.08
658.41	2.08
658.443	32.08
658.475	9.08
658.508	2.08
658.54	-5.92
658.573	-3.92
658.605	-3.92
658.638	-4.92
658.67	8.08
658.703	2.08
658.735	2.08
658.768	-2.92
658.8	-21.92
658.833	12.08
658.865	4.08
658.898	4.08
658.93	4.08
658.963	-6.92
658.995	-4.92
659.028	10.08
659.06	3.08
659.092	-12.92
659.125	-13.92
659.157	9.08
659.19	-6.92
659.222	2.08
659.255	4.08
659.287	6.08
659.32	-2.92
659.352	-9.92
659.384	20.08
659.417	-2.92
659.449	8.08
659.482	-1.92
659.514	-0.92
659.546	-8.92
659.579	-6.92
659.611	5.08
659.644	6.08
659.676	-1.92
659.708	-5.92
659.741	-18.92
659.773	16.08
659.806	2.08
659.838	2.08
659.87	12.08
659.903	1.08
659.935	5.08
659.967	1.08
660	11.08
660.032	-4.92
660.065	30.08
660.097	-12.92
660.129	-5.92
660.162	-18.92
660.194	10.08
660.226	11.08
660.259	13.08
660.291	1.08
660.323	-8.92
660.356	7.08
660.388	-4.92
660.42	5.08
660.453	10.08
660.485	23.08
660.517	14.08
660.55	24.08
660.582	-5.92
660.614	10.08
660.647	-0.92
660.679	-12.92
660.711	5.08
660.743	-8.92
660.776	-5.92
660.808	6.08
660.84	13.08
660.873	9.08
660.905	11.08
660.937	3.08
660.969	-5.92
661.002	12.08
661.034	20.08
661.066	6.08
661.099	5.08
661.131	12.08
661.163	-2.92
661.195	-1.92
661.228	16.08
661.26	-2.92
661.292	3.08
661.324	9.08
661.357	3.08
661.389	7.08
661.421	5.08
661.453	-6.92
661.485	-0.92
661.518	10.08
661.55	3.08
661.582	8.08
661.614	-2.92
661.647	11.08
661.679	4.08
661.711	17.08
661.743	-10.92
661.775	-1.92
661.808	21.08
661.84	10.08
661.872	9.08
661.904	-4.92
661.936	8.08
661.969	-5.92
662.001	1.08
662.033	-4.92
662.065	7.08
662.097	17.08
662.129	6.08
662.162	3.08
662.194	-2.92
662.226	3.08
662.258	12.08
662.29	28.08
662.322	6.08
662.355	-16.92
662.387	20.08
662.419	11.08
662.451	24.08
662.483	7.08
662.515	15.08
662.547	1.08
662.58	-17.92
662.612	-9.92
662.644	-3.92
662.676	3.08
662.708	19.08
662.74	3.08
662.772	-0.92
662.804	-0.92
662.836	17.08
662.869	2.08
662.901	10.08
662.933	3.08
662.965	27.08
662.997	30.08
663.029	1.08
663.061	6.08
663.093	17.08
663.125	8.08
663.157	-1.92
663.189	-8.92
663.221	8.08
663.254	-4.92
663.286	2.08
663.318	-9.92
663.35	-22.92
663.382	11.08
663.414	-4.92
663.446	15.08
663.478	6.08
663.51	26.08
663.542	-13.92
663.574	0.08
663.606	11.08
663.638	-0.92
663.67	-14.92
663.702	-16.92
663.734	-0.92
663.766	6.08
663.798	-3.92
663.83	17.08
663.862	12.08
663.894	13.08
663.926	8.08
663.958	1.08
663.99	5.08
664.022	-6.92
664.054	13.08
664.086	0.08
664.118	-14.92
664.15	-8.92
664.182	5.08
664.214	3.08
664.246	13.08
664.278	-4.92
664.31	3.08
664.342	11.08
664.374	5.08
664.406	15.08
664.438	-10.92
664.47	25.08
664.502	2.08
664.534	10.08
664.566	13.08
664.598	15.08
664.63	17.08
664.662	4.08
664.693	2.08
664.725	-14.92
664.757	-2.92
664.789	-4.92
664.821	4.08
664.853	15.08
664.885	10.08
664.917	7.08
664.949	22.08
664.981	10.08
665.013	-0.92
665.045	-13.92
665.076	-6.92
665.108	6.08
665.14	-1.92
665.172	7.08
665.204	17.08
665.236	-1.92
665.268	7.08
665.3	6.08
665.331	-2.92
665.363	6.08
665.395	2.08
665.427	-5.92
665.459	10.08
665.491	-7.92
665.523	17.08
665.555	-0.92
665.586	-0.92
665.618	6.08
665.65	10.08
665.682	13.08
665.714	23.08
665.746	-0.92
665.777	-5.92
665.809	5.08
665.841	-6.92
665.873	-0.92
665.905	-1.92
665.937	11.08
665.968	0.08
666	10.08
666.032	5.08
666.064	6.08
666.096	3.08
666.127	7.08
666.159	14.08
666.191	11.08
666.223	8.08
666.255	0.08
666.286	6.08
666.318	5.08
666.35	15.08
666.382	3.08
666.413	-4.92
666.445	-21.92
666.477	-15.92
666.509	11.08
666.54	6.08
666.572	3.08
666.604	-3.92
666.636	3.08
666.667	10.08
666.699	-5.92
666.731	-6.92
666.763	2.08
666.794	-10.92
666.826	1.08
666.858	-12.92
666.89	-1.92
666.921	21.08
666.953	28.08
666.985	10.08
667.017	20.08
667.048	20.08
667.08	6.08
667.112	4.08
667.143	-12.92
667.175	-16.92
667.207	-0.92
667.238	6.08
667.27	5.08
667.302	-4.92
667.334	0.08
667.365	13.08
667.397	8.08
667.429	2.08
667.46	9.08
667.492	15.08
667.524	6.08
667.555	-2.92
667.587	-13.92
667.619	-0.92
667.65	-2.92
667.682	11.08
667.714	5.08
667.745	3.08
667.777	-4.92
667.808	21.08
667.84	11.08
667.872	-14.92
667.903	31.08
667.935	-2.92
667.967	-6.92
667.998	8.08
668.03	5.08
668.061	-1.92
668.093	2.08
668.125	10.08
668.156	5.08
668.188	8.08
668.22	-3.92
668.251	-2.92
668.283	4.08
668.314	2.08
668.346	-13.92
668.377	-0.92
668.409	1.08
668.441	2.08
668.472	24.08
668.504	-7.92
668.535	-5.92
668.567	23.08
668.599	14.08
668.63	-11.92
668.662	13.08
668.693	2.08
668.725	16.08
668.756	3.08
668.788	-1.92
668.819	-1.92
668.851	11.08
668.882	8.08
668.914	-2.92
668.946	-8.92
668.977	-0.92
669.009	2.08
669.04	-14.92
669.072	9.08
669.103	8.08
669.135	5.08
669.166	2.08
669.198	8.08
669.229	20.08
669.261	4.08
669.292	-4.92
669.324	-1.92
669.355	9.08
669.387	-2.92
669.418	6.08
669.45	-7.92
669.481	-3.92
669.513	-11.92
669.544	13.08
669.576	-13.92
669.607	3.08
669.639	14.08
669.67	-0.92
669.701	0.08
669.733	-12.92
669.764	10.08
669.796	-2.92
669.827	-3.92
669.859	6.08
669.89	22.08
669.922	8.08
669.953	1.08
669.985	20.08
670.016	14.08
670.047	5.08
670.079	-5.92
670.11	20.08
670.142	3.08
670.173	5.08
670.204	4.08
670.236	8.08
670.267	-18.92
670.299	-8.92
670.33	8.08
670.362	15.08
670.393	-12.92
670.424	25.08
670.456	-16.92
670.487	7.08
670.518	13.08
670.55	19.08
670.581	12.08
670.613	14.08
670.644	-7.92
670.675	7.08
670.707	6.08
670.738	6.08
670.769	5.08
670.801	-12.92
670.832	9.08
670.864	-7.92
670.895	-11.92
670.926	-13.92
670.958	-2.92
670.989	2.08
671.02	-11.92
671.052	12.08
671.083	22.08
671.114	0.08
671.146	2.08
671.177	13.08
671.208	11.08
671.24	-13.92
671.271	-2.92
671.302	11.08
671.333	-4.92
671.365	-26.92
671.396	-5.92
671.427	10.08
671.459	25.08
671.49	4.08
671.521	-3.92
671.553	-0.92
671.584	0.08
671.615	-0.92
671.646	9.08
671.678	3.08
671.709	-9.92
671.74	-4.92
671.771	-4.92
671.803	-2.92
671.834	-2.92
671.865	4.08
671.896	1.08
671.928	11.08
671.959	-5.92
671.99	-10.92
672.021	4.08
672.053	-8.92
672.084	4.08
672.115	-2.92
672.146	-0.92
672.178	-6.92
672.209	-4.92
672.24	22.08
672.271	24.08
672.303	3.08
672.334	12.08
672.365	-0.92
672.396	1.08
672.427	15.08
672.459	16.08
672.49	20.08
672.521	15.08
672.552	12.08
672.583	3.08
672.615	15.08
672.646	16.08
672.677	-11.92
672.708	-5.92
672.739	13.08
672.77	21.08
672.802	16.08
672.833	-1.92
672.864	6.08
672.895	2.08
672.926	-2.92
672.957	8.08
672.989	17.08
673.02	14.08
673.051	7.08
673.082	15.08
673.113	15.08
673.144	15.08
673.175	5.08
673.206	4.08
673.238	-3.92
673.269	-1.92
673.3	-1.92
673.331	9.08
673.362	11.08
673.393	8.08
673.424	8.08
673.455	27.08
673.487	6.08
673.518	2.08
673.549	7.08
673.58	4.08
673.611	20.08
673.642	1.08
673.673	-12.92
673.704	17.08
673.735	-14.92
673.766	2.08
673.797	18.08
673.828	10.08
673.86	-3.92
673.891	-15.92
673.922	-12.92
673.953	-11.92
673.984	3.08
674.015	7.08
674.046	-4.92
674.077	1.08
674.108	3.08
674.139	-13.92
674.17	-0.92
674.201	-0.92
674.232	3.08
674.263	-8.92
674.294	-8.92
674.325	-10.92
674.356	-12.92
674.387	5.08
674.418	21.08
674.449	-10.92
674.48	-6.92
674.511	6.08
674.542	4.08
674.573	2.08
674.604	1.08
674.635	-2.92
674.666	9.08
674.697	5.08
674.728	10.08
674.759	-2.92
674.79	-10.92
674.821	-7.92
674.852	-13.92
674.883	-1.92
674.914	11.08
674.945	7.08
674.976	-1.92
675.007	11.08
675.038	9.08
675.069	-6.92
675.1	2.08
675.131	11.08
675.162	-1.92
675.193	3.08
675.224	-2.92
675.254	9.08
675.285	13.08
675.316	10.08
675.347	8.08
675.378	3.08
675.409	0.08
675.44	4.08
675.471	6.08
675.502	3.08
675.533	-7.92
675.564	5.08
675.595	-8.92
675.625	13.08
675.656	-5.92
675.687	2.08
675.718	-16.92
675.749	20.08
675.78	-2.92
675.811	9.08
675.842	-0.92
675.873	-4.92
675.903	4.08
675.934	7.08
675.965	-8.92
675.996	-6.92
676.027	7.08
676.058	2.08
676.089	-6.92
676.119	-4.92
676.15	-1.92
676.181	18.08
676.212	-0.92
676.243	-2.92
676.274	4.08
676.304	22.08
676.335	-3.92
676.366	16.08
676.397	-5.92
676.428	-6.92
676.459	14.08
676.489	14.08
676.52	4.08
676.551	2.08
676.582	-4.92
676.613	2.08
676.643	-0.92
676.674	2.08
676.705	12.08
676.736	-0.92
676.767	20.08
676.797	6.08
676.828	0.08
676.859	7.08
676.89	7.08
676.92	23.08
676.951	11.08
676.982	15.08
677.013	1.08
677.044	15.08
677.074	12.08
677.105	2.08
677.136	12.08
677.167	-3.92
677.197	7.08
677.228	-5.92
677.259	-5.92
677.289	-8.92
677.32	3.08
677.351	2.08
677.382	-12.92
677.412	9.08
677.443	14.08
677.474	14.08
677.505	-9.92
677.535	10.08
677.566	-8.92
677.597	-2.92
677.627	-10.92
677.658	-0.92
677.689	-3.92
677.72	8.08
677.75	9.08
677.781	5.08
677.812	11.08
677.842	-1.92
677.873	-2.92
677.904	3.08
677.934	7.08
677.965	-9.92
677.996	-12.92
678.026	10.08
678.057	15.08
678.088	-0.92
678.118	-2.92
678.149	6.08
678.18	-4.92
678.21	1.08
678.241	6.08
678.272	12.08
678.302	17.08
678.333	3.08
678.363	20.08
678.394	-9.92
678.425	8.08
678.455	1.08
678.486	15.08
678.517	4.08
678.547	-4.92
678.578	1.08
678.608	-23.92
678.639	15.08
678.67	4.08
678.7	2.08
678.731	2.08
678.761	1.08
678.792	2.08
678.823	0.08
678.853	11.08
678.884	-3.92
678.914	10.08
678.945	14.08
678.975	-6.92
679.006	13.08
679.037	-1.92
679.067	17.08
679.098	14.08
679.128	0.08
679.159	12.08
679.189	14.08
679.22	-21.92
679.25	5.08
679.281	-0.92
679.312	-4.92
679.342	1.08
679.373	26.08
679.403	4.08
679.434	16.08
679.464	11.08
679.495	5.08
679.525	15.08
679.556	-3.92
679.586	3.08
679.617	15.08
679.647	-3.92
679.678	7.08
679.708	2.08
679.739	-0.92
679.769	-5.92
679.8	12.08
679.83	-1.92
679.861	11.08
679.891	5.08
679.922	-9.92
679.952	4.08
679.983	11.08
680.013	1.08
680.044	5.08
680.074	24.08
680.105	-9.92
680.135	18.08
680.165	6.08
680.196	7.08
680.226	-1.92
680.257	10.08
680.287	10.08
680.318	-0.92
680.348	-6.92
680.379	8.08
680.409	15.08
680.439	6.08
680.47	1.08
680.5	-7.92
680.531	1.08
680.561	8.08
680.592	3.08
680.622	15.08
680.652	7.08
680.683	7.08
680.713	-6.92
680.744	13.08
680.774	3.08
680.804	15.08
680.835	4.08
680.865	7.08
680.896	15.08
680.926	31.08
680.956	7.08
680.987	6.08
681.017	2.08
681.047	5.08
681.078	-2.92
681.108	-11.92
681.139	0.08
681.169	10.08
681.199	15.08
681.23	5.08
681.26	-2.92
681.29	11.08
681.321	-6.92
681.351	-6.92
681.381	-14.92
681.412	1.08
681.442	14.08
681.472	18.08
681.503	12.08
681.533	1.08
681.563	-5.92
681.594	11.08
681.624	-9.92
681.654	9.08
681.685	8.08
681.715	5.08
681.745	7.08
681.775	-2.92
681.806	7.08
681.836	3.08
681.866	7.08
681.897	1.08
681.927	2.08
681.957	-17.92
681.987	3.08
682.018	0.08
682.048	-1.92
682.078	12.08
682.109	-4.92
682.139	8.08
682.169	-1.92
682.199	-10.92
682.23	-18.92
682.26	9.08
682.29	-3.92
682.32	5.08
682.351	-11.92
682.381	11.08
682.411	-10.92
682.441	-16.92
682.472	-5.92
682.502	7.08
682.532	7.08
682.562	-4.92
682.592	9.08
682.623	16.08
682.653	11.08
682.683	2.08
682.713	7.08
682.743	8.08
682.774	4.08
682.804	4.08
682.834	6.08
682.864	-2.92
682.894	11.08
682.925	-1.92
682.955	1.08
682.985	-14.92
683.015	13.08
683.045	6.08
683.076	-4.92
683.106	3.08
683.136	2.08
683.166	9.08
683.196	2.08
683.226	11.08
683.257	0.08
683.287	2.08
683.317	-1.92
683.347	0.08
683.377	10.08
683.407	8.08
683.437	15.08
683.468	4.08
683.498	1.08
683.528	-5.92
683.558	-5.92
683.588	7.08
683.618	1.08
683.648	-11.92
683.678	6.08
683.708	25.08
683.739	2.08
683.769	-4.92
683.799	-0.92
683.829	-3.92
683.859	7.08
683.889	25.08
683.919	-5.92
683.949	11.08
683.979	-0.92
684.009	6.08
684.039	-9.92
684.07	-6.92
684.1	11.08
684.13	15.08
684.16	9.08
684.19	4.08
684.22	4.08
684.25	19.08
684.28	-7.92
684.31	25.08
684.34	27.08
684.37	11.08
684.4	2.08
684.43	14.08
684.46	2.08
684.49	-2.92
684.52	3.08
684.55	10.08
684.58	6.08
684.61	9.08
684.64	12.08
684.67	16.08
684.7	2.08
684.73	4.08
684.76	4.08
684.79	17.08
684.82	-11.92
684.85	1.08
684.88	16.08
684.91	1.08
684.94	-3.92
684.97	-15.92
685	-5.92
685.03	8.08
685.06	-9.92
685.09	-2.92
685.12	5.08
685.15	-8.92
685.18	3.08
685.21	23.08
685.24	7.08
685.27	4.08
685.3	3.08
685.33	1.08
685.36	11.08
685.39	6.08
685.42	-7.92
685.45	-5.92
685.48	-11.92
685.51	-8.92
685.54	8.08
685.569	8.08
685.599	3.08
685.629	3.08
685.659	-0.92
685.689	4.08
685.719	12.08
685.749	-11.92
685.779	6.08
685.809	3.08
685.839	8.08
685.869	-0.92
685.898	20.08
685.928	4.08
685.958	-8.92
685.988	22.08
686.018	-9.92
686.048	10.08
686.078	24.08
686.108	9.08
686.137	10.08
686.167	5.08
686.197	-12.92
686.227	10.08
686.257	29.08
686.287	8.08
686.317	15.08
686.346	-15.92
686.376	-11.92
686.406	-18.92
686.436	1.08
686.466	-0.92
686.496	13.08
686.525	14.08
686.555	6.08
686.585	25.08
686.615	35.08
686.645	31.08
686.675	2.08
686.704	-3.92
686.734	-2.92
686.764	1.08
686.794	5.08
686.824	-3.92
686.853	10.08
686.883	2.08
686.913	8.08
686.943	12.08
686.973	-5.92
687.002	11.08
687.032	16.08
687.062	-7.92
687.092	10.08
687.121	-1.92
687.151	5.08
687.181	1.08
687.211	-6.92
687.24	-9.92
687.27	3.08
687.3	-3.92
687.33	8.08
687.359	-9.92
687.389	2.08
687.419	-13.92
687.449	-8.92
687.478	11.08
687.508	3.08
687.538	11.08
687.568	-0.92
687.597	-10.92
687.627	-5.92
687.657	3.08
687.686	5.08
687.716	9.08
687.746	3.08
687.776	3.08
687.805	1.08
687.835	-8.92
687.865	23.08
687.894	11.08
687.924	-5.92
687.954	6.08
687.983	-12.92
688.013	2.08
688.043	6.08
688.072	-2.92
688.102	15.08
688.132	-5.92
688.161	6.08
688.191	2.08
688.221	13.08
688.25	-3.92
688.28	8.08
688.31	-0.92
688.339	4.08
688.369	-0.92
688.399	7.08
688.428	9.08
688.458	1.08
688.488	-9.92
688.517	13.08
688.547	-1.92
688.576	22.08
688.606	18.08
688.636	-11.92
688.665	-2.92
688.695	1.08
688.725	15.08
688.754	5.08
688.784	7.08
688.813	10.08
688.843	-9.92
688.873	7.08
688.902	8.08
688.932	-4.92
688.961	-1.92
688.991	5.08
689.02	10.08
689.05	-3.92
689.08	10.08
689.109	21.08
689.139	-5.92
689.168	2.08
689.198	13.08
689.227	1.08
689.257	14.08
689.287	13.08
689.316	-0.92
689.346	-2.92
689.375	-14.92
689.405	15.08
689.434	3.08
689.464	21.08
689.493	13.08
689.523	-8.92
689.552	-5.92
689.582	1.08
689.611	3.08
689.641	25.08
689.67	-3.92
689.7	7.08
689.73	18.08
689.759	6.08
689.789	9.08
689.818	15.08
689.848	3.08
689.877	26.08
689.906	7.08
689.936	12.08
689.965	15.08
689.995	10.08
690.024	14.08
690.054	-0.92
690.083	2.08
690.113	-13.92
690.142	-2.92
690.172	12.08
690.201	5.08
690.231	-8.92
690.26	0.08
690.29	8.08
690.319	17.08
690.348	7.08
690.378	4.08
690.407	7.08
690.437	-14.92
690.466	11.08
690.496	13.08
690.525	15.08
690.555	8.08
690.584	-0.92
690.613	-0.92
690.643	16.08
690.672	19.08
690.702	11.08
690.731	-3.92
690.76	-4.92
690.79	-5.92
690.819	-13.92
690.849	15.08
690.878	-2.92
690.907	-1.92
690.937	15.08
690.966	23.08
690.996	7.08
691.025	6.08
691.054	7.08
691.084	-1.92
691.113	14.08
691.142	3.08
691.172	7.08
691.201	16.08
691.23	-2.92
691.26	21.08
691.289	9.08
691.319	-9.92
691.348	1.08
691.377	27.08
691.407	10.08
691.436	-3.92
691.465	0.08
691.495	-12.92
691.524	-10.92
691.553	4.08
691.583	1.08
691.612	17.08
691.641	15.08
691.67	12.08
691.7	17.08
691.729	8.08
691.758	1.08
691.788	-6.92
691.817	1.08
691.846	-7.92
691.876	2.08
691.905	-7.92
691.934	4.08
691.963	9.08
691.993	12.08
692.022	4.08
692.051	-7.92
692.081	7.08
692.11	23.08
692.139	27.08
692.168	7.08
692.198	23.08
692.227	16.08
692.256	-0.92
692.285	-6.92
692.315	-5.92
692.344	1.08
692.373	18.08
692.402	-3.92
692.432	10.08
692.461	5.08
692.49	0.08
692.519	-4.92
692.548	20.08
692.578	13.08
692.607	-10.92
692.636	-8.92
692.665	4.08
692.694	5.08
692.724	9.08
692.753	15.08
692.782	25.08
692.811	2.08
692.84	-7.92
692.87	12.08
692.899	-9.92
692.928	-2.92
692.957	18.08
692.986	11.08
693.016	16.08
693.045	15.08
693.074	5.08
693.103	-8.92
693.132	-8.92
693.161	16.08
693.191	2.08
693.22	-10.92
693.249	-3.92
693.278	3.08
693.307	13.08
693.336	-6.92
693.365	-9.92
693.395	6.08
693.424	-3.92
693.453	7.08
693.482	3.08
693.511	7.08
693.54	10.08
693.569	11.08
693.598	-2.92
693.628	23.08
693.657	11.08
693.686	26.08
693.715	13.08
693.744	10.08
693.773	21.08
693.802	12.08
693.831	-4.92
693.86	16.08
693.889	9.08
693.919	18.08
693.948	10.08
693.977	6.08
694.006	-9.92
694.035	5.08
694.064	-5.92
694.093	13.08
694.122	5.08
694.151	3.08
694.18	7.08
694.209	19.08
694.238	4.08
694.267	17.08
694.296	30.08
694.325	29.08
694.354	15.08
694.383	10.08
694.412	9.08
694.441	3.08
694.471	-1.92
694.5	-7.92
694.529	4.08
694.558	25.08
694.587	12.08
694.616	2.08
694.645	-0.92
694.674	10.08
694.703	14.08
694.732	-2.92
694.761	7.08
694.79	13.08
694.819	-5.92
694.848	-2.92
694.877	28.08
694.906	22.08
694.935	-4.92
694.963	26.08
694.992	9.08
695.021	17.08
695.05	17.08
695.079	5.08
695.108	13.08
695.137	13.08
695.166	12.08
695.195	-1.92
695.224	5.08
695.253	-0.92
695.282	-0.92
695.311	13.08
695.34	-8.92
695.369	3.08
695.398	1.08
695.427	19.08
695.456	-5.92
695.485	16.08
695.513	9.08
695.542	0.08
695.571	1.08
695.6	4.08
695.629	-1.92
695.658	18.08
695.687	-2.92
695.716	3.08
695.745	19.08
695.774	-4.92
695.802	1.08
695.831	2.08
695.86	11.08
695.889	22.08
695.918	3.08
695.947	4.08
695.976	-11.92
696.005	1.08
696.033	9.08
696.062	17.08
696.091	5.08
696.12	10.08
696.149	27.08
696.178	12.08
696.207	5.08
696.235	2.08
696.264	12.08
696.293	2.08
696.322	8.08
696.351	6.08
696.38	19.08
696.408	28.08
696.437	5.08
696.466	6.08
696.495	7.08
696.524	20.08
696.553	-1.92
696.581	-1.92
696.61	1.08
696.639	2.08
696.668	3.08
696.697	3.08
696.725	-2.92
696.754	17.08
696.783	0.08
696.812	5.08
696.84	19.08
696.869	5.08
696.898	-6.92
696.927	1.08
696.956	11.08
696.984	9.08
697.013	6.08
697.042	-5.92
697.071	8.08
697.099	6.08
697.128	1.08
697.157	16.08
697.186	7.08
697.214	-6.92
697.243	-14.92
697.272	8.08
697.301	5.08
697.329	5.08
697.358	8.08
697.387	19.08
697.415	24.08
697.444	3.08
697.473	3.08
697.502	-5.92
697.53	1.08
697.559	-10.92
697.588	-2.92
697.616	12.08
697.645	3.08
697.674	6.08
697.703	-5.92
697.731	20.08
697.76	29.08
697.789	0.08
697.817	3.08
697.846	17.08
697.875	5.08
697.903	28.08
697.932	14.08
697.961	20.08
697.989	7.08
698.018	10.08
698.047	1.08
698.075	6.08
698.104	-8.92
698.133	-2.92
698.161	2.08
698.19	4.08
698.218	1.08
698.247	20.08
698.276	8.08
698.304	25.08
698.333	10.08
698.362	2.08
698.39	4.08
698.419	12.08
698.447	7.08
698.476	3.08
698.505	15.08
698.533	12.08
698.562	3.08
698.591	4.08
698.619	-4.92
698.648	12.08
698.676	20.08
698.705	-2.92
698.733	-6.92
698.762	16.08
698.791	18.08
698.819	3.08
698.848	3.08
698.876	13.08
698.905	12.08
698.933	15.08
698.962	12.08
698.991	8.08
699.019	18.08
699.048	13.08
699.076	13.08
699.105	-0.92
699.133	1.08
699.162	30.08
699.19	33.08
699.219	11.08
699.248	10.08
699.276	-10.92
699.305	-4.92
699.333	7.08
699.362	-1.92
699.39	1.08
699.419	-6.92
699.447	7.08
699.476	2.08
699.504	-1.92
699.533	5.08
699.561	-3.92
699.59	-4.92
699.618	-1.92
699.647	5.08
699.675	-1.92
699.704	6.08
699.732	-2.92
699.761	10.08
699.789	5.08
699.818	20.08
699.846	10.08
699.874	-0.92
699.903	1.08
699.931	-0.92
699.96	7.08
699.988	3.08
700.017	2.08
700.045	13.08
700.074	-0.92
700.102	15.08
700.13	-4.92
700.159	5.08
700.187	7.08
700.216	0.08
700.244	9.08
700.273	7.08
700.301	13.08
700.329	6.08
700.358	11.08
700.386	1.08
700.415	0.08
700.443	4.08
700.472	6.08
700.5	5.08
700.528	-3.92
700.557	14.08
700.585	-4.92
700.614	-14.92
700.642	15.08
700.67	19.08
700.699	30.08
700.727	18.08
700.755	-12.92
700.784	13.08
700.812	4.08
700.841	13.08
700.869	3.08
700.897	-17.92
700.926	2.08
700.954	5.08
700.982	9.08
701.011	13.08
701.039	12.08
701.067	3.08
701.096	5.08
701.124	3.08
701.152	10.08
701.181	5.08
701.209	1.08
701.237	15.08
701.266	-0.92
701.294	13.08
701.322	6.08
701.351	15.08
701.379	11.08
701.407	-4.92
701.435	2.08
701.464	30.08
701.492	22.08
701.52	-13.92
701.549	2.08
701.577	-0.92
701.605	10.08
701.634	16.08
701.662	16.08
701.69	1.08
701.718	10.08
701.747	3.08
701.775	11.08
701.803	-7.92
701.831	18.08
701.86	-0.92
701.888	14.08
701.916	5.08
701.944	0.08
701.973	2.08
702.001	-1.92
702.029	1.08
702.057	-3.92
702.086	-3.92
702.114	4.08
702.142	3.08
702.17	-10.92
702.199	2.08
702.227	4.08
702.255	-7.92
702.283	-11.92
702.311	3.08
702.34	-0.92
702.368	-16.92
702.396	-5.92
702.424	2.08
702.452	1.08
702.481	6.08
702.509	-9.92
702.537	-2.92
702.565	6.08
702.593	-10.92
702.621	-3.92
702.65	16.08
702.678	-0.92
702.706	12.08
702.734	-5.92
702.762	-2.92
702.79	5.08
702.819	13.08
702.847	14.08
702.875	13.08
702.903	4.08
702.931	-10.92
702.959	-8.92
702.988	-3.92
703.016	-10.92
703.044	8.08
703.072	-1.92
703.1	-5.92
703.128	-6.92
703.156	5.08
703.184	7.08
703.212	-1.92
703.241	10.08
703.269	-9.92
703.297	-15.92
703.325	17.08
703.353	-13.92
703.381	-10.92
703.409	0.08
703.437	2.08
703.465	-8.92
703.493	-1.92
703.522	-7.92
703.55	19.08
703.578	7.08
703.606	0.08
703.634	0.08
703.662	-3.92
703.69	-4.92
703.718	0.08
703.746	10.08
703.774	13.08
703.802	17.08
703.83	4.08
703.858	-13.92
703.886	1.08
703.914	-0.92
703.942	9.08
703.97	1.08
703.998	1.08
704.027	22.08
704.055	10.08
704.083	4.08
704.111	-6.92
704.139	3.08
704.167	8.08
704.195	21.08
704.223	-3.92
704.251	-1.92
704.279	24.08
704.307	16.08
704.335	-19.92
704.363	6.08
704.391	-12.92
704.419	6.08
704.447	-5.92
704.475	10.08
704.503	-2.92
704.531	6.08
704.558	5.08
704.586	5.08
704.614	9.08
704.642	5.08
704.67	-2.92
704.698	1.08
704.726	16.08
704.754	0.08
704.782	-3.92
704.81	-5.92
704.838	31.08
704.866	6.08
704.894	-2.92
704.922	-0.92
704.95	18.08
704.978	5.08
705.006	27.08
705.034	32.08
705.061	7.08
705.089	3.08
705.117	-7.92
705.145	-4.92
705.173	-2.92
705.201	-1.92
705.229	22.08
705.257	-4.92
705.285	-0.92
705.313	8.08
705.34	-21.92
705.368	2.08
705.396	-0.92
705.424	6.08
705.452	-6.92
705.48	14.08
705.508	11.08
705.536	1.08
705.563	-9.92
705.591	19.08
705.619	12.08
705.647	-4.92
705.675	9.08
705.703	-6.92
705.731	-8.92
705.758	16.08
705.786	18.08
705.814	17.08
705.842	3.08
705.87	5.08
705.898	6.08
705.925	-4.92
705.953	6.08
705.981	-3.92
706.009	2.08
706.037	4.08
706.065	5.08
706.092	1.08
706.12	18.08
706.148	-23.92
706.176	-2.92
706.204	-5.92
706.231	-3.92
706.259	-7.92
706.287	-4.92
706.315	6.08
706.342	13.08
706.37	10.08
706.398	19.08
706.426	12.08
706.454	13.08
706.481	10.08
706.509	2.08
706.537	-5.92
706.565	-1.92
706.592	-7.92
706.62	0.08
706.648	0.08
706.676	-10.92
706.703	6.08
706.731	-1.92
706.759	-5.92
706.787	21.08
706.814	17.08
706.842	-9.92
706.87	-3.92
706.897	6.08
706.925	-4.92
706.953	22.08
706.981	6.08
707.008	6.08
707.036	6.08
707.064	-3.92
707.091	-21.92
707.119	6.08
707.147	-1.92
707.174	-12.92
707.202	10.08
707.23	-2.92
707.258	4.08
707.285	-5.92
707.313	-1.92
707.341	-10.92
707.368	-10.92
707.396	7.08
707.424	3.08
707.451	7.08
707.479	-1.92
707.507	-7.92
707.534	-6.92
707.562	5.08
707.59	6.08
707.617	-15.92
707.645	-6.92
707.672	-1.92
707.7	10.08
707.728	19.08
707.755	21.08
707.783	-1.92
707.811	-5.92
707.838	1.08
707.866	-0.92
707.893	5.08
707.921	6.08
707.949	3.08
707.976	5.08
708.004	6.08
708.031	0.08
708.059	0.08
708.087	4.08
708.114	-13.92
708.142	-6.92
708.169	-1.92
708.197	-2.92
708.225	1.08
708.252	-0.92
708.28	-5.92
708.307	6.08
708.335	2.08
708.362	0.08
708.39	-0.92
708.418	-6.92
708.445	-9.92
708.473	-1.92
708.5	-6.92
708.528	-2.92
708.555	-17.92
708.583	5.08
708.61	-2.92
708.638	5.08
708.665	-2.92
708.693	-0.92
708.72	-2.92
708.748	0.08
708.776	2.08
708.803	20.08
708.831	-0.92
708.858	6.08
708.886	2.08
708.913	6.08
708.941	-5.92
708.968	13.08
708.996	0.08
709.023	27.08
709.051	-9.92
709.078	-5.92
709.105	-1.92
709.133	-4.92
709.16	3.08
709.188	14.08
709.215	2.08
709.243	3.08
709.27	1.08
709.298	-4.92
709.325	-16.92
709.353	2.08
709.38	15.08
709.408	19.08
709.435	20.08
709.462	6.08
709.49	5.08
709.517	-6.92
709.545	10.08
709.572	-6.92
709.6	9.08
709.627	8.08
709.655	9.08
709.682	-2.92
709.709	6.08
709.737	15.08
709.764	-3.92
709.792	-4.92
709.819	3.08
709.846	4.08
709.874	1.08
709.901	22.08
709.929	19.08
709.956	5.08
709.983	-2.92
710.011	1.08
710.038	-1.92
710.066	8.08
710.093	2.08
710.12	9.08
710.148	7.08
710.175	-7.92
710.202	-16.92
710.23	7.08
710.257	1.08
710.284	8.08
710.312	5.08
710.339	-1.92
710.366	3.08
710.394	-5.92
710.421	-2.92
710.448	-0.92
710.476	-4.92
710.503	-6.92
710.53	12.08
710.558	22.08
710.585	2.08
710.612	0.08
710.64	21.08
710.667	-0.92
710.694	2.08
710.722	2.08
710.749	10.08
710.776	1.08
710.804	24.08
710.831	9.08
710.858	-2.92
710.885	7.08
710.913	11.08
710.94	10.08
710.967	12.08
710.995	11.08
711.022	-6.92
711.049	-2.92
711.076	6.08
711.104	5.08
711.131	-16.92
711.158	5.08
711.185	5.08
711.213	-13.92
711.24	-5.92
711.267	-3.92
711.294	-5.92
711.322	-3.92
711.349	-2.92
711.376	1.08
711.403	5.08
711.431	-6.92
711.458	-5.92
711.485	-1.92
711.512	-2.92
711.54	-6.92
711.567	11.08
711.594	5.08
711.621	0.08
711.648	-0.92
711.676	5.08
711.703	-8.92
711.73	-13.92
711.757	14.08
711.784	9.08
711.812	-2.92
711.839	-6.92
711.866	-4.92
711.893	-11.92
711.92	4.08
711.947	1.08
711.975	6.08
712.002	3.08
712.029	8.08
712.056	10.08
712.083	15.08
712.11	-18.92
712.138	1.08
712.165	5.08
712.192	1.08
712.219	-3.92
712.246	-10.92
712.273	-10.92
712.3	-1.92
712.328	-1.92
712.355	9.08
712.382	-1.92
712.409	9.08
712.436	-6.92
712.463	2.08
712.49	18.08
712.517	12.08
712.544	-3.92
712.572	-3.92
712.599	-0.92
712.626	2.08
712.653	15.08
712.68	-3.92
712.707	10.08
712.734	7.08
712.761	9.08
712.788	7.08
712.815	-1.92
712.842	-1.92
712.87	6.08
712.897	2.08
712.924	-2.92
712.951	9.08
712.978	23.08
713.005	23.08
713.032	10.08
713.059	10.08
713.086	2.08
713.113	-2.92
713.14	-16.92
713.167	10.08
713.194	10.08
713.221	-5.92
713.248	3.08
713.275	-2.92
713.302	-1.92
713.329	1.08
713.356	0.08
713.383	-0.92
713.41	1.08
713.437	4.08
713.464	8.08
713.491	-1.92
713.518	-11.92
713.545	-3.92
713.572	1.08
713.599	32.08
713.626	-0.92
713.653	-4.92
713.68	3.08
713.707	3.08
713.734	-13.92
713.761	0.08
713.788	3.08
713.815	10.08
713.842	2.08
713.869	3.08
713.896	-3.92
713.923	-13.92
713.95	4.08
713.977	-11.92
714.004	-4.92
714.031	17.08
714.058	4.08
714.085	-2.92
714.112	17.08
714.139	3.08
714.165	-3.92
714.192	-2.92
714.219	6.08
714.246	4.08
714.273	8.08
714.3	2.08
714.327	1.08
714.354	13.08
714.381	6.08
714.408	4.08
714.435	-10.92
714.461	-2.92
714.488	6.08
714.515	-0.92
714.542	2.08
714.569	-10.92
714.596	-1.92
714.623	2.08
714.65	-3.92
714.677	11.08
714.703	-4.92
714.73	13.08
714.757	10.08
714.784	25.08
714.811	-6.92
714.838	15.08
714.865	6.08
714.891	13.08
714.918	15.08
714.945	-7.92
714.972	-6.92
714.999	15.08
715.026	-1.92
715.052	4.08
715.079	-4.92
715.106	-0.92
715.133	6.08
715.16	-0.92
715.187	9.08
715.213	15.08
715.24	2.08
715.267	3.08
715.294	3.08
715.321	4.08
715.347	-2.92
715.374	-7.92
715.401	-28.92
715.428	-2.92
715.455	2.08
715.481	-2.92
715.508	1.08
715.535	-6.92
715.562	9.08
715.588	3.08
715.615	-6.92
715.642	15.08
715.669	18.08
715.695	-4.92
715.722	-4.92
715.749	9.08
715.776	17.08
715.802	6.08
715.829	0.08
715.856	-21.92
715.883	2.08
715.909	-8.92
715.936	-6.92
715.963	-2.92
715.99	-27.92
716.016	-8.92
716.043	10.08
716.07	-7.92
716.096	1.08
716.123	-4.92
716.15	5.08
716.177	-11.92
716.203	13.08
716.23	23.08
716.257	0.08
716.283	9.08
716.31	9.08
716.337	-2.92
716.363	7.08
716.39	12.08
716.417	12.08
716.443	3.08
716.47	15.08
716.497	7.08
716.523	10.08
716.55	19.08
716.577	6.08
716.603	-2.92
716.63	-0.92
716.657	17.08
716.683	-9.92
716.71	-4.92
716.737	-7.92
716.763	-2.92
716.79	7.08
716.817	7.08
716.843	10.08
716.87	0.08
716.897	6.08
716.923	15.08
716.95	-1.92
716.976	-6.92
717.003	-1.92
717.03	10.08
717.056	8.08
717.083	10.08
717.109	-0.92
717.136	8.08
717.163	-0.92
717.189	20.08
717.216	-2.92
717.242	-16.92
717.269	0.08
717.296	14.08
717.322	13.08
717.349	21.08
717.375	-0.92
717.402	0.08
717.428	2.08
717.455	12.08
717.481	0.08
717.508	-0.92
717.535	1.08
717.561	-1.92
717.588	12.08
717.614	11.08
717.641	-8.92
717.667	10.08
717.694	6.08
717.72	0.08
717.747	15.08
717.773	4.08
717.8	3.08
717.826	13.08
717.853	10.08
717.88	16.08
717.906	3.08
717.933	13.08
717.959	14.08
717.986	3.08
718.012	3.08
718.039	22.08
718.065	26.08
718.092	7.08
718.118	-6.92
718.144	-5.92
718.171	18.08
718.197	27.08
718.224	-1.92
718.25	7.08
718.277	9.08
718.303	10.08
718.33	-3.92
718.356	-10.92
718.383	-16.92
718.409	9.08
718.436	-0.92
718.462	-8.92
718.489	-6.92
718.515	6.08
718.541	14.08
718.568	2.08
718.594	-1.92
718.621	-12.92
718.647	-2.92
718.674	6.08
718.7	2.08
718.726	0.08
718.753	7.08
718.779	11.08
718.806	-1.92
718.832	-1.92
718.858	-2.92
718.885	6.08
718.911	2.08
718.938	17.08
718.964	-10.92
718.99	3.08
719.017	5.08
719.043	12.08
719.07	11.08
719.096	5.08
719.122	27.08
719.149	-1.92
719.175	5.08
719.201	5.08
719.228	6.08
719.254	-9.92
719.281	-8.92
719.307	13.08
719.333	10.08
719.36	8.08
719.386	-0.92
719.412	-1.92
719.439	-19.92
719.465	-6.92
719.491	-5.92
719.518	9.08
719.544	13.08
719.57	12.08
719.597	14.08
719.623	12.08
719.649	6.08
719.675	-1.92
719.702	5.08
719.728	4.08
719.754	-12.92
719.781	-4.92
719.807	-2.92
719.833	-14.92
719.86	4.08
719.886	-7.92
719.912	4.08
719.938	4.08
719.965	6.08
719.991	9.08
720.017	12.08
720.044	-7.92
720.07	-1.92
720.096	4.08
720.122	-1.92
720.149	10.08
720.175	33.08
720.201	-0.92
720.227	8.08
720.254	18.08
720.28	-1.92
720.306	-3.92
720.332	14.08
720.359	-4.92
720.385	11.08
720.411	-1.92
720.437	4.08
720.463	-10.92
720.49	5.08
720.516	-11.92
720.542	-11.92
720.568	3.08
720.595	14.08
720.621	2.08
720.647	-3.92
720.673	0.08
720.699	-8.92
720.725	10.08
720.752	-0.92
720.778	7.08
720.804	17.08
720.83	29.08
720.856	6.08
720.883	-12.92
720.909	-1.92
720.935	5.08
720.961	13.08
720.987	0.08
721.013	5.08
721.04	-2.92
721.066	-6.92
721.092	-7.92
721.118	5.08
721.144	4.08
721.17	-2.92
721.196	-5.92
721.223	8.08
721.249	13.08
721.275	27.08
721.301	5.08
721.327	4.08
721.353	-1.92
721.379	4.08
721.405	14.08
721.432	19.08
721.458	3.08
721.484	-3.92
721.51	-1.92
721.536	-2.92
721.562	-0.92
721.588	10.08
721.614	-1.92
721.64	3.08
721.666	2.08
721.693	-5.92
721.719	-0.92
721.745	-8.92
721.771	5.08
721.797	3.08
721.823	9.08
721.849	13.08
721.875	8.08
721.901	18.08
721.927	2.08
721.953	9.08
721.979	11.08
722.005	14.08
722.031	-4.92
722.057	16.08
722.083	23.08
722.109	20.08
722.135	6.08
722.161	9.08
722.187	-7.92
722.214	1.08
722.24	1.08
722.266	-0.92
722.292	20.08
722.318	16.08
722.344	11.08
722.37	18.08
722.396	11.08
722.422	7.08
722.448	-2.92
722.474	2.08
722.5	22.08
722.526	10.08
722.552	4.08
722.578	5.08
722.603	16.08
722.629	-0.92
722.655	6.08
722.681	8.08
722.707	3.08
722.733	-1.92
722.759	-1.92
722.785	2.08
722.811	6.08
722.837	1.08
722.863	4.08
722.889	7.08
722.915	1.08
722.941	9.08
722.967	-3.92
722.993	13.08
723.019	11.08
723.045	4.08
723.071	-8.92
723.097	2.08
723.122	3.08
723.148	2.08
723.174	-3.92
723.2	23.08
723.226	8.08
723.252	14.08
723.278	4.08
723.304	-10.92
723.33	-5.92
723.356	-5.92
723.381	-5.92
723.407	-12.92
723.433	7.08
723.459	-8.92
723.485	15.08
723.511	16.08
723.537	6.08
723.563	-0.92
723.588	9.08
723.614	10.08
723.64	7.08
723.666	3.08
723.692	6.08
723.718	3.08
723.744	4.08
723.769	0.08
723.795	-6.92
723.821	1.08
723.847	-9.92
723.873	16.08
723.899	19.08
723.924	9.08
723.95	-0.92
723.976	-10.92
724.002	1.08
724.028	11.08
724.053	11.08
724.079	-2.92
724.105	11.08
724.131	-1.92
724.157	-2.92
724.182	9.08
724.208	-7.92
724.234	-11.92
724.26	-8.92
724.286	9.08
724.311	-4.92
724.337	-3.92
724.363	-5.92
724.389	-5.92
724.415	9.08
724.44	17.08
724.466	9.08
724.492	7.08
724.518	16.08
724.543	14.08
724.569	1.08
724.595	16.08
724.621	-2.92
724.646	-12.92
724.672	-6.92
724.698	-13.92
724.723	-16.92
724.749	-2.92
724.775	10.08
724.801	2.08
724.826	3.08
724.852	-3.92
724.878	6.08
724.904	-13.92
724.929	-7.92
724.955	-0.92
724.981	1.08
725.006	-3.92
725.032	-4.92
725.058	22.08
725.083	6.08
725.109	-2.92
725.135	4.08
725.161	-1.92
725.186	-12.92
725.212	-7.92
725.238	-2.92
725.263	-4.92
725.289	-2.92
725.315	-2.92
725.34	-5.92
725.366	9.08
725.392	-4.92
725.417	-5.92
725.443	0.08
725.468	11.08
725.494	24.08
725.52	28.08
725.545	16.08
725.571	16.08
725.597	17.08
725.622	7.08
725.648	-2.92
725.674	9.08
725.699	-0.92
725.725	-0.92
725.75	23.08
725.776	16.08
725.802	15.08
725.827	12.08
725.853	5.08
725.878	-10.92
725.904	-11.92
725.93	12.08
725.955	-12.92
725.981	-6.92
726.006	7.08
726.032	5.08
726.057	-2.92
726.083	-8.92
726.109	0.08
726.134	11.08
726.16	-5.92
726.185	-1.92
726.211	8.08
726.236	12.08
726.262	0.08
726.288	4.08
726.313	-1.92
726.339	9.08
726.364	-3.92
726.39	14.08
726.415	9.08
726.441	0.08
726.466	-0.92
726.492	7.08
726.517	9.08
726.543	6.08
726.568	-7.92
726.594	-5.92
726.619	14.08
726.645	13.08
726.67	-1.92
726.696	10.08
726.721	-2.92
726.747	-10.92
726.772	0.08
726.798	1.08
726.823	-6.92
726.849	-8.92
726.874	10.08
726.9	20.08
726.925	19.08
726.951	-7.92
726.976	1.08
727.002	3.08
727.027	4.08
727.053	13.08
727.078	3.08
727.104	1.08
727.129	-13.92
727.155	6.08
727.18	-2.92
727.205	-6.92
727.231	7.08
727.256	-0.92
727.282	1.08
727.307	18.08
727.333	-9.92
727.358	-4.92
727.383	-3.92
727.409	6.08
727.434	7.08
727.46	2.08
727.485	4.08
727.511	2.08
727.536	-19.92
727.561	-7.92
727.587	-9.92
727.612	-16.92
727.637	1.08
727.663	-8.92
727.688	28.08
727.714	-2.92
727.739	-10.92
727.764	-8.92
727.79	3.08
727.815	8.08
727.841	24.08
727.866	12.08
727.891	14.08
727.917	0.08
727.942	-0.92
727.967	3.08
727.993	-14.92
728.018	-2.92
728.043	-4.92
728.069	11.08
728.094	15.08
728.119	-13.92
728.145	9.08
728.17	6.08
728.195	22.08
728.221	9.08
728.246	4.08
728.271	-1.92
728.297	6.08
728.322	2.08
728.347	5.08
728.373	5.08
728.398	22.08
728.423	5.08
728.448	1.08
728.474	-0.92
728.499	8.08
728.524	-17.92
728.55	-16.92
728.575	-1.92
728.6	6.08
728.625	-3.92
728.651	14.08
728.676	-2.92
728.701	0.08
728.727	-21.92
728.752	-3.92
728.777	1.08
728.802	9.08
728.828	2.08
728.853	1.08
728.878	-7.92
728.903	-6.92
728.929	-14.92
728.954	-6.92
728.979	10.08
729.004	1.08
729.03	2.08
729.055	-12.92
729.08	-3.92
729.105	-3.92
729.13	24.08
729.156	13.08
729.181	-14.92
729.206	-11.92
729.231	5.08
729.256	16.08
729.282	10.08
729.307	-2.92
729.332	-7.92
729.357	-2.92
729.382	-3.92
729.408	-6.92
729.433	4.08
729.458	-4.92
729.483	-4.92
729.508	2.08
729.533	8.08
729.559	-3.92
729.584	-12.92
729.609	-0.92
729.634	-5.92
729.659	-6.92
729.684	-5.92
729.71	9.08
729.735	10.08
729.76	14.08
729.785	5.08
729.81	13.08
729.835	4.08
729.86	-0.92
729.886	12.08
729.911	14.08
729.936	5.08
729.961	10.08
729.986	-4.92
730.011	-6.92
730.036	-7.92
730.061	-4.92
730.086	14.08
730.112	0.08
730.137	12.08
730.162	-9.92
730.187	-7.92
730.212	19.08
730.237	-10.92
730.262	11.08
730.287	4.08
730.312	18.08
730.337	-5.92
730.362	26.08
730.387	-8.92
730.413	-9.92
730.438	-23.92
730.463	2.08
730.488	-3.92
730.513	5.08
730.538	-9.92
730.563	15.08
730.588	22.08
730.613	18.08
730.638	7.08
730.663	-1.92
730.688	27.08
730.713	13.08
730.738	-1.92
730.763	12.08
730.788	-2.92
730.813	15.08
730.838	4.08
730.863	15.08
730.888	1.08
730.913	-24.92
730.938	-9.92
730.963	-9.92
730.988	-3.92
731.013	21.08
731.038	3.08
731.063	-19.92
731.088	0.08
731.113	-11.92
731.138	-4.92
731.163	6.08
731.188	1.08
731.213	2.08
731.238	9.08
731.263	-5.92
731.288	-0.92
731.313	18.08
731.338	-5.92
731.363	-9.92
731.388	12.08
731.413	-1.92
731.438	22.08
731.463	11.08
731.487	-14.92
731.512	-3.92
731.537	-9.92
731.562	1.08
731.587	16.08
731.612	3.08
731.637	-5.92
731.662	-13.92
731.687	-5.92
731.712	-5.92
731.737	-6.92
731.762	-8.92
731.786	-0.92
731.811	13.08
731.836	17.08
731.861	-2.92
731.886	-8.92
731.911	1.08
731.936	2.08
731.961	-6.92
731.986	-1.92
732.01	7.08
732.035	17.08
732.06	14.08
732.085	3.08
732.11	-11.92
732.135	-6.92
732.16	15.08
732.184	12.08
732.209	-4.92
732.234	17.08
732.259	-2.92
732.284	10.08
732.309	-1.92
732.334	15.08
732.358	-6.92
732.383	-3.92
732.408	8.08
732.433	15.08
732.458	-2.92
732.482	2.08
732.507	3.08
732.532	5.08
732.557	22.08
732.582	9.08
732.607	-1.92
732.631	-18.92
732.656	7.08
732.681	1.08
732.706	2.08
732.73	-14.92
732.755	0.08
732.78	-13.92
732.805	5.08
732.83	-2.92
732.854	-2.92
732.879	27.08
732.904	-4.92
732.929	-4.92
732.953	7.08
732.978	-1.92
733.003	-8.92
733.028	4.08
733.052	2.08
733.077	18.08
733.102	17.08
733.127	15.08
733.151	3.08
733.176	19.08
733.201	0.08
733.226	-15.92
733.25	-6.92
733.275	10.08
733.3	5.08
733.324	14.08
733.349	7.08
733.374	25.08
733.399	1.08
733.423	-1.92
733.448	2.08
733.473	11.08
733.497	-0.92
733.522	-5.92
733.547	10.08
733.571	20.08
733.596	13.08
733.621	21.08
733.646	-5.92
733.67	13.08
733.695	-9.92
733.72	3.08
733.744	1.08
733.769	8.08
733.794	21.08
733.818	-2.92
733.843	3.08
733.867	-14.92
733.892	3.08
733.917	6.08
733.941	-1.92
733.966	-16.92
733.991	3.08
734.015	19.08
734.04	9.08
734.065	12.08
734.089	3.08
734.114	-5.92
734.138	1.08
734.163	-5.92
734.188	13.08
734.212	22.08
734.237	11.08
734.261	-4.92
734.286	-4.92
734.311	-12.92
734.335	2.08
734.36	-14.92
734.384	5.08
734.409	5.08
734.434	-3.92
734.458	-2.92
734.483	6.08
734.507	6.08
734.532	2.08
734.556	10.08
734.581	-4.92
734.606	-14.92
734.63	-1.92
734.655	0.08
734.679	4.08
734.704	7.08
734.728	-2.92
734.753	13.08
734.777	2.08
734.802	4.08
734.826	13.08
734.851	-4.92
734.876	4.08
734.9	11.08
734.925	27.08
734.949	3.08
734.974	-3.92
734.998	1.08
735.023	5.08
735.047	-0.92
735.072	9.08
735.096	2.08
735.121	2.08
735.145	2.08
735.17	-0.92
735.194	2.08
735.219	-6.92
735.243	22.08
735.268	1.08
735.292	2.08
735.317	10.08
735.341	4.08
735.365	-18.92
735.39	5.08
735.414	-6.92
735.439	2.08
735.463	-2.92
735.488	2.08
735.512	1.08
735.537	7.08
735.561	-2.92
735.586	18.08
735.61	1.08
735.634	-11.92
735.659	-6.92
735.683	23.08
735.708	-7.92
735.732	4.08
735.757	-2.92
735.781	-2.92
735.805	5.08
735.83	-6.92
735.854	-6.92
735.879	-4.92
735.903	11.08
735.927	-0.92
735.952	11.08
735.976	-2.92
736.001	-13.92
736.025	-1.92
736.049	-1.92
736.074	5.08
736.098	-4.92
736.123	-6.92
736.147	-12.92
736.171	3.08
736.196	1.08
736.22	-4.92
736.244	-2.92
736.269	2.08
736.293	4.08
736.317	5.08
736.342	6.08
736.366	5.08
736.39	26.08
736.415	7.08
736.439	-3.92
736.463	9.08
736.488	1.08
736.512	-6.92
736.536	11.08
736.561	31.08
736.585	0.08
736.609	5.08
736.634	-10.92
736.658	-24.92
736.682	-20.92
736.707	-10.92
736.731	-1.92
736.755	-1.92
736.78	1.08
736.804	11.08
736.828	7.08
736.852	4.08
736.877	6.08
736.901	-4.92
736.925	-4.92
736.949	10.08
736.974	1.08
736.998	-10.92
737.022	3.08
737.047	-3.92
737.071	9.08
737.095	27.08
737.119	15.08
737.144	-0.92
737.168	4.08
737.192	-1.92
737.216	5.08
737.241	1.08
737.265	-5.92
737.289	7.08
737.313	6.08
737.337	8.08
737.362	2.08
737.386	-18.92
737.41	-3.92
737.434	-8.92
737.459	-2.92
737.483	5.08
737.507	20.08
737.531	2.08
737.555	5.08
737.58	14.08
737.604	3.08
737.628	-6.92
737.652	-1.92
737.676	-0.92
737.701	3.08
737.725	-2.92
737.749	2.08
737.773	-10.92
737.797	-5.92
737.821	-6.92
737.846	-3.92
737.87	29.08
737.894	5.08
737.918	6.08
737.942	12.08
737.966	3.08
737.99	6.08
738.015	2.08
738.039	-0.92
738.063	-8.92
738.087	16.08
738.111	-11.92
738.135	3.08
738.159	-1.92
738.184	-5.92
738.208	11.08
738.232	-2.92
738.256	11.08
738.28	1.08
738.304	10.08
738.328	-11.92
738.352	13.08
738.376	1.08
738.4	-3.92
738.425	10.08
738.449	7.08
738.473	9.08
738.497	8.08
738.521	6.08
738.545	4.08
738.569	2.08
738.593	12.08
738.617	5.08
738.641	11.08
738.665	-7.92
738.689	6.08
738.713	3.08
738.737	12.08
738.762	13.08
738.786	15.08
738.81	-6.92
738.834	11.08
738.858	3.08
738.882	-15.92
738.906	-5.92
738.93	7.08
738.954	5.08
738.978	2.08
739.002	-1.92
739.026	10.08
739.05	6.08
739.074	-1.92
739.098	13.08
739.122	11.08
739.146	8.08
739.17	-4.92
739.194	2.08
739.218	-2.92
739.242	-0.92
739.266	-2.92
739.29	8.08
739.314	1.08
739.338	3.08
739.362	-1.92
739.386	-14.92
739.41	-12.92
739.434	10.08
739.458	14.08
739.482	3.08
739.506	6.08
739.53	7.08
739.554	10.08
739.577	-5.92
739.601	19.08
739.625	-0.92
739.649	0.08
739.673	-5.92
739.697	-6.92
739.721	-2.92
739.745	15.08
739.769	16.08
739.793	9.08
739.817	4.08
739.841	4.08
739.865	1.08
739.889	-17.92
739.912	13.08
739.936	14.08
739.96	-7.92
739.984	16.08
740.008	11.08
740.032	0.08
740.056	-1.92
740.08	5.08
740.104	-17.92
740.127	2.08
740.151	8.08
740.175	19.08
740.199	13.08
740.223	39.08
740.247	-0.92
740.271	2.08
740.295	-1.92
740.318	-2.92
740.342	-11.92
740.366	7.08
740.39	13.08
740.414	-6.92
740.438	-3.92
740.461	21.08
740.485	5.08
740.509	2.08
740.533	8.08
740.557	3.08
740.581	1.08
740.604	-14.92
740.628	5.08
740.652	11.08
740.676	-2.92
740.7	11.08
740.723	-2.92
740.747	-12.92
740.771	1.08
740.795	1.08
740.819	12.08
740.842	-3.92
740.866	11.08
740.89	-11.92
740.914	-9.92
740.938	-13.92
740.961	7.08
740.985	19.08
741.009	2.08
741.033	-1.92
741.056	-0.92
741.08	7.08
741.104	4.08
741.128	7.08
741.151	15.08
741.175	13.08
741.199	5.08
741.223	11.08
741.246	-2.92
741.27	9.08
741.294	8.08
741.318	11.08
741.341	12.08
741.365	5.08
741.389	10.08
741.413	15.08
741.436	21.08
741.46	17.08
741.484	4.08
741.507	5.08
741.531	22.08
741.555	9.08
741.579	0.08
741.602	3.08
741.626	10.08
741.65	-7.92
741.673	2.08
741.697	2.08
741.721	13.08
741.744	4.08
741.768	-5.92
741.792	3.08
741.815	7.08
741.839	15.08
741.863	15.08
741.886	11.08
741.91	27.08
741.934	8.08
741.957	-23.92
741.981	6.08
742.005	10.08
742.028	2.08
742.052	-3.92
742.075	-4.92
742.099	4.08
742.123	-1.92
742.146	-6.92
742.17	10.08
742.194	-8.92
742.217	-10.92
742.241	6.08
742.264	2.08
742.288	21.08
742.312	5.08
742.335	-9.92
742.359	4.08
742.382	2.08
742.406	26.08
742.43	-2.92
742.453	6.08
742.477	-6.92
742.5	17.08
742.524	-6.92
742.548	-0.92
742.571	13.08
742.595	7.08
742.618	2.08
742.642	1.08
742.665	5.08
742.689	6.08
742.712	15.08
742.736	3.08
742.76	2.08
742.783	7.08
742.807	6.08
742.83	12.08
742.854	-2.92
742.877	-2.92
742.901	-2.92
742.924	-9.92
742.948	16.08
742.971	10.08
742.995	18.08
743.018	-13.92
743.042	-8.92
743.065	6.08
743.089	-3.92
743.112	7.08
743.136	-6.92
743.159	-2.92
743.183	-9.92
743.206	10.08
743.23	-1.92
743.253	4.08
743.277	1.08
743.3	-10.92
743.324	13.08
743.347	4.08
743.371	19.08
743.394	11.08
743.418	21.08
743.441	16.08
743.465	11.08
743.488	8.08
743.512	6.08
743.535	5.08
743.558	-5.92
743.582	-8.92
743.605	10.08
743.629	7.08
743.652	13.08
743.676	21.08
743.699	1.08
743.723	9.08
743.746	1.08
743.769	7.08
743.793	24.08
743.816	1.08
743.84	28.08
743.863	5.08
743.886	2.08
743.91	19.08
743.933	15.08
743.957	20.08
743.98	7.08
744.003	-5.92
744.027	10.08
744.05	-6.92
744.074	9.08
744.097	0.08
744.12	0.08
744.144	-5.92
744.167	14.08
744.19	7.08
744.214	8.08
744.237	0.08
744.26	19.08
744.284	12.08
744.307	-16.92
744.331	6.08
744.354	-4.92
744.377	6.08
744.401	2.08
744.424	-7.92
744.447	-9.92
744.471	-14.92
