Data from HighRes_H2_15_09_11_07_2024_HR4C61891__130__15-11-09-401.txt Node

Date: Thu Nov 07 15:11:09 EST 2024
User: crc00042
Spectrometer: HR4C6189
Trigger mode: 4
Integration Time (sec): 1.000000E-1
Scans to average: 1
Electric dark correction enabled: true
Nonlinearity correction enabled: false
Boxcar width: 0
XAxis mode: Wavelengths
Number of Pixels in Spectrum: 3648
>>>>>Begin Spectral Data<<<<<
639.567	-54.08
639.602	-54.08
639.636	-54.08
639.67	-37.08
639.704	-21.08
639.738	-7.08
639.773	2.92
639.807	-19.08
639.841	-1.08
639.875	-4.08
639.909	1.92
639.943	3.92
639.978	-0.08
640.012	1.92
640.046	12.92
640.08	7.92
640.114	3.92
640.148	-4.08
640.182	-12.08
640.217	-7.08
640.251	2.92
640.285	22.92
640.319	-18.08
640.353	-3.08
640.387	-21.08
640.421	5.92
640.455	-3.08
640.49	-5.08
640.524	10.92
640.558	6.92
640.592	-10.08
640.626	2.92
640.66	5.92
640.694	-5.08
640.728	-8.08
640.762	-5.08
640.796	12.92
640.83	9.92
640.865	1.92
640.899	2.92
640.933	-8.08
640.967	-11.08
641.001	-4.08
641.035	-6.08
641.069	-2.08
641.103	-9.08
641.137	-2.08
641.171	-9.08
641.205	7.92
641.239	-2.08
641.273	-4.08
641.307	9.92
641.341	-1.08
641.375	-9.08
641.409	-12.08
641.443	-6.08
641.477	5.92
641.511	7.92
641.545	3.92
641.579	-5.08
641.614	-5.08
641.648	-8.08
641.682	-16.08
641.716	8.92
641.75	26.92
641.784	-6.08
641.818	3.92
641.852	11.92
641.886	2.92
641.919	21.92
641.953	5.92
641.987	-14.08
642.021	-13.08
642.055	-5.08
642.089	2.92
642.123	-4.08
642.157	-10.08
642.191	-15.08
642.225	8.92
642.259	-14.08
642.293	3.92
642.327	-0.08
642.361	-0.08
642.395	-0.08
642.429	20.92
642.463	7.92
642.497	21.92
642.531	4.92
642.565	2.92
642.599	10.92
642.633	-18.08
642.666	2.92
642.7	5.92
642.734	26.92
642.768	-2.08
642.802	-3.08
642.836	7.92
642.87	-2.08
642.904	-3.08
642.938	3.92
642.972	-9.08
643.005	-2.08
643.039	14.92
643.073	3.92
643.107	-0.08
643.141	-11.08
643.175	-7.08
643.209	5.92
643.243	9.92
643.276	-5.08
643.31	-0.08
643.344	0.92
643.378	8.92
643.412	15.92
643.446	4.92
643.48	-13.08
643.513	1.92
643.547	-10.08
643.581	-1.08
643.615	12.92
643.649	0.92
643.683	6.92
643.716	-3.08
643.75	-1.08
643.784	-18.08
643.818	10.92
643.852	-15.08
643.886	-13.08
643.919	7.92
643.953	-6.08
643.987	4.92
644.021	9.92
644.055	3.92
644.088	-14.08
644.122	-4.08
644.156	-11.08
644.19	-5.08
644.224	-6.08
644.257	-1.08
644.291	5.92
644.325	5.92
644.359	2.92
644.392	19.92
644.426	15.92
644.46	-4.08
644.494	0.92
644.527	6.92
644.561	2.92
644.595	11.92
644.629	4.92
644.662	-16.08
644.696	2.92
644.73	-0.08
644.764	9.92
644.797	-13.08
644.831	-3.08
644.865	15.92
644.899	-8.08
644.932	25.92
644.966	7.92
645	-13.08
645.033	13.92
645.067	-6.08
645.101	3.92
645.135	1.92
645.168	-4.08
645.202	-9.08
645.236	1.92
645.269	19.92
645.303	3.92
645.337	-21.08
645.37	-9.08
645.404	-3.08
645.438	7.92
645.471	5.92
645.505	7.92
645.539	-1.08
645.572	-20.08
645.606	-12.08
645.64	-2.08
645.673	9.92
645.707	22.92
645.741	0.92
645.774	-5.08
645.808	3.92
645.842	-1.08
645.875	3.92
645.909	-9.08
645.943	-22.08
645.976	-1.08
646.01	-4.08
646.043	12.92
646.077	22.92
646.111	3.92
646.144	20.92
646.178	9.92
646.212	-27.08
646.245	5.92
646.279	7.92
646.312	-0.08
646.346	4.92
646.38	-3.08
646.413	-4.08
646.447	-3.08
646.48	-1.08
646.514	15.92
646.547	-13.08
646.581	-6.08
646.615	-6.08
646.648	-1.08
646.682	8.92
646.715	11.92
646.749	14.92
646.782	-12.08
646.816	0.92
646.85	2.92
646.883	-15.08
646.917	-18.08
646.95	-21.08
646.984	8.92
647.017	-3.08
647.051	14.92
647.084	-0.08
647.118	-19.08
647.151	-6.08
647.185	4.92
647.218	1.92
647.252	-2.08
647.285	-8.08
647.319	-6.08
647.353	5.92
647.386	24.92
647.42	-7.08
647.453	6.92
647.487	6.92
647.52	13.92
647.553	6.92
647.587	-3.08
647.62	0.92
647.654	0.92
647.687	6.92
647.721	12.92
647.754	11.92
647.788	-4.08
647.821	4.92
647.855	1.92
647.888	12.92
647.922	20.92
647.955	4.92
647.989	6.92
648.022	4.92
648.055	5.92
648.089	-6.08
648.122	28.92
648.156	3.92
648.189	-4.08
648.223	-1.08
648.256	4.92
648.29	6.92
648.323	-9.08
648.356	2.92
648.39	5.92
648.423	11.92
648.457	5.92
648.49	1.92
648.523	11.92
648.557	-16.08
648.59	6.92
648.624	16.92
648.657	7.92
648.69	12.92
648.724	-3.08
648.757	10.92
648.791	10.92
648.824	6.92
648.857	7.92
648.891	6.92
648.924	-4.08
648.957	27.92
648.991	-15.08
649.024	5.92
649.057	12.92
649.091	2.92
649.124	-1.08
649.158	12.92
649.191	19.92
649.224	0.92
649.258	7.92
649.291	9.92
649.324	-1.08
649.358	-2.08
649.391	6.92
649.424	5.92
649.458	-0.08
649.491	-2.08
649.524	-5.08
649.557	-23.08
649.591	-0.08
649.624	17.92
649.657	0.92
649.691	18.92
649.724	9.92
649.757	-16.08
649.791	-21.08
649.824	17.92
649.857	7.92
649.89	4.92
649.924	-16.08
649.957	-3.08
649.99	-8.08
650.023	-5.08
650.057	-0.08
650.09	13.92
650.123	4.92
650.157	23.92
650.19	15.92
650.223	0.92
650.256	-13.08
650.29	11.92
650.323	13.92
650.356	10.92
650.389	-5.08
650.423	6.92
650.456	0.92
650.489	1.92
650.522	-2.08
650.555	8.92
650.589	5.92
650.622	-6.08
650.655	6.92
650.688	8.92
650.721	-4.08
650.755	-1.08
650.788	12.92
650.821	9.92
650.854	-13.08
650.887	7.92
650.921	-5.08
650.954	-4.08
650.987	3.92
651.02	-4.08
651.053	-4.08
651.087	-10.08
651.12	29.92
651.153	9.92
651.186	-0.08
651.219	-9.08
651.252	11.92
651.286	5.92
651.319	-1.08
651.352	1.92
651.385	12.92
651.418	-6.08
651.451	20.92
651.484	1.92
651.518	-25.08
651.551	12.92
651.584	2.92
651.617	24.92
651.65	0.92
651.683	22.92
651.716	-1.08
651.749	0.92
651.783	-7.08
651.816	7.92
651.849	4.92
651.882	3.92
651.915	-3.08
651.948	6.92
651.981	-7.08
652.014	-19.08
652.047	6.92
652.08	-6.08
652.114	3.92
652.147	-7.08
652.18	10.92
652.213	13.92
652.246	-7.08
652.279	-14.08
652.312	4.92
652.345	4.92
652.378	10.92
652.411	26.92
652.444	7.92
652.477	4.92
652.51	-7.08
652.543	-7.08
652.576	1.92
652.609	-3.08
652.642	6.92
652.675	0.92
652.709	5.92
652.742	12.92
652.775	3.92
652.808	17.92
652.841	12.92
652.874	2.92
652.907	2.92
652.94	-1.08
652.973	-19.08
653.006	2.92
653.039	-3.08
653.072	9.92
653.105	1.92
653.138	-11.08
653.171	-1.08
653.204	6.92
653.237	5.92
653.27	-8.08
653.303	11.92
653.336	3.92
653.368	1.92
653.401	20.92
653.434	-12.08
653.467	10.92
653.5	-8.08
653.533	-13.08
653.566	7.92
653.599	4.92
653.632	13.92
653.665	19.92
653.698	4.92
653.731	-16.08
653.764	8.92
653.797	4.92
653.83	10.92
653.863	32.92
653.896	12.92
653.929	12.92
653.961	12.92
653.994	12.92
654.027	-13.08
654.06	-1.08
654.093	0.92
654.126	8.92
654.159	-4.08
654.192	0.92
654.225	-11.08
654.258	-3.08
654.29	-3.08
654.323	9.92
654.356	-3.08
654.389	-11.08
654.422	-3.08
654.455	-0.08
654.488	1.92
654.521	-24.08
654.553	0.92
654.586	14.92
654.619	6.92
654.652	10.92
654.685	3.92
654.718	24.92
654.751	17.92
654.783	17.92
654.816	17.92
654.849	-7.08
654.882	-16.08
654.915	5.92
654.948	-0.08
654.98	-1.08
655.013	-3.08
655.046	-11.08
655.079	-9.08
655.112	4.92
655.144	-5.08
655.177	22.92
655.21	22.92
655.243	31.92
655.276	4.92
655.308	5.92
655.341	-12.08
655.374	15.92
655.407	8.92
655.44	-2.08
655.472	19.92
655.505	8.92
655.538	1.92
655.571	23.92
655.603	2.92
655.636	15.92
655.669	23.92
655.702	18.92
655.734	19.92
655.767	11.92
655.8	7.92
655.833	25.92
655.865	27.92
655.898	29.92
655.931	42.92
655.964	44.92
655.996	39.92
656.029	53.92
656.062	51.92
656.095	72.92
656.127	73.92
656.16	107.92
656.193	127.92
656.225	167.92
656.258	272.92
656.291	497.92
656.324	1108.92
656.356	3356.92
656.389	7484.92
656.422	5944.92
656.454	2064.92
656.487	687.92
656.52	254.92
656.552	124.92
656.585	81.92
656.618	54.92
656.65	35.92
656.683	22.92
656.716	13.92
656.748	20.92
656.781	-8.08
656.814	13.92
656.846	2.92
656.879	8.92
656.912	16.92
656.944	-15.08
656.977	-4.08
657.01	-9.08
657.042	9.92
657.075	11.92
657.108	-5.08
657.14	-1.08
657.173	15.92
657.205	27.92
657.238	8.92
657.271	-0.08
657.303	-2.08
657.336	8.92
657.369	14.92
657.401	-10.08
657.434	12.92
657.466	5.92
657.499	7.92
657.532	13.92
657.564	13.92
657.597	8.92
657.629	4.92
657.662	7.92
657.694	5.92
657.727	-0.08
657.76	15.92
657.792	5.92
657.825	-3.08
657.857	4.92
657.89	9.92
657.922	21.92
657.955	-9.08
657.987	-16.08
658.02	6.92
658.053	5.92
658.085	1.92
658.118	8.92
658.15	5.92
658.183	18.92
658.215	4.92
658.248	3.92
658.28	-0.08
658.313	12.92
658.345	19.92
658.378	2.92
658.41	-5.08
658.443	16.92
658.475	-2.08
658.508	-6.08
658.54	-1.08
658.573	-1.08
658.605	7.92
658.638	1.92
658.67	5.92
658.703	8.92
658.735	-11.08
658.768	3.92
658.8	-11.08
658.833	27.92
658.865	-0.08
658.898	-27.08
658.93	-23.08
658.963	1.92
658.995	3.92
659.028	-0.08
659.06	-3.08
659.092	2.92
659.125	0.92
659.157	4.92
659.19	-1.08
659.222	-6.08
659.255	-1.08
659.287	-9.08
659.32	2.92
659.352	1.92
659.384	1.92
659.417	-5.08
659.449	21.92
659.482	13.92
659.514	-15.08
659.546	6.92
659.579	-3.08
659.611	7.92
659.644	-2.08
659.676	-12.08
659.708	-14.08
659.741	-5.08
659.773	-2.08
659.806	-4.08
659.838	-1.08
659.87	-4.08
659.903	-28.08
659.935	-7.08
659.967	5.92
660	3.92
660.032	-2.08
660.065	19.92
660.097	15.92
660.129	0.92
660.162	-7.08
660.194	3.92
660.226	-1.08
660.259	9.92
660.291	3.92
660.323	-12.08
660.356	3.92
660.388	-5.08
660.42	-1.08
660.453	5.92
660.485	10.92
660.517	18.92
660.55	13.92
660.582	-4.08
660.614	0.92
660.647	-6.08
660.679	-13.08
660.711	6.92
660.743	-1.08
660.776	-4.08
660.808	2.92
660.84	-0.08
660.873	-0.08
660.905	-13.08
660.937	-13.08
660.969	-11.08
661.002	-2.08
661.034	-0.08
661.066	3.92
661.099	-2.08
661.131	-3.08
661.163	-13.08
661.195	1.92
661.228	17.92
661.26	3.92
661.292	-3.08
661.324	-7.08
661.357	-0.08
661.389	5.92
661.421	-0.08
661.453	-15.08
661.485	2.92
661.518	4.92
661.55	-5.08
661.582	-15.08
661.614	-8.08
661.647	-3.08
661.679	9.92
661.711	7.92
661.743	-14.08
661.775	5.92
661.808	17.92
661.84	-15.08
661.872	-3.08
661.904	-4.08
661.936	5.92
661.969	-10.08
662.001	-14.08
662.033	-3.08
662.065	-9.08
662.097	6.92
662.129	8.92
662.162	-11.08
662.194	11.92
662.226	-10.08
662.258	4.92
662.29	-0.08
662.322	-11.08
662.355	-10.08
662.387	22.92
662.419	6.92
662.451	16.92
662.483	15.92
662.515	4.92
662.547	-0.08
662.58	-5.08
662.612	-2.08
662.644	-24.08
662.676	1.92
662.708	17.92
662.74	4.92
662.772	1.92
662.804	25.92
662.836	16.92
662.869	0.92
662.901	-6.08
662.933	5.92
662.965	12.92
662.997	8.92
663.029	-18.08
663.061	-4.08
663.093	5.92
663.125	2.92
663.157	2.92
663.189	-1.08
663.221	-0.08
663.254	2.92
663.286	1.92
663.318	-7.08
663.35	4.92
663.382	6.92
663.414	10.92
663.446	-13.08
663.478	-13.08
663.51	21.92
663.542	-7.08
663.574	-8.08
663.606	16.92
663.638	-7.08
663.67	-11.08
663.702	4.92
663.734	11.92
663.766	8.92
663.798	-4.08
663.83	27.92
663.862	0.92
663.894	3.92
663.926	-7.08
663.958	11.92
663.99	3.92
664.022	-15.08
664.054	-7.08
664.086	3.92
664.118	-7.08
664.15	-3.08
664.182	-2.08
664.214	-6.08
664.246	11.92
664.278	5.92
664.31	6.92
664.342	7.92
664.374	9.92
664.406	9.92
664.438	-9.08
664.47	-0.08
664.502	-17.08
664.534	-5.08
664.566	-10.08
664.598	-0.08
664.63	-1.08
664.662	1.92
664.693	-8.08
664.725	-1.08
664.757	-7.08
664.789	-14.08
664.821	9.92
664.853	-8.08
664.885	-6.08
664.917	-0.08
664.949	8.92
664.981	12.92
665.013	2.92
665.045	0.92
665.076	-2.08
665.108	5.92
665.14	17.92
665.172	10.92
665.204	0.92
665.236	-0.08
665.268	19.92
665.3	-16.08
665.331	-10.08
665.363	20.92
665.395	-10.08
665.427	2.92
665.459	4.92
665.491	-3.08
665.523	14.92
665.555	9.92
665.586	3.92
665.618	2.92
665.65	-16.08
665.682	2.92
665.714	-9.08
665.746	-4.08
665.777	-0.08
665.809	-0.08
665.841	4.92
665.873	-15.08
665.905	4.92
665.937	19.92
665.968	1.92
666	3.92
666.032	11.92
666.064	-10.08
666.096	-7.08
666.127	2.92
666.159	16.92
666.191	8.92
666.223	-3.08
666.255	2.92
666.286	7.92
666.318	7.92
666.35	6.92
666.382	-15.08
666.413	-9.08
666.445	-22.08
666.477	-9.08
666.509	-7.08
666.54	12.92
666.572	-13.08
666.604	-5.08
666.636	-6.08
666.667	20.92
666.699	32.92
666.731	1.92
666.763	-0.08
666.794	3.92
666.826	11.92
666.858	-7.08
666.89	12.92
666.921	-7.08
666.953	12.92
666.985	5.92
667.017	29.92
667.048	3.92
667.08	1.92
667.112	0.92
667.143	-24.08
667.175	14.92
667.207	-7.08
667.238	-1.08
667.27	-9.08
667.302	-0.08
667.334	-7.08
667.365	11.92
667.397	-10.08
667.429	-4.08
667.46	-0.08
667.492	2.92
667.524	1.92
667.555	-13.08
667.587	0.92
667.619	8.92
667.65	-11.08
667.682	19.92
667.714	13.92
667.745	4.92
667.777	9.92
667.808	-1.08
667.84	0.92
667.872	-1.08
667.903	12.92
667.935	-4.08
667.967	16.92
667.998	5.92
668.03	1.92
668.061	-1.08
668.093	-14.08
668.125	13.92
668.156	15.92
668.188	2.92
668.22	-13.08
668.251	5.92
668.283	10.92
668.314	21.92
668.346	-0.08
668.377	16.92
668.409	-11.08
668.441	7.92
668.472	5.92
668.504	1.92
668.535	-6.08
668.567	0.92
668.599	0.92
668.63	4.92
668.662	-8.08
668.693	25.92
668.725	20.92
668.756	5.92
668.788	-11.08
668.819	0.92
668.851	-8.08
668.882	-5.08
668.914	11.92
668.946	9.92
668.977	-19.08
669.009	5.92
669.04	-12.08
669.072	-12.08
669.103	1.92
669.135	-11.08
669.166	-3.08
669.198	-5.08
669.229	14.92
669.261	-13.08
669.292	-16.08
669.324	7.92
669.355	20.92
669.387	-8.08
669.418	6.92
669.45	-11.08
669.481	2.92
669.513	4.92
669.544	9.92
669.576	-3.08
669.607	10.92
669.639	11.92
669.67	4.92
669.701	14.92
669.733	-14.08
669.764	0.92
669.796	-2.08
669.827	-1.08
669.859	-0.08
669.89	2.92
669.922	2.92
669.953	18.92
669.985	3.92
670.016	14.92
670.047	15.92
670.079	1.92
670.11	4.92
670.142	13.92
670.173	-3.08
670.204	1.92
670.236	-8.08
670.267	-3.08
670.299	-6.08
670.33	-2.08
670.362	2.92
670.393	-21.08
670.424	4.92
670.456	0.92
670.487	2.92
670.518	5.92
670.55	10.92
670.581	-3.08
670.613	4.92
670.644	-4.08
670.675	-23.08
670.707	-7.08
670.738	11.92
670.769	0.92
670.801	-12.08
670.832	13.92
670.864	-15.08
670.895	6.92
670.926	-1.08
670.958	-18.08
670.989	9.92
671.02	-0.08
671.052	0.92
671.083	16.92
671.114	-0.08
671.146	6.92
671.177	9.92
671.208	-27.08
671.24	-13.08
671.271	-4.08
671.302	-1.08
671.333	5.92
671.365	-15.08
671.396	-12.08
671.427	15.92
671.459	3.92
671.49	4.92
671.521	7.92
671.553	-1.08
671.584	3.92
671.615	-22.08
671.646	-0.08
671.678	19.92
671.709	-4.08
671.74	-14.08
671.771	3.92
671.803	0.92
671.834	-7.08
671.865	-1.08
671.896	-2.08
671.928	6.92
671.959	1.92
671.99	8.92
672.021	-5.08
672.053	-8.08
672.084	-2.08
672.115	0.92
672.146	0.92
672.178	-20.08
672.209	-8.08
672.24	-1.08
672.271	10.92
672.303	20.92
672.334	2.92
672.365	0.92
672.396	15.92
672.427	9.92
672.459	7.92
672.49	12.92
672.521	5.92
672.552	19.92
672.583	-1.08
672.615	-9.08
672.646	16.92
672.677	-2.08
672.708	-9.08
672.739	-12.08
672.77	2.92
672.802	0.92
672.833	-1.08
672.864	-11.08
672.895	-10.08
672.926	0.92
672.957	2.92
672.989	2.92
673.02	0.92
673.051	-0.08
673.082	2.92
673.113	12.92
673.144	6.92
673.175	10.92
673.206	-5.08
673.238	-2.08
673.269	1.92
673.3	-0.08
673.331	18.92
673.362	-3.08
673.393	-11.08
673.424	1.92
673.455	5.92
673.487	-10.08
673.518	-3.08
673.549	-5.08
673.58	2.92
673.611	-7.08
673.642	0.92
673.673	-22.08
673.704	-0.08
673.735	-3.08
673.766	-2.08
673.797	-4.08
673.828	-7.08
673.86	-15.08
673.891	0.92
673.922	-12.08
673.953	-4.08
673.984	22.92
674.015	22.92
674.046	7.92
674.077	0.92
674.108	-8.08
674.139	-1.08
674.17	3.92
674.201	-15.08
674.232	-4.08
674.263	-6.08
674.294	-13.08
674.325	-27.08
674.356	7.92
674.387	8.92
674.418	6.92
674.449	-8.08
674.48	7.92
674.511	-11.08
674.542	7.92
674.573	-20.08
674.604	23.92
674.635	8.92
674.666	14.92
674.697	-9.08
674.728	-3.08
674.759	-8.08
674.79	-27.08
674.821	-20.08
674.852	15.92
674.883	-8.08
674.914	-4.08
674.945	7.92
674.976	8.92
675.007	0.92
675.038	2.92
675.069	1.92
675.1	3.92
675.131	-8.08
675.162	-5.08
675.193	-12.08
675.224	-16.08
675.254	3.92
675.285	11.92
675.316	10.92
675.347	2.92
675.378	-22.08
675.409	-11.08
675.44	-2.08
675.471	-5.08
675.502	3.92
675.533	3.92
675.564	-0.08
675.595	-8.08
675.625	1.92
675.656	-0.08
675.687	0.92
675.718	4.92
675.749	8.92
675.78	8.92
675.811	-9.08
675.842	6.92
675.873	3.92
675.903	-12.08
675.934	-0.08
675.965	-22.08
675.996	-12.08
676.027	8.92
676.058	-4.08
676.089	-13.08
676.119	-8.08
676.15	-3.08
676.181	-0.08
676.212	6.92
676.243	8.92
676.274	-10.08
676.304	23.92
676.335	2.92
676.366	19.92
676.397	-0.08
676.428	1.92
676.459	-1.08
676.489	20.92
676.52	4.92
676.551	-3.08
676.582	-7.08
676.613	2.92
676.643	-6.08
676.674	-2.08
676.705	-11.08
676.736	-7.08
676.767	5.92
676.797	11.92
676.828	1.92
676.859	15.92
676.89	1.92
676.92	3.92
676.951	2.92
676.982	2.92
677.013	-5.08
677.044	15.92
677.074	5.92
677.105	-19.08
677.136	4.92
677.167	11.92
677.197	8.92
677.228	-4.08
677.259	-0.08
677.289	4.92
677.32	-6.08
677.351	-1.08
677.382	5.92
677.412	4.92
677.443	7.92
677.474	-5.08
677.505	-12.08
677.535	18.92
677.566	-2.08
677.597	-16.08
677.627	-14.08
677.658	-0.08
677.689	-12.08
677.72	1.92
677.75	3.92
677.781	-8.08
677.812	-7.08
677.842	7.92
677.873	-2.08
677.904	1.92
677.934	-12.08
677.965	-10.08
677.996	-8.08
678.026	-1.08
678.057	2.92
678.088	0.92
678.118	-3.08
678.149	-10.08
678.18	-12.08
678.21	-10.08
678.241	-0.08
678.272	-5.08
678.302	6.92
678.333	5.92
678.363	1.92
678.394	-9.08
678.425	0.92
678.455	14.92
678.486	-5.08
678.517	0.92
678.547	0.92
678.578	2.92
678.608	-11.08
678.639	1.92
678.67	5.92
678.7	-6.08
678.731	8.92
678.761	-3.08
678.792	10.92
678.823	13.92
678.853	4.92
678.884	-8.08
678.914	-2.08
678.945	4.92
678.975	-6.08
679.006	-8.08
679.037	-7.08
679.067	27.92
679.098	9.92
679.128	-5.08
679.159	7.92
679.189	18.92
679.22	6.92
679.25	12.92
679.281	-4.08
679.312	-6.08
679.342	10.92
679.373	39.92
679.403	8.92
679.434	10.92
679.464	7.92
679.495	9.92
679.525	11.92
679.556	-0.08
679.586	14.92
679.617	6.92
679.647	5.92
679.678	-6.08
679.708	-1.08
679.739	9.92
679.769	9.92
679.8	-11.08
679.83	-1.08
679.861	11.92
679.891	-3.08
679.922	-12.08
679.952	-0.08
679.983	1.92
680.013	3.92
680.044	-5.08
680.074	12.92
680.105	9.92
680.135	5.92
680.165	18.92
680.196	-6.08
680.226	7.92
680.257	12.92
680.287	4.92
680.318	-3.08
680.348	-23.08
680.379	-14.08
680.409	3.92
680.439	-4.08
680.47	-4.08
680.5	-5.08
680.531	3.92
680.561	7.92
680.592	2.92
680.622	14.92
680.652	3.92
680.683	6.92
680.713	-0.08
680.744	2.92
680.774	1.92
680.804	26.92
680.835	0.92
680.865	-7.08
680.896	15.92
680.926	7.92
680.956	-3.08
680.987	-7.08
681.017	-2.08
681.047	-2.08
681.078	0.92
681.108	-8.08
681.139	-10.08
681.169	-5.08
681.199	3.92
681.23	-0.08
681.26	-7.08
681.29	1.92
681.321	-9.08
681.351	13.92
681.381	-26.08
681.412	-7.08
681.442	-2.08
681.472	20.92
681.503	3.92
681.533	-1.08
681.563	0.92
681.594	-11.08
681.624	9.92
681.654	-9.08
681.685	-2.08
681.715	6.92
681.745	-8.08
681.775	-5.08
681.806	-5.08
681.836	0.92
681.866	-8.08
681.897	1.92
681.927	-17.08
681.957	-11.08
681.987	3.92
682.018	-21.08
682.048	0.92
682.078	5.92
682.109	15.92
682.139	4.92
682.169	9.92
682.199	-9.08
682.23	-8.08
682.26	-13.08
682.29	6.92
682.32	3.92
682.351	8.92
682.381	-1.08
682.411	-8.08
682.441	-7.08
682.472	-8.08
682.502	-8.08
682.532	-18.08
682.562	6.92
682.592	-0.08
682.623	0.92
682.653	4.92
682.683	-17.08
682.713	0.92
682.743	-7.08
682.774	-4.08
682.804	8.92
682.834	10.92
682.864	2.92
682.894	15.92
682.925	-5.08
682.955	5.92
682.985	-3.08
683.015	1.92
683.045	5.92
683.076	-6.08
683.106	-0.08
683.136	-7.08
683.166	-5.08
683.196	-9.08
683.226	3.92
683.257	4.92
683.287	-5.08
683.317	-9.08
683.347	-7.08
683.377	-17.08
683.407	-6.08
683.437	5.92
683.468	19.92
683.498	-9.08
683.528	-13.08
683.558	1.92
683.588	-19.08
683.618	-14.08
683.648	0.92
683.678	-25.08
683.708	-10.08
683.739	-3.08
683.769	-0.08
683.799	-11.08
683.829	6.92
683.859	-6.08
683.889	22.92
683.919	1.92
683.949	-6.08
683.979	-0.08
684.009	-0.08
684.039	-0.08
684.07	-9.08
684.1	28.92
684.13	8.92
684.16	1.92
684.19	-11.08
684.22	-5.08
684.25	7.92
684.28	-6.08
684.31	14.92
684.34	10.92
684.37	7.92
684.4	1.92
684.43	3.92
684.46	-8.08
684.49	2.92
684.52	-0.08
684.55	14.92
684.58	-3.08
684.61	-4.08
684.64	4.92
684.67	3.92
684.7	-17.08
684.73	1.92
684.76	-12.08
684.79	-3.08
684.82	-4.08
684.85	-9.08
684.88	5.92
684.91	-8.08
684.94	-2.08
684.97	-6.08
685	-21.08
685.03	-12.08
685.06	-9.08
685.09	2.92
685.12	33.92
685.15	-1.08
685.18	16.92
685.21	3.92
685.24	0.92
685.27	12.92
685.3	11.92
685.33	8.92
685.36	-2.08
685.39	-1.08
685.42	-19.08
685.45	3.92
685.48	-12.08
685.51	-16.08
685.54	3.92
685.569	16.92
685.599	7.92
685.629	-2.08
685.659	1.92
685.689	-13.08
685.719	-0.08
685.749	-7.08
685.779	-11.08
685.809	-17.08
685.839	3.92
685.869	0.92
685.898	1.92
685.928	13.92
685.958	-3.08
685.988	3.92
686.018	-10.08
686.048	8.92
686.078	3.92
686.108	15.92
686.137	-7.08
686.167	12.92
686.197	-8.08
686.227	-0.08
686.257	11.92
686.287	13.92
686.317	7.92
686.346	-4.08
686.376	-1.08
686.406	-4.08
686.436	7.92
686.466	-11.08
686.496	-15.08
686.525	15.92
686.555	-1.08
686.585	19.92
686.615	27.92
686.645	9.92
686.675	9.92
686.704	-10.08
686.734	-4.08
686.764	-12.08
686.794	6.92
686.824	-3.08
686.853	9.92
686.883	4.92
686.913	8.92
686.943	4.92
686.973	-1.08
687.002	-0.08
687.032	14.92
687.062	-1.08
687.092	13.92
687.121	-8.08
687.151	9.92
687.181	12.92
687.211	16.92
687.24	6.92
687.27	5.92
687.3	8.92
687.33	4.92
687.359	-11.08
687.389	2.92
687.419	-12.08
687.449	3.92
687.478	0.92
687.508	2.92
687.538	0.92
687.568	2.92
687.597	-11.08
687.627	-14.08
687.657	-1.08
687.686	-10.08
687.716	-1.08
687.746	-10.08
687.776	-1.08
687.805	5.92
687.835	-6.08
687.865	18.92
687.894	0.92
687.924	-10.08
687.954	0.92
687.983	-8.08
688.013	-0.08
688.043	-4.08
688.072	-1.08
688.102	18.92
688.132	-9.08
688.161	-0.08
688.191	-1.08
688.221	15.92
688.25	-17.08
688.28	-7.08
688.31	-9.08
688.339	-4.08
688.369	-19.08
688.399	-7.08
688.428	-4.08
688.458	-11.08
688.488	-11.08
688.517	14.92
688.547	-5.08
688.576	3.92
688.606	5.92
688.636	-8.08
688.665	-2.08
688.695	-4.08
688.725	17.92
688.754	11.92
688.784	4.92
688.813	10.92
688.843	6.92
688.873	-4.08
688.902	-6.08
688.932	4.92
688.961	-16.08
688.991	8.92
689.02	13.92
689.05	1.92
689.08	22.92
689.109	17.92
689.139	0.92
689.168	1.92
689.198	12.92
689.227	3.92
689.257	8.92
689.287	13.92
689.316	-7.08
689.346	-4.08
689.375	-10.08
689.405	2.92
689.434	-17.08
689.464	3.92
689.493	2.92
689.523	2.92
689.552	-17.08
689.582	3.92
689.611	-8.08
689.641	-1.08
689.67	-8.08
689.7	3.92
689.73	20.92
689.759	7.92
689.789	20.92
689.818	-2.08
689.848	-2.08
689.877	8.92
689.906	4.92
689.936	-10.08
689.965	-2.08
689.995	-5.08
690.024	8.92
690.054	4.92
690.083	3.92
690.113	-8.08
690.142	-13.08
690.172	5.92
690.201	-6.08
690.231	-11.08
690.26	10.92
690.29	11.92
690.319	14.92
690.348	11.92
690.378	-6.08
690.407	4.92
690.437	-5.08
690.466	-5.08
690.496	-0.08
690.525	0.92
690.555	0.92
690.584	10.92
690.613	-0.08
690.643	1.92
690.672	-4.08
690.702	19.92
690.731	-17.08
690.76	9.92
690.79	-13.08
690.819	4.92
690.849	2.92
690.878	2.92
690.907	-2.08
690.937	26.92
690.966	7.92
690.996	-7.08
691.025	0.92
691.054	-0.08
691.084	8.92
691.113	-1.08
691.142	6.92
691.172	0.92
691.201	12.92
691.23	-4.08
691.26	13.92
691.289	11.92
691.319	5.92
691.348	-13.08
691.377	9.92
691.407	-1.08
691.436	-5.08
691.465	10.92
691.495	-15.08
691.524	-15.08
691.553	-16.08
691.583	-11.08
691.612	5.92
691.641	-11.08
691.67	-16.08
691.7	-2.08
691.729	-16.08
691.758	1.92
691.788	1.92
691.817	-0.08
691.846	-4.08
691.876	-15.08
691.905	3.92
691.934	-0.08
691.963	1.92
691.993	6.92
692.022	-8.08
692.051	-19.08
692.081	14.92
692.11	23.92
692.139	1.92
692.168	5.92
692.198	23.92
692.227	-12.08
692.256	10.92
692.285	2.92
692.315	7.92
692.344	5.92
692.373	5.92
692.402	-15.08
692.432	-16.08
692.461	-7.08
692.49	-1.08
692.519	-7.08
692.548	9.92
692.578	12.92
692.607	7.92
692.636	0.92
692.665	7.92
692.694	-1.08
692.724	-0.08
692.753	2.92
692.782	0.92
692.811	-10.08
692.84	-16.08
692.87	4.92
692.899	-0.08
692.928	2.92
692.957	4.92
692.986	2.92
693.016	9.92
693.045	18.92
693.074	7.92
693.103	-4.08
693.132	4.92
693.161	17.92
693.191	-3.08
693.22	-4.08
693.249	-16.08
693.278	-6.08
693.307	9.92
693.336	-3.08
693.365	-12.08
693.395	-4.08
693.424	7.92
693.453	23.92
693.482	3.92
693.511	1.92
693.54	-0.08
693.569	8.92
693.598	8.92
693.628	3.92
693.657	1.92
693.686	12.92
693.715	21.92
693.744	-0.08
693.773	4.92
693.802	0.92
693.831	-17.08
693.86	3.92
693.889	9.92
693.919	15.92
693.948	-0.08
693.977	3.92
694.006	-12.08
694.035	-2.08
694.064	-17.08
694.093	1.92
694.122	15.92
694.151	-1.08
694.18	7.92
694.209	19.92
694.238	6.92
694.267	17.92
694.296	9.92
694.325	6.92
694.354	11.92
694.383	3.92
694.412	6.92
694.441	4.92
694.471	-4.08
694.5	-11.08
694.529	-7.08
694.558	7.92
694.587	3.92
694.616	-3.08
694.645	6.92
694.674	22.92
694.703	19.92
694.732	4.92
694.761	-0.08
694.79	-14.08
694.819	-11.08
694.848	3.92
694.877	25.92
694.906	5.92
694.935	-3.08
694.963	25.92
694.992	6.92
695.021	3.92
695.05	19.92
695.079	9.92
695.108	12.92
695.137	14.92
695.166	4.92
695.195	16.92
695.224	25.92
695.253	8.92
695.282	-0.08
695.311	18.92
695.34	7.92
695.369	3.92
695.398	9.92
695.427	7.92
695.456	12.92
695.485	14.92
695.513	1.92
695.542	-4.08
695.571	3.92
695.6	24.92
695.629	0.92
695.658	13.92
695.687	0.92
695.716	-3.08
695.745	20.92
695.774	-12.08
695.802	-19.08
695.831	8.92
695.86	15.92
695.889	-0.08
695.918	-0.08
695.947	-4.08
695.976	-23.08
696.005	-4.08
696.033	-8.08
696.062	18.92
696.091	-5.08
696.12	15.92
696.149	11.92
696.178	-0.08
696.207	6.92
696.235	-4.08
696.264	-3.08
696.293	2.92
696.322	2.92
696.351	13.92
696.38	-2.08
696.408	16.92
696.437	11.92
696.466	5.92
696.495	9.92
696.524	20.92
696.553	5.92
696.581	12.92
696.61	0.92
696.639	-7.08
696.668	3.92
696.697	-1.08
696.725	10.92
696.754	6.92
696.783	-2.08
696.812	-16.08
696.84	19.92
696.869	17.92
696.898	-9.08
696.927	-2.08
696.956	7.92
696.984	-5.08
697.013	7.92
697.042	-4.08
697.071	10.92
697.099	17.92
697.128	13.92
697.157	0.92
697.186	0.92
697.214	10.92
697.243	10.92
697.272	18.92
697.301	8.92
697.329	-5.08
697.358	-3.08
697.387	28.92
697.415	10.92
697.444	-1.08
697.473	7.92
697.502	-14.08
697.53	-1.08
697.559	8.92
697.588	-4.08
697.616	-0.08
697.645	-7.08
697.674	6.92
697.703	18.92
697.731	4.92
697.76	9.92
697.789	3.92
697.817	1.92
697.846	25.92
697.875	7.92
697.903	13.92
697.932	-3.08
697.961	-1.08
697.989	15.92
698.018	7.92
698.047	9.92
698.075	7.92
698.104	-11.08
698.133	2.92
698.161	-9.08
698.19	3.92
698.218	-10.08
698.247	7.92
698.276	6.92
698.304	11.92
698.333	16.92
698.362	-0.08
698.39	8.92
698.419	15.92
698.447	-9.08
698.476	0.92
698.505	18.92
698.533	10.92
698.562	9.92
698.591	-9.08
698.619	-3.08
698.648	6.92
698.676	12.92
698.705	9.92
698.733	-1.08
698.762	1.92
698.791	1.92
698.819	4.92
698.848	7.92
698.876	2.92
698.905	10.92
698.933	18.92
698.962	7.92
698.991	3.92
699.019	22.92
699.048	-0.08
699.076	13.92
699.105	-2.08
699.133	-6.08
699.162	-2.08
699.19	18.92
699.219	6.92
699.248	9.92
699.276	-0.08
699.305	0.92
699.333	12.92
699.362	3.92
699.39	-0.08
699.419	-2.08
699.447	0.92
699.476	2.92
699.504	1.92
699.533	-2.08
699.561	-2.08
699.59	15.92
699.618	-7.08
699.647	-1.08
699.675	-6.08
699.704	16.92
699.732	8.92
699.761	8.92
699.789	0.92
699.818	5.92
699.846	-15.08
699.874	-4.08
699.903	-6.08
699.931	-8.08
699.96	1.92
699.988	0.92
700.017	-2.08
700.045	0.92
700.074	-12.08
700.102	-4.08
700.13	-12.08
700.159	-5.08
700.187	11.92
700.216	0.92
700.244	-7.08
700.273	10.92
700.301	16.92
700.329	11.92
700.358	5.92
700.386	-0.08
700.415	21.92
700.443	10.92
700.472	0.92
700.5	4.92
700.528	-3.08
700.557	-0.08
700.585	-1.08
700.614	6.92
700.642	13.92
700.67	25.92
700.699	4.92
700.727	-2.08
700.755	-1.08
700.784	-1.08
700.812	-6.08
700.841	-10.08
700.869	9.92
700.897	-12.08
700.926	-8.08
700.954	-7.08
700.982	-2.08
701.011	-6.08
701.039	12.92
701.067	3.92
701.096	15.92
701.124	-2.08
701.152	5.92
701.181	-11.08
701.209	-6.08
701.237	10.92
701.266	-1.08
701.294	-7.08
701.322	0.92
701.351	6.92
701.379	-12.08
701.407	-0.08
701.435	-1.08
701.464	10.92
701.492	24.92
701.52	-11.08
701.549	4.92
701.577	-3.08
701.605	-4.08
701.634	3.92
701.662	15.92
701.69	-8.08
701.718	-10.08
701.747	-1.08
701.775	-2.08
701.803	-6.08
701.831	19.92
701.86	-6.08
701.888	6.92
701.916	-0.08
701.944	3.92
701.973	1.92
702.001	-12.08
702.029	-6.08
702.057	-0.08
702.086	9.92
702.114	-9.08
702.142	8.92
702.17	1.92
702.199	12.92
702.227	1.92
702.255	-7.08
702.283	-16.08
702.311	10.92
702.34	2.92
702.368	13.92
702.396	4.92
702.424	-3.08
702.452	-1.08
702.481	7.92
702.509	-0.08
702.537	1.92
702.565	-2.08
702.593	-10.08
702.621	-17.08
702.65	6.92
702.678	8.92
702.706	2.92
702.734	0.92
702.762	2.92
702.79	-3.08
702.819	11.92
702.847	-4.08
702.875	13.92
702.903	6.92
702.931	-4.08
702.959	8.92
702.988	4.92
703.016	-13.08
703.044	5.92
703.072	-4.08
703.1	-9.08
703.128	2.92
703.156	4.92
703.184	0.92
703.212	5.92
703.241	3.92
703.269	6.92
703.297	-0.08
703.325	11.92
703.353	-10.08
703.381	-8.08
703.409	-5.08
703.437	-13.08
703.465	-11.08
703.493	2.92
703.522	0.92
703.55	0.92
703.578	22.92
703.606	-19.08
703.634	-5.08
703.662	-0.08
703.69	4.92
703.718	9.92
703.746	7.92
703.774	-3.08
703.802	20.92
703.83	-6.08
703.858	-12.08
703.886	-15.08
703.914	-2.08
703.942	8.92
703.97	-4.08
703.998	-3.08
704.027	18.92
704.055	0.92
704.083	7.92
704.111	-7.08
704.139	-16.08
704.167	-8.08
704.195	1.92
704.223	1.92
704.251	-5.08
704.279	-2.08
704.307	-1.08
704.335	-9.08
704.363	-6.08
704.391	-3.08
704.419	8.92
704.447	-1.08
704.475	-14.08
704.503	-7.08
704.531	5.92
704.558	1.92
704.586	8.92
704.614	-14.08
704.642	3.92
704.67	-4.08
704.698	-20.08
704.726	12.92
704.754	-4.08
704.782	-7.08
704.81	-2.08
704.838	15.92
704.866	-0.08
704.894	-12.08
704.922	0.92
704.95	-1.08
704.978	19.92
705.006	9.92
705.034	8.92
705.061	-18.08
705.089	-2.08
705.117	-9.08
705.145	-1.08
705.173	0.92
705.201	-0.08
705.229	-8.08
705.257	1.92
705.285	-2.08
705.313	-3.08
705.34	-12.08
705.368	5.92
705.396	8.92
705.424	3.92
705.452	-4.08
705.48	-5.08
705.508	-7.08
705.536	-10.08
705.563	-2.08
705.591	8.92
705.619	5.92
705.647	-12.08
705.675	-1.08
705.703	-4.08
705.731	-3.08
705.758	8.92
705.786	17.92
705.814	28.92
705.842	11.92
705.87	4.92
705.898	6.92
705.925	-0.08
705.953	-6.08
705.981	-6.08
706.009	4.92
706.037	8.92
706.065	-0.08
706.092	-14.08
706.12	-1.08
706.148	-15.08
706.176	11.92
706.204	4.92
706.231	14.92
706.259	-15.08
706.287	3.92
706.315	-3.08
706.342	-2.08
706.37	13.92
706.398	0.92
706.426	1.92
706.454	1.92
706.481	5.92
706.509	-0.08
706.537	-22.08
706.565	-5.08
706.592	9.92
706.62	0.92
706.648	8.92
706.676	-7.08
706.703	7.92
706.731	-0.08
706.759	-7.08
706.787	3.92
706.814	-13.08
706.842	-7.08
706.87	1.92
706.897	11.92
706.925	1.92
706.953	2.92
706.981	28.92
707.008	10.92
707.036	7.92
707.064	7.92
707.091	-0.08
707.119	8.92
707.147	6.92
707.174	6.92
707.202	-3.08
707.23	-16.08
707.258	4.92
707.285	-22.08
707.313	-4.08
707.341	-7.08
707.368	6.92
707.396	5.92
707.424	18.92
707.451	2.92
707.479	3.92
707.507	4.92
707.534	-3.08
707.562	-1.08
707.59	7.92
707.617	-11.08
707.645	0.92
707.672	2.92
707.7	0.92
707.728	15.92
707.755	17.92
707.783	-4.08
707.811	-3.08
707.838	-7.08
707.866	-9.08
707.893	1.92
707.921	-7.08
707.949	10.92
707.976	2.92
708.004	1.92
708.031	-8.08
708.059	1.92
708.087	-3.08
708.114	-7.08
708.142	-11.08
708.169	-21.08
708.197	-9.08
708.225	-5.08
708.252	-14.08
708.28	9.92
708.307	-4.08
708.335	3.92
708.362	0.92
708.39	-12.08
708.418	-12.08
708.445	-9.08
708.473	-18.08
708.5	0.92
708.528	13.92
708.555	-8.08
708.583	-1.08
708.61	-5.08
708.638	1.92
708.665	2.92
708.693	2.92
708.72	-15.08
708.748	-15.08
708.776	4.92
708.803	5.92
708.831	18.92
708.858	11.92
708.886	-7.08
708.913	2.92
708.941	2.92
708.968	8.92
708.996	-3.08
709.023	28.92
709.051	-7.08
709.078	-16.08
709.105	1.92
709.133	11.92
709.16	5.92
709.188	4.92
709.215	-2.08
709.243	-4.08
709.27	-6.08
709.298	5.92
709.325	11.92
709.353	-14.08
709.38	-1.08
709.408	-6.08
709.435	6.92
709.462	4.92
709.49	8.92
709.517	-9.08
709.545	-7.08
709.572	-13.08
709.6	-6.08
709.627	4.92
709.655	-10.08
709.682	-5.08
709.709	-1.08
709.737	11.92
709.764	8.92
709.792	1.92
709.819	-19.08
709.846	-8.08
709.874	0.92
709.901	31.92
709.929	9.92
709.956	-9.08
709.983	-15.08
710.011	-7.08
710.038	-12.08
710.066	-17.08
710.093	9.92
710.12	10.92
710.148	6.92
710.175	-16.08
710.202	-6.08
710.23	6.92
710.257	7.92
710.284	7.92
710.312	3.92
710.339	0.92
710.366	13.92
710.394	-4.08
710.421	8.92
710.448	2.92
710.476	-19.08
710.503	3.92
710.53	7.92
710.558	5.92
710.585	7.92
710.612	-6.08
710.64	-4.08
710.667	6.92
710.694	0.92
710.722	3.92
710.749	0.92
710.776	-4.08
710.804	10.92
710.831	-8.08
710.858	7.92
710.885	7.92
710.913	-0.08
710.94	23.92
710.967	-4.08
710.995	-1.08
711.022	-8.08
711.049	-4.08
711.076	-6.08
711.104	-3.08
711.131	-8.08
711.158	-4.08
711.185	-0.08
711.213	-24.08
711.24	-7.08
711.267	-5.08
711.294	-6.08
711.322	15.92
711.349	-1.08
711.376	-5.08
711.403	2.92
711.431	-6.08
711.458	1.92
711.485	-9.08
711.512	-10.08
711.54	-13.08
711.567	-6.08
711.594	-3.08
711.621	-1.08
711.648	5.92
711.676	11.92
711.703	12.92
711.73	-7.08
711.757	-1.08
711.784	-9.08
711.812	-0.08
711.839	-5.08
711.866	-13.08
711.893	-13.08
711.92	1.92
711.947	-3.08
711.975	-3.08
712.002	-10.08
712.029	25.92
712.056	5.92
712.083	6.92
712.11	-5.08
712.138	-1.08
712.165	13.92
712.192	-8.08
712.219	-11.08
712.246	6.92
712.273	-7.08
712.3	-12.08
712.328	-7.08
712.355	1.92
712.382	8.92
712.409	10.92
712.436	-12.08
712.463	-3.08
712.49	15.92
712.517	-1.08
712.544	-7.08
712.572	-13.08
712.599	2.92
712.626	-1.08
712.653	-19.08
712.68	-17.08
712.707	6.92
712.734	10.92
712.761	4.92
712.788	-4.08
712.815	-3.08
712.842	26.92
712.87	-2.08
712.897	-17.08
712.924	-13.08
712.951	-2.08
712.978	1.92
713.005	6.92
713.032	5.92
713.059	-11.08
713.086	-16.08
713.113	-2.08
713.14	-6.08
713.167	-0.08
713.194	2.92
713.221	2.92
713.248	3.92
713.275	-1.08
713.302	1.92
713.329	8.92
713.356	8.92
713.383	4.92
713.41	14.92
713.437	-17.08
713.464	-1.08
713.491	17.92
713.518	12.92
713.545	3.92
713.572	-8.08
713.599	23.92
713.626	-4.08
713.653	27.92
713.68	1.92
713.707	-5.08
713.734	-0.08
713.761	-4.08
713.788	0.92
713.815	13.92
713.842	-9.08
713.869	4.92
713.896	-3.08
713.923	1.92
713.95	11.92
713.977	7.92
714.004	-0.08
714.031	-4.08
714.058	-6.08
714.085	3.92
714.112	25.92
714.139	3.92
714.165	-13.08
714.192	-8.08
714.219	-7.08
714.246	2.92
714.273	-4.08
714.3	-0.08
714.327	14.92
714.354	4.92
714.381	3.92
714.408	-5.08
714.435	-4.08
714.461	-4.08
714.488	2.92
714.515	7.92
714.542	-22.08
714.569	-7.08
714.596	-6.08
714.623	-7.08
714.65	-3.08
714.677	-5.08
714.703	3.92
714.73	-1.08
714.757	2.92
714.784	5.92
714.811	-3.08
714.838	-2.08
714.865	-9.08
714.891	4.92
714.918	2.92
714.945	-6.08
714.972	-13.08
714.999	7.92
715.026	-4.08
715.052	14.92
715.079	0.92
715.106	12.92
715.133	2.92
715.16	5.92
715.187	-2.08
715.213	-8.08
715.24	-8.08
715.267	5.92
715.294	5.92
715.321	-4.08
715.347	-5.08
715.374	-11.08
715.401	-3.08
715.428	0.92
715.455	13.92
715.481	-7.08
715.508	8.92
715.535	-10.08
715.562	11.92
715.588	5.92
715.615	3.92
715.642	6.92
715.669	16.92
715.695	-3.08
715.722	-13.08
715.749	-4.08
715.776	2.92
715.802	16.92
715.829	-6.08
715.856	0.92
715.883	4.92
715.909	-9.08
715.936	1.92
715.963	-16.08
715.99	-12.08
716.016	6.92
716.043	5.92
716.07	-5.08
716.096	-5.08
716.123	-9.08
716.15	-3.08
716.177	11.92
716.203	18.92
716.23	5.92
716.257	12.92
716.283	20.92
716.31	-4.08
716.337	4.92
716.363	8.92
716.39	0.92
716.417	6.92
716.443	6.92
716.47	1.92
716.497	15.92
716.523	10.92
716.55	-0.08
716.577	17.92
716.603	-5.08
716.63	3.92
716.657	11.92
716.683	-4.08
716.71	-0.08
716.737	0.92
716.763	6.92
716.79	-3.08
716.817	13.92
716.843	3.92
716.87	-13.08
716.897	1.92
716.923	3.92
716.95	4.92
716.976	5.92
717.003	4.92
717.03	7.92
717.056	7.92
717.083	-3.08
717.109	1.92
717.136	4.92
717.163	6.92
717.189	-7.08
717.216	1.92
717.242	14.92
717.269	2.92
717.296	16.92
717.322	-1.08
717.349	20.92
717.375	7.92
717.402	-11.08
717.428	-0.08
717.455	-1.08
717.481	2.92
717.508	18.92
717.535	14.92
717.561	1.92
717.588	-3.08
717.614	6.92
717.641	-0.08
717.667	16.92
717.694	5.92
717.72	3.92
717.747	11.92
717.773	-0.08
717.8	11.92
717.826	3.92
717.853	9.92
717.88	0.92
717.906	0.92
717.933	8.92
717.959	8.92
717.986	15.92
718.012	0.92
718.039	0.92
718.065	8.92
718.092	8.92
718.118	-3.08
718.144	3.92
718.171	8.92
718.197	12.92
718.224	12.92
718.25	2.92
718.277	5.92
718.303	0.92
718.33	-4.08
718.356	4.92
718.383	-15.08
718.409	-11.08
718.436	3.92
718.462	-3.08
718.489	-9.08
718.515	10.92
718.541	17.92
718.568	-6.08
718.594	13.92
718.621	11.92
718.647	1.92
718.674	3.92
718.7	11.92
718.726	6.92
718.753	3.92
718.779	5.92
718.806	-10.08
718.832	6.92
718.858	8.92
718.885	14.92
718.911	8.92
718.938	5.92
718.964	-0.08
718.99	3.92
719.017	2.92
719.043	15.92
719.07	21.92
719.096	-10.08
719.122	8.92
719.149	-6.08
719.175	3.92
719.201	6.92
719.228	8.92
719.254	2.92
719.281	-15.08
719.307	-7.08
719.333	-13.08
719.36	5.92
719.386	-0.08
719.412	-1.08
719.439	-7.08
719.465	6.92
719.491	-9.08
719.518	7.92
719.544	0.92
719.57	19.92
719.597	6.92
719.623	-9.08
719.649	1.92
719.675	-10.08
719.702	-8.08
719.728	11.92
719.754	-3.08
719.781	-5.08
719.807	-7.08
719.833	-8.08
719.86	-0.08
719.886	-3.08
719.912	-0.08
719.938	3.92
719.965	-0.08
719.991	7.92
720.017	2.92
720.044	-4.08
720.07	-2.08
720.096	0.92
720.122	1.92
720.149	14.92
720.175	17.92
720.201	5.92
720.227	-6.08
720.254	2.92
720.28	1.92
720.306	8.92
720.332	17.92
720.359	10.92
720.385	10.92
720.411	-13.08
720.437	-10.08
720.463	-11.08
720.49	10.92
720.516	-1.08
720.542	-8.08
720.568	-1.08
720.595	9.92
720.621	-5.08
720.647	9.92
720.673	5.92
720.699	-8.08
720.725	-5.08
720.752	1.92
720.778	-1.08
720.804	6.92
720.83	17.92
720.856	-0.08
720.883	-15.08
720.909	-1.08
720.935	9.92
720.961	19.92
720.987	10.92
721.013	18.92
721.04	-7.08
721.066	-7.08
721.092	-5.08
721.118	7.92
721.144	-2.08
721.17	5.92
721.196	-1.08
721.223	-7.08
721.249	-7.08
721.275	16.92
721.301	25.92
721.327	12.92
721.353	1.92
721.379	1.92
721.405	18.92
721.432	20.92
721.458	12.92
721.484	-0.08
721.51	-11.08
721.536	-7.08
721.562	-4.08
721.588	-4.08
721.614	-15.08
721.64	-1.08
721.666	-5.08
721.693	-9.08
721.719	-10.08
721.745	-9.08
721.771	-2.08
721.797	-2.08
721.823	3.92
721.849	18.92
721.875	6.92
721.901	-3.08
721.927	3.92
721.953	6.92
721.979	30.92
722.005	16.92
722.031	-0.08
722.057	-1.08
722.083	-6.08
722.109	-8.08
722.135	5.92
722.161	1.92
722.187	-9.08
722.214	-7.08
722.24	-5.08
722.266	-14.08
722.292	-0.08
722.318	1.92
722.344	2.92
722.37	7.92
722.396	16.92
722.422	-3.08
722.448	-3.08
722.474	-4.08
722.5	6.92
722.526	13.92
722.552	6.92
722.578	-1.08
722.603	3.92
722.629	3.92
722.655	-8.08
722.681	-4.08
722.707	10.92
722.733	-13.08
722.759	-8.08
722.785	20.92
722.811	8.92
722.837	8.92
722.863	6.92
722.889	2.92
722.915	-2.08
722.941	-8.08
722.967	2.92
722.993	12.92
723.019	6.92
723.045	15.92
723.071	8.92
723.097	4.92
723.122	4.92
723.148	11.92
723.174	-0.08
723.2	-3.08
723.226	-4.08
723.252	10.92
723.278	-12.08
723.304	1.92
723.33	4.92
723.356	-5.08
723.381	-16.08
723.407	-14.08
723.433	12.92
723.459	-6.08
723.485	-21.08
723.511	2.92
723.537	-3.08
723.563	-7.08
723.588	15.92
723.614	16.92
723.64	-3.08
723.666	-5.08
723.692	8.92
723.718	4.92
723.744	12.92
723.769	-6.08
723.795	-6.08
723.821	-1.08
723.847	-12.08
723.873	4.92
723.899	10.92
723.924	-25.08
723.95	9.92
723.976	-3.08
724.002	-1.08
724.028	8.92
724.053	-13.08
724.079	-13.08
724.105	-10.08
724.131	2.92
724.157	-6.08
724.182	-0.08
724.208	-3.08
724.234	-11.08
724.26	-15.08
724.286	-1.08
724.311	-2.08
724.337	-1.08
724.363	-9.08
724.389	7.92
724.415	-11.08
724.44	19.92
724.466	-4.08
724.492	-8.08
724.518	16.92
724.543	-4.08
724.569	-0.08
724.595	0.92
724.621	-1.08
724.646	4.92
724.672	-9.08
724.698	-5.08
724.723	0.92
724.749	8.92
724.775	2.92
724.801	-4.08
724.826	-5.08
724.852	5.92
724.878	-7.08
724.904	-13.08
724.929	-11.08
724.955	-21.08
724.981	-3.08
725.006	-9.08
725.032	-3.08
725.058	15.92
725.083	-2.08
725.109	-6.08
725.135	-1.08
725.161	3.92
725.186	-1.08
725.212	0.92
725.238	12.92
725.263	7.92
725.289	-19.08
725.315	-21.08
725.34	-10.08
725.366	2.92
725.392	2.92
725.417	4.92
725.443	2.92
725.468	8.92
725.494	20.92
725.52	18.92
725.545	3.92
725.571	5.92
725.597	-10.08
725.622	-7.08
725.648	-8.08
725.674	0.92
725.699	-3.08
725.725	0.92
725.75	18.92
725.776	-1.08
725.802	9.92
725.827	10.92
725.853	7.92
725.878	9.92
725.904	3.92
725.93	13.92
725.955	-13.08
725.981	-7.08
726.006	-0.08
726.032	-8.08
726.057	-17.08
726.083	-7.08
726.109	-0.08
726.134	3.92
726.16	-1.08
726.185	-9.08
726.211	-15.08
726.236	-5.08
726.262	-7.08
726.288	5.92
726.313	17.92
726.339	4.92
726.364	1.92
726.39	12.92
726.415	-4.08
726.441	-11.08
726.466	-2.08
726.492	-10.08
726.517	-4.08
726.543	4.92
726.568	-19.08
726.594	-4.08
726.619	8.92
726.645	1.92
726.67	-1.08
726.696	0.92
726.721	-7.08
726.747	-7.08
726.772	3.92
726.798	-3.08
726.823	2.92
726.849	-8.08
726.874	8.92
726.9	5.92
726.925	6.92
726.951	-1.08
726.976	9.92
727.002	-8.08
727.027	-6.08
727.053	13.92
727.078	-12.08
727.104	-2.08
727.129	-9.08
727.155	-12.08
727.18	4.92
727.205	-6.08
727.231	-17.08
727.256	-7.08
727.282	-6.08
727.307	9.92
727.333	-4.08
727.358	-5.08
727.383	-8.08
727.409	-14.08
727.434	6.92
727.46	6.92
727.485	6.92
727.511	4.92
727.536	-17.08
727.561	3.92
727.587	0.92
727.612	0.92
727.637	-2.08
727.663	-24.08
727.688	12.92
727.714	-0.08
727.739	-9.08
727.764	-7.08
727.79	2.92
727.815	0.92
727.841	5.92
727.866	2.92
727.891	9.92
727.917	-1.08
727.942	-8.08
727.967	-12.08
727.993	-10.08
728.018	-4.08
728.043	0.92
728.069	10.92
728.094	14.92
728.119	3.92
728.145	-4.08
728.17	-7.08
728.195	-1.08
728.221	1.92
728.246	2.92
728.271	-24.08
728.297	-6.08
728.322	2.92
728.347	9.92
728.373	-3.08
728.398	7.92
728.423	-10.08
728.448	0.92
728.474	9.92
728.499	-9.08
728.524	-9.08
728.55	-6.08
728.575	-14.08
728.6	1.92
728.625	-17.08
728.651	-0.08
728.676	-7.08
728.701	-16.08
728.727	8.92
728.752	0.92
728.777	4.92
728.802	-11.08
728.828	-11.08
728.853	-13.08
728.878	-8.08
728.903	-5.08
728.929	-5.08
728.954	-12.08
728.979	-12.08
729.004	-16.08
729.03	-6.08
729.055	-1.08
729.08	-8.08
729.105	-7.08
729.13	6.92
729.156	5.92
729.181	-4.08
729.206	-19.08
729.231	-3.08
729.256	-9.08
729.282	18.92
729.307	-12.08
729.332	-7.08
729.357	-9.08
729.382	-6.08
729.408	3.92
729.433	0.92
729.458	-2.08
729.483	14.92
729.508	-0.08
729.533	-4.08
729.559	-12.08
729.584	-4.08
729.609	16.92
729.634	8.92
729.659	-13.08
729.684	-21.08
729.71	1.92
729.735	-9.08
729.76	-0.08
729.785	-0.08
729.81	4.92
729.835	-15.08
729.86	-7.08
729.886	1.92
729.911	2.92
729.936	-7.08
729.961	-7.08
729.986	-8.08
730.011	-1.08
730.036	10.92
730.061	6.92
730.086	7.92
730.112	-1.08
730.137	31.92
730.162	-7.08
730.187	-16.08
730.212	10.92
730.237	-6.08
730.262	-5.08
730.287	11.92
730.312	15.92
730.337	3.92
730.362	17.92
730.387	-6.08
730.413	-7.08
730.438	-3.08
730.463	-7.08
730.488	6.92
730.513	7.92
730.538	5.92
730.563	24.92
730.588	-3.08
730.613	-7.08
730.638	-1.08
730.663	-4.08
730.688	8.92
730.713	9.92
730.738	0.92
730.763	-4.08
730.788	-7.08
730.813	7.92
730.838	-3.08
730.863	-4.08
730.888	4.92
730.913	-9.08
730.938	-17.08
730.963	-8.08
730.988	2.92
731.013	9.92
731.038	-13.08
731.063	14.92
731.088	9.92
731.113	-9.08
731.138	-1.08
731.163	-0.08
731.188	-14.08
731.213	7.92
731.238	19.92
731.263	0.92
731.288	2.92
731.313	4.92
731.338	-1.08
731.363	-0.08
731.388	-1.08
731.413	-0.08
731.438	10.92
731.463	-1.08
731.487	2.92
731.512	-1.08
731.537	3.92
731.562	4.92
731.587	9.92
731.612	-9.08
731.637	4.92
731.662	4.92
731.687	2.92
731.712	-4.08
731.737	14.92
731.762	17.92
731.786	14.92
731.811	2.92
731.836	12.92
731.861	-12.08
731.886	-7.08
731.911	14.92
731.936	2.92
731.961	-5.08
731.986	-7.08
732.01	7.92
732.035	6.92
732.06	-1.08
732.085	-12.08
732.11	-9.08
732.135	-16.08
732.16	4.92
732.184	-5.08
732.209	-2.08
732.234	-2.08
732.259	2.92
732.284	8.92
732.309	-15.08
732.334	-3.08
732.358	-15.08
732.383	-7.08
732.408	-16.08
732.433	-15.08
732.458	-8.08
732.482	-0.08
732.507	-7.08
732.532	2.92
732.557	3.92
732.582	2.92
732.607	-4.08
732.631	0.92
732.656	-9.08
732.681	-0.08
732.706	-8.08
732.73	2.92
732.755	-10.08
732.78	-3.08
732.805	-0.08
732.83	2.92
732.854	18.92
732.879	9.92
732.904	-8.08
732.929	-15.08
732.953	-9.08
732.978	-10.08
733.003	7.92
733.028	0.92
733.052	10.92
733.077	-9.08
733.102	-7.08
733.127	-10.08
733.151	2.92
733.176	12.92
733.201	3.92
733.226	-8.08
733.25	5.92
733.275	-5.08
733.3	-5.08
733.324	6.92
733.349	4.92
733.374	15.92
733.399	-1.08
733.423	-1.08
733.448	-5.08
733.473	-8.08
733.497	-4.08
733.522	-6.08
733.547	17.92
733.571	6.92
733.596	-22.08
733.621	14.92
733.646	-16.08
733.67	-7.08
733.695	-9.08
733.72	8.92
733.744	16.92
733.769	8.92
733.794	19.92
733.818	-6.08
733.843	11.92
733.867	-1.08
733.892	-1.08
733.917	-4.08
733.941	-12.08
733.966	-7.08
733.991	-3.08
734.015	21.92
734.04	6.92
734.065	9.92
734.089	3.92
734.114	-4.08
734.138	7.92
734.163	-8.08
734.188	-6.08
734.212	10.92
734.237	5.92
734.261	3.92
734.286	-6.08
734.311	6.92
734.335	6.92
734.36	-6.08
734.384	2.92
734.409	-1.08
734.434	-8.08
734.458	7.92
734.483	-6.08
734.507	-2.08
734.532	-0.08
734.556	-8.08
734.581	-8.08
734.606	-7.08
734.63	-14.08
734.655	3.92
734.679	6.92
734.704	-8.08
734.728	0.92
734.753	-3.08
734.777	-13.08
734.802	-12.08
734.826	4.92
734.851	6.92
734.876	-1.08
734.9	15.92
734.925	12.92
734.949	-5.08
734.974	4.92
734.998	5.92
735.023	-7.08
735.047	-11.08
735.072	6.92
735.096	1.92
735.121	0.92
735.145	5.92
735.17	-8.08
735.194	12.92
735.219	-8.08
735.243	8.92
735.268	1.92
735.292	-1.08
735.317	9.92
735.341	17.92
735.365	-1.08
735.39	1.92
735.414	-1.08
735.439	-3.08
735.463	-0.08
735.488	14.92
735.512	6.92
735.537	-1.08
735.561	0.92
735.586	7.92
735.61	2.92
735.634	-3.08
735.659	1.92
735.683	12.92
735.708	-13.08
735.732	-1.08
735.757	-16.08
735.781	-5.08
735.805	6.92
735.83	-13.08
735.854	-12.08
735.879	-3.08
735.903	-5.08
735.927	4.92
735.952	-2.08
735.976	-13.08
736.001	-0.08
736.025	-3.08
736.049	1.92
736.074	17.92
736.098	-1.08
736.123	0.92
736.147	0.92
736.171	14.92
736.196	14.92
736.22	-8.08
736.244	4.92
736.269	-1.08
736.293	-17.08
736.317	2.92
736.342	9.92
736.366	15.92
736.39	20.92
736.415	18.92
736.439	7.92
736.463	22.92
736.488	-0.08
736.512	-3.08
736.536	16.92
736.561	8.92
736.585	-3.08
736.609	-0.08
736.634	-10.08
736.658	-7.08
736.682	-21.08
736.707	-14.08
736.731	-21.08
736.755	-5.08
736.78	17.92
736.804	11.92
736.828	8.92
736.852	-7.08
736.877	-1.08
736.901	11.92
736.925	-10.08
736.949	8.92
736.974	2.92
736.998	-3.08
737.022	7.92
737.047	-13.08
737.071	-1.08
737.095	13.92
737.119	21.92
737.144	16.92
737.168	4.92
737.192	-1.08
737.216	9.92
737.241	0.92
737.265	3.92
737.289	-5.08
737.313	0.92
737.337	11.92
737.362	2.92
737.386	-4.08
737.41	-15.08
737.434	-4.08
737.459	-3.08
737.483	6.92
737.507	5.92
737.531	5.92
737.555	7.92
737.58	14.92
737.604	9.92
737.628	-10.08
737.652	-7.08
737.676	-9.08
737.701	3.92
737.725	-11.08
737.749	5.92
737.773	1.92
737.797	-1.08
737.821	19.92
737.846	1.92
737.87	32.92
737.894	-3.08
737.918	-5.08
737.942	-1.08
737.966	13.92
737.99	2.92
738.015	-4.08
738.039	11.92
738.063	-5.08
738.087	19.92
738.111	12.92
738.135	14.92
738.159	-6.08
738.184	11.92
738.208	8.92
738.232	10.92
738.256	6.92
738.28	12.92
738.304	11.92
738.328	-11.08
738.352	12.92
738.376	1.92
738.4	-7.08
738.425	-0.08
738.449	-6.08
738.473	19.92
738.497	0.92
738.521	3.92
738.545	6.92
738.569	-5.08
738.593	27.92
738.617	8.92
738.641	-3.08
738.665	-0.08
738.689	-4.08
738.713	-11.08
738.737	8.92
738.762	16.92
738.786	12.92
738.81	-16.08
738.834	11.92
738.858	-4.08
738.882	7.92
738.906	-4.08
738.93	4.92
738.954	10.92
738.978	14.92
739.002	-5.08
739.026	21.92
739.05	-0.08
739.074	-4.08
739.098	20.92
739.122	0.92
739.146	11.92
739.17	4.92
739.194	3.92
739.218	-5.08
739.242	12.92
739.266	5.92
739.29	6.92
739.314	0.92
739.338	7.92
739.362	-4.08
739.386	6.92
739.41	-1.08
739.434	11.92
739.458	8.92
739.482	7.92
739.506	5.92
739.53	6.92
739.554	23.92
739.577	-3.08
739.601	6.92
739.625	-0.08
739.649	-15.08
739.673	-8.08
739.697	14.92
739.721	-5.08
739.745	-8.08
739.769	10.92
739.793	-8.08
739.817	-0.08
739.841	-1.08
739.865	2.92
739.889	-8.08
739.912	3.92
739.936	-0.08
739.96	-4.08
739.984	13.92
740.008	-0.08
740.032	1.92
740.056	-8.08
740.08	3.92
740.104	6.92
740.127	9.92
740.151	2.92
740.175	1.92
740.199	4.92
740.223	46.92
740.247	8.92
740.271	-13.08
740.295	2.92
740.318	-3.08
740.342	-1.08
740.366	6.92
740.39	11.92
740.414	-2.08
740.438	-5.08
740.461	11.92
740.485	-0.08
740.509	-2.08
740.533	13.92
740.557	1.92
740.581	-0.08
740.604	-7.08
740.628	7.92
740.652	18.92
740.676	4.92
740.7	0.92
740.723	-5.08
740.747	3.92
740.771	11.92
740.795	-1.08
740.819	9.92
740.842	11.92
740.866	10.92
740.89	-0.08
740.914	0.92
740.938	-5.08
740.961	4.92
740.985	5.92
741.009	-17.08
741.033	-1.08
741.056	-2.08
741.08	-3.08
741.104	-16.08
741.128	2.92
741.151	-5.08
741.175	14.92
741.199	4.92
741.223	6.92
741.246	-4.08
741.27	14.92
741.294	8.92
741.318	5.92
741.341	-2.08
741.365	7.92
741.389	9.92
741.413	8.92
741.436	8.92
741.46	20.92
741.484	23.92
741.507	4.92
741.531	22.92
741.555	6.92
741.579	-4.08
741.602	2.92
741.626	7.92
741.65	5.92
741.673	3.92
741.697	10.92
741.721	2.92
741.744	-13.08
741.768	-3.08
741.792	6.92
741.815	-0.08
741.839	4.92
741.863	9.92
741.886	19.92
741.91	10.92
741.934	-1.08
741.957	-14.08
741.981	11.92
742.005	-1.08
742.028	-1.08
742.052	-11.08
742.075	0.92
742.099	5.92
742.123	-4.08
742.146	-2.08
742.17	5.92
742.194	-6.08
742.217	-4.08
742.241	-6.08
742.264	-6.08
742.288	15.92
742.312	6.92
742.335	8.92
742.359	11.92
742.382	16.92
742.406	17.92
742.43	-8.08
742.453	6.92
742.477	-5.08
742.5	6.92
742.524	-12.08
742.548	-7.08
742.571	7.92
742.595	-10.08
742.618	5.92
742.642	-7.08
742.665	-0.08
742.689	8.92
742.712	12.92
742.736	-4.08
742.76	-4.08
742.783	-5.08
742.807	11.92
742.83	10.92
742.854	-6.08
742.877	-9.08
742.901	-9.08
742.924	-3.08
742.948	-5.08
742.971	2.92
742.995	-11.08
743.018	-22.08
743.042	-8.08
743.065	-1.08
743.089	3.92
743.112	6.92
743.136	-8.08
743.159	-9.08
743.183	-0.08
743.206	-5.08
743.23	-7.08
743.253	-0.08
743.277	-0.08
743.3	-9.08
743.324	-8.08
743.347	-3.08
743.371	15.92
743.394	9.92
743.418	9.92
743.441	11.92
743.465	-0.08
743.488	14.92
743.512	-4.08
743.535	3.92
743.558	6.92
743.582	2.92
743.605	-6.08
743.629	12.92
743.652	1.92
743.676	15.92
743.699	12.92
743.723	22.92
743.746	24.92
743.769	4.92
743.793	3.92
743.816	-10.08
743.84	-4.08
743.863	-20.08
743.886	-0.08
743.91	18.92
743.933	6.92
743.957	17.92
743.98	-13.08
744.003	-1.08
744.027	-5.08
744.05	7.92
744.074	-1.08
744.097	-15.08
744.12	-9.08
744.144	-8.08
744.167	6.92
744.19	-5.08
744.214	2.92
744.237	-13.08
744.26	32.92
744.284	-3.08
744.307	5.92
744.331	0.92
744.354	4.92
744.377	11.92
744.401	-6.08
744.424	-3.08
744.447	-13.08
744.471	-3.08
