Data from HighRes_H2_15_09_11_07_2024_HR4C61891__154__15-11-11-801.txt Node

Date: Thu Nov 07 15:11:11 EST 2024
User: crc00042
Spectrometer: HR4C6189
Trigger mode: 4
Integration Time (sec): 1.000000E-1
Scans to average: 1
Electric dark correction enabled: true
Nonlinearity correction enabled: false
Boxcar width: 0
XAxis mode: Wavelengths
Number of Pixels in Spectrum: 3648
>>>>>Begin Spectral Data<<<<<
639.567	-44.69
639.602	-44.69
639.636	-44.69
639.67	-44.69
639.704	-7.69
639.738	-5.69
639.773	9.31
639.807	-5.69
639.841	10.31
639.875	13.31
639.909	5.31
639.943	-4.69
639.978	-14.69
640.012	-3.69
640.046	18.31
640.08	-10.69
640.114	4.31
640.148	-15.69
640.182	-2.69
640.217	-11.69
640.251	22.31
640.285	12.31
640.319	-16.69
640.353	-0.69
640.387	1.31
640.421	2.31
640.455	-9.69
640.49	1.31
640.524	-0.69
640.558	-2.69
640.592	1.31
640.626	9.31
640.66	-0.69
640.694	-10.69
640.728	5.31
640.762	5.31
640.796	19.31
640.83	22.31
640.865	-11.69
640.899	-11.69
640.933	-3.69
640.967	-0.69
641.001	2.31
641.035	1.31
641.069	2.31
641.103	-0.69
641.137	-2.69
641.171	-22.69
641.205	11.31
641.239	4.31
641.273	9.31
641.307	5.31
641.341	13.31
641.375	-7.69
641.409	-6.69
641.443	3.31
641.477	10.31
641.511	9.31
641.545	9.31
641.579	5.31
641.614	15.31
641.648	9.31
641.682	4.31
641.716	-2.69
641.75	7.31
641.784	3.31
641.818	6.31
641.852	4.31
641.886	2.31
641.919	24.31
641.953	10.31
641.987	-9.69
642.021	5.31
642.055	15.31
642.089	36.31
642.123	18.31
642.157	-1.69
642.191	-14.69
642.225	4.31
642.259	-3.69
642.293	15.31
642.327	17.31
642.361	10.31
642.395	26.31
642.429	9.31
642.463	1.31
642.497	29.31
642.531	9.31
642.565	-10.69
642.599	8.31
642.633	2.31
642.666	2.31
642.7	11.31
642.734	20.31
642.768	-6.69
642.802	7.31
642.836	-3.69
642.87	-9.69
642.904	-1.69
642.938	6.31
642.972	-0.69
643.005	0.31
643.039	6.31
643.073	3.31
643.107	5.31
643.141	3.31
643.175	-3.69
643.209	-0.69
643.243	-5.69
643.276	-5.69
643.31	2.31
643.344	6.31
643.378	5.31
643.412	24.31
643.446	0.31
643.48	-13.69
643.513	6.31
643.547	3.31
643.581	4.31
643.615	14.31
643.649	13.31
643.683	-6.69
643.716	-7.69
643.75	10.31
643.784	-17.69
643.818	14.31
643.852	6.31
643.886	6.31
643.919	15.31
643.953	-23.69
643.987	-2.69
644.021	7.31
644.055	3.31
644.088	9.31
644.122	-0.69
644.156	-5.69
644.19	8.31
644.224	11.31
644.257	11.31
644.291	22.31
644.325	9.31
644.359	3.31
644.392	34.31
644.426	17.31
644.46	2.31
644.494	3.31
644.527	-6.69
644.561	7.31
644.595	11.31
644.629	-13.69
644.662	16.31
644.696	25.31
644.73	-3.69
644.764	19.31
644.797	8.31
644.831	12.31
644.865	12.31
644.899	11.31
644.932	24.31
644.966	15.31
645	21.31
645.033	17.31
645.067	-5.69
645.101	1.31
645.135	-4.69
645.168	-6.69
645.202	-0.69
645.236	17.31
645.269	10.31
645.303	-6.69
645.337	-4.69
645.37	-7.69
645.404	2.31
645.438	-12.69
645.471	-11.69
645.505	6.31
645.539	9.31
645.572	-3.69
645.606	-9.69
645.64	4.31
645.673	10.31
645.707	23.31
645.741	-4.69
645.774	-18.69
645.808	11.31
645.842	1.31
645.875	6.31
645.909	-3.69
645.943	-13.69
645.976	-3.69
646.01	6.31
646.043	14.31
646.077	5.31
646.111	5.31
646.144	8.31
646.178	13.31
646.212	-9.69
646.245	-2.69
646.279	-2.69
646.312	-5.69
646.346	10.31
646.38	-13.69
646.413	11.31
646.447	1.31
646.48	0.31
646.514	21.31
646.547	3.31
646.581	-3.69
646.615	-8.69
646.648	-11.69
646.682	8.31
646.715	-0.69
646.749	2.31
646.782	0.31
646.816	6.31
646.85	14.31
646.883	-6.69
646.917	3.31
646.95	10.31
646.984	2.31
647.017	4.31
647.051	11.31
647.084	10.31
647.118	-18.69
647.151	-2.69
647.185	4.31
647.218	6.31
647.252	23.31
647.285	-11.69
647.319	-0.69
647.353	-9.69
647.386	23.31
647.42	-4.69
647.453	5.31
647.487	7.31
647.52	16.31
647.553	1.31
647.587	4.31
647.62	2.31
647.654	3.31
647.687	-5.69
647.721	6.31
647.754	6.31
647.788	1.31
647.821	-15.69
647.855	-3.69
647.888	11.31
647.922	31.31
647.955	13.31
647.989	14.31
648.022	11.31
648.055	8.31
648.089	-10.69
648.122	14.31
648.156	2.31
648.189	-0.69
648.223	8.31
648.256	27.31
648.29	17.31
648.323	9.31
648.356	9.31
648.39	14.31
648.423	-10.69
648.457	-6.69
648.49	18.31
648.523	10.31
648.557	7.31
648.59	1.31
648.624	1.31
648.657	0.31
648.69	18.31
648.724	23.31
648.757	12.31
648.791	-4.69
648.824	16.31
648.857	19.31
648.891	-1.69
648.924	-8.69
648.957	3.31
648.991	-9.69
649.024	22.31
649.057	1.31
649.091	-14.69
649.124	4.31
649.158	1.31
649.191	23.31
649.224	5.31
649.258	-1.69
649.291	9.31
649.324	19.31
649.358	10.31
649.391	2.31
649.424	4.31
649.458	-8.69
649.491	2.31
649.524	-3.69
649.557	-12.69
649.591	-12.69
649.624	17.31
649.657	0.31
649.691	12.31
649.724	-2.69
649.757	-7.69
649.791	0.31
649.824	20.31
649.857	18.31
649.89	4.31
649.924	-9.69
649.957	-5.69
649.99	-27.69
650.023	-17.69
650.057	10.31
650.09	15.31
650.123	11.31
650.157	14.31
650.19	24.31
650.223	10.31
650.256	-16.69
650.29	6.31
650.323	7.31
650.356	14.31
650.389	5.31
650.423	-12.69
650.456	-11.69
650.489	3.31
650.522	1.31
650.555	4.31
650.589	1.31
650.622	9.31
650.655	26.31
650.688	2.31
650.721	1.31
650.755	15.31
650.788	14.31
650.821	5.31
650.854	-2.69
650.887	5.31
650.921	-4.69
650.954	-0.69
650.987	5.31
651.02	4.31
651.053	-5.69
651.087	-24.69
651.12	25.31
651.153	5.31
651.186	10.31
651.219	0.31
651.252	11.31
651.286	12.31
651.319	-3.69
651.352	-5.69
651.385	-3.69
651.418	9.31
651.451	9.31
651.484	14.31
651.518	-5.69
651.551	26.31
651.584	-8.69
651.617	22.31
651.65	7.31
651.683	13.31
651.716	-4.69
651.749	-22.69
651.783	-1.69
651.816	7.31
651.849	16.31
651.882	-5.69
651.915	-9.69
651.948	14.31
651.981	7.31
652.014	3.31
652.047	-13.69
652.08	-13.69
652.114	-3.69
652.147	-4.69
652.18	7.31
652.213	28.31
652.246	8.31
652.279	3.31
652.312	13.31
652.345	-2.69
652.378	19.31
652.411	18.31
652.444	-7.69
652.477	3.31
652.51	1.31
652.543	-2.69
652.576	17.31
652.609	-6.69
652.642	2.31
652.675	23.31
652.709	7.31
652.742	9.31
652.775	9.31
652.808	12.31
652.841	-4.69
652.874	4.31
652.907	-12.69
652.94	-4.69
652.973	-7.69
653.006	-7.69
653.039	-5.69
653.072	12.31
653.105	11.31
653.138	-18.69
653.171	6.31
653.204	1.31
653.237	3.31
653.27	1.31
653.303	13.31
653.336	13.31
653.368	-6.69
653.401	0.31
653.434	-4.69
653.467	-1.69
653.5	-11.69
653.533	7.31
653.566	0.31
653.599	7.31
653.632	2.31
653.665	-13.69
653.698	-14.69
653.731	-9.69
653.764	4.31
653.797	4.31
653.83	2.31
653.863	-0.69
653.896	15.31
653.929	4.31
653.961	4.31
653.994	-10.69
654.027	3.31
654.06	1.31
654.093	10.31
654.126	6.31
654.159	-15.69
654.192	-4.69
654.225	-10.69
654.258	-8.69
654.29	-8.69
654.323	-0.69
654.356	-2.69
654.389	22.31
654.422	1.31
654.455	-6.69
654.488	-3.69
654.521	-26.69
654.553	-15.69
654.586	11.31
654.619	5.31
654.652	4.31
654.685	14.31
654.718	32.31
654.751	22.31
654.783	-11.69
654.816	17.31
654.849	7.31
654.882	6.31
654.915	-3.69
654.948	12.31
654.98	3.31
655.013	-3.69
655.046	2.31
655.079	-0.69
655.112	8.31
655.144	-19.69
655.177	7.31
655.21	21.31
655.243	34.31
655.276	-4.69
655.308	-9.69
655.341	0.31
655.374	21.31
655.407	14.31
655.44	11.31
655.472	27.31
655.505	9.31
655.538	-6.69
655.571	10.31
655.603	4.31
655.636	28.31
655.669	21.31
655.702	23.31
655.734	-3.69
655.767	6.31
655.8	28.31
655.833	17.31
655.865	45.31
655.898	46.31
655.931	36.31
655.964	42.31
655.996	46.31
656.029	53.31
656.062	69.31
656.095	90.31
656.127	54.31
656.16	108.31
656.193	126.31
656.225	181.31
656.258	285.31
656.291	516.31
656.324	1123.31
656.356	3374.31
656.389	7619.31
656.422	6132.31
656.454	2106.31
656.487	667.31
656.52	265.31
656.552	121.31
656.585	62.31
656.618	76.31
656.65	61.31
656.683	30.31
656.716	23.31
656.748	-3.69
656.781	7.31
656.814	5.31
656.846	25.31
656.879	-3.69
656.912	6.31
656.944	-11.69
656.977	-1.69
657.01	8.31
657.042	14.31
657.075	14.31
657.108	4.31
657.14	10.31
657.173	17.31
657.205	29.31
657.238	10.31
657.271	1.31
657.303	-3.69
657.336	-3.69
657.369	2.31
657.401	9.31
657.434	10.31
657.466	7.31
657.499	3.31
657.532	-11.69
657.564	7.31
657.597	4.31
657.629	13.31
657.662	15.31
657.694	5.31
657.727	-9.69
657.76	20.31
657.792	-6.69
657.825	-3.69
657.857	9.31
657.89	3.31
657.922	12.31
657.955	10.31
657.987	4.31
658.02	32.31
658.053	15.31
658.085	8.31
658.118	2.31
658.15	4.31
658.183	27.31
658.215	-12.69
658.248	-9.69
658.28	1.31
658.313	6.31
658.345	11.31
658.378	13.31
658.41	4.31
658.443	10.31
658.475	0.31
658.508	-5.69
658.54	7.31
658.573	7.31
658.605	17.31
658.638	4.31
658.67	6.31
658.703	24.31
658.735	5.31
658.768	13.31
658.8	2.31
658.833	14.31
658.865	3.31
658.898	1.31
658.93	0.31
658.963	-11.69
658.995	-14.69
659.028	21.31
659.06	11.31
659.092	3.31
659.125	-8.69
659.157	6.31
659.19	-2.69
659.222	-7.69
659.255	-0.69
659.287	5.31
659.32	2.31
659.352	15.31
659.384	22.31
659.417	-5.69
659.449	-4.69
659.482	1.31
659.514	-8.69
659.546	15.31
659.579	-18.69
659.611	7.31
659.644	7.31
659.676	-5.69
659.708	1.31
659.741	-7.69
659.773	1.31
659.806	23.31
659.838	21.31
659.87	2.31
659.903	-14.69
659.935	20.31
659.967	13.31
660	7.31
660.032	-12.69
660.065	6.31
660.097	1.31
660.129	-9.69
660.162	-16.69
660.194	7.31
660.226	16.31
660.259	11.31
660.291	-10.69
660.323	-10.69
660.356	8.31
660.388	1.31
660.42	8.31
660.453	15.31
660.485	13.31
660.517	8.31
660.55	9.31
660.582	-1.69
660.614	6.31
660.647	-2.69
660.679	-11.69
660.711	0.31
660.743	-7.69
660.776	-10.69
660.808	-4.69
660.84	-6.69
660.873	-1.69
660.905	-8.69
660.937	-12.69
660.969	-3.69
661.002	5.31
661.034	21.31
661.066	-2.69
661.099	-2.69
661.131	12.31
661.163	12.31
661.195	0.31
661.228	4.31
661.26	-3.69
661.292	-11.69
661.324	3.31
661.357	-7.69
661.389	4.31
661.421	7.31
661.453	4.31
661.485	2.31
661.518	6.31
661.55	-3.69
661.582	-12.69
661.614	-3.69
661.647	4.31
661.679	7.31
661.711	-0.69
661.743	-6.69
661.775	15.31
661.808	14.31
661.84	9.31
661.872	14.31
661.904	6.31
661.936	12.31
661.969	-9.69
662.001	4.31
662.033	5.31
662.065	9.31
662.097	16.31
662.129	17.31
662.162	4.31
662.194	11.31
662.226	4.31
662.258	13.31
662.29	8.31
662.322	-16.69
662.355	-20.69
662.387	15.31
662.419	9.31
662.451	5.31
662.483	21.31
662.515	3.31
662.547	9.31
662.58	11.31
662.612	-18.69
662.644	-21.69
662.676	8.31
662.708	14.31
662.74	1.31
662.772	12.31
662.804	18.31
662.836	3.31
662.869	12.31
662.901	10.31
662.933	9.31
662.965	13.31
662.997	12.31
663.029	-4.69
663.061	-8.69
663.093	-13.69
663.125	7.31
663.157	2.31
663.189	3.31
663.221	19.31
663.254	7.31
663.286	13.31
663.318	28.31
663.35	-3.69
663.382	9.31
663.414	-2.69
663.446	-0.69
663.478	-12.69
663.51	21.31
663.542	1.31
663.574	5.31
663.606	10.31
663.638	-9.69
663.67	-6.69
663.702	-2.69
663.734	1.31
663.766	5.31
663.798	3.31
663.83	5.31
663.862	16.31
663.894	7.31
663.926	-1.69
663.958	4.31
663.99	2.31
664.022	2.31
664.054	5.31
664.086	9.31
664.118	-7.69
664.15	-27.69
664.182	1.31
664.214	-0.69
664.246	25.31
664.278	12.31
664.31	32.31
664.342	21.31
664.374	12.31
664.406	1.31
664.438	0.31
664.47	15.31
664.502	-3.69
664.534	6.31
664.566	-7.69
664.598	7.31
664.63	3.31
664.662	-1.69
664.693	-18.69
664.725	-9.69
664.757	9.31
664.789	-8.69
664.821	2.31
664.853	14.31
664.885	-12.69
664.917	-12.69
664.949	23.31
664.981	10.31
665.013	-3.69
665.045	-7.69
665.076	14.31
665.108	14.31
665.14	-10.69
665.172	4.31
665.204	17.31
665.236	10.31
665.268	8.31
665.3	-10.69
665.331	-10.69
665.363	-3.69
665.395	-12.69
665.427	-10.69
665.459	-14.69
665.491	-6.69
665.523	10.31
665.555	-1.69
665.586	3.31
665.618	-7.69
665.65	-11.69
665.682	10.31
665.714	5.31
665.746	-15.69
665.777	6.31
665.809	-1.69
665.841	8.31
665.873	4.31
665.905	5.31
665.937	11.31
665.968	10.31
666	4.31
666.032	4.31
666.064	8.31
666.096	8.31
666.127	11.31
666.159	9.31
666.191	7.31
666.223	6.31
666.255	17.31
666.286	13.31
666.318	-6.69
666.35	7.31
666.382	-5.69
666.413	-6.69
666.445	-15.69
666.477	-22.69
666.509	0.31
666.54	6.31
666.572	-1.69
666.604	0.31
666.636	-0.69
666.667	17.31
666.699	21.31
666.731	25.31
666.763	-5.69
666.794	-12.69
666.826	3.31
666.858	-6.69
666.89	5.31
666.921	-3.69
666.953	-4.69
666.985	13.31
667.017	19.31
667.048	-1.69
667.08	3.31
667.112	4.31
667.143	-14.69
667.175	4.31
667.207	-10.69
667.238	-12.69
667.27	-7.69
667.302	10.31
667.334	4.31
667.365	7.31
667.397	14.31
667.429	-7.69
667.46	9.31
667.492	5.31
667.524	0.31
667.555	14.31
667.587	-6.69
667.619	5.31
667.65	1.31
667.682	-1.69
667.714	-0.69
667.745	2.31
667.777	-2.69
667.808	18.31
667.84	3.31
667.872	-5.69
667.903	11.31
667.935	14.31
667.967	0.31
667.998	-4.69
668.03	15.31
668.061	20.31
668.093	-9.69
668.125	-4.69
668.156	7.31
668.188	-2.69
668.22	-9.69
668.251	2.31
668.283	6.31
668.314	9.31
668.346	-11.69
668.377	0.31
668.409	2.31
668.441	12.31
668.472	6.31
668.504	23.31
668.535	11.31
668.567	0.31
668.599	-13.69
668.63	3.31
668.662	3.31
668.693	28.31
668.725	-7.69
668.756	6.31
668.788	-6.69
668.819	-1.69
668.851	-2.69
668.882	-0.69
668.914	-5.69
668.946	-13.69
668.977	-20.69
669.009	-4.69
669.04	-11.69
669.072	-2.69
669.103	-0.69
669.135	-9.69
669.166	-0.69
669.198	11.31
669.229	0.31
669.261	-2.69
669.292	-12.69
669.324	7.31
669.355	10.31
669.387	1.31
669.418	5.31
669.45	-7.69
669.481	-4.69
669.513	0.31
669.544	-2.69
669.576	1.31
669.607	6.31
669.639	7.31
669.67	-5.69
669.701	3.31
669.733	-17.69
669.764	-0.69
669.796	-2.69
669.827	2.31
669.859	-13.69
669.89	2.31
669.922	7.31
669.953	8.31
669.985	-3.69
670.016	23.31
670.047	8.31
670.079	-0.69
670.11	4.31
670.142	-8.69
670.173	-10.69
670.204	3.31
670.236	9.31
670.267	-3.69
670.299	-5.69
670.33	3.31
670.362	13.31
670.393	1.31
670.424	6.31
670.456	-7.69
670.487	0.31
670.518	-7.69
670.55	-18.69
670.581	9.31
670.613	1.31
670.644	-0.69
670.675	-1.69
670.707	2.31
670.738	7.31
670.769	2.31
670.801	-5.69
670.832	1.31
670.864	-20.69
670.895	-5.69
670.926	-4.69
670.958	-9.69
670.989	-4.69
671.02	-2.69
671.052	-1.69
671.083	5.31
671.114	-3.69
671.146	-1.69
671.177	6.31
671.208	10.31
671.24	-3.69
671.271	-14.69
671.302	7.31
671.333	-4.69
671.365	2.31
671.396	-5.69
671.427	13.31
671.459	-4.69
671.49	2.31
671.521	12.31
671.553	14.31
671.584	-3.69
671.615	-21.69
671.646	0.31
671.678	-10.69
671.709	1.31
671.74	-8.69
671.771	-13.69
671.803	-8.69
671.834	1.31
671.865	7.31
671.896	9.31
671.928	10.31
671.959	0.31
671.99	10.31
672.021	-5.69
672.053	-23.69
672.084	1.31
672.115	11.31
672.146	0.31
672.178	-13.69
672.209	10.31
672.24	-10.69
672.271	23.31
672.303	0.31
672.334	-9.69
672.365	-0.69
672.396	4.31
672.427	3.31
672.459	5.31
672.49	17.31
672.521	3.31
672.552	16.31
672.583	5.31
672.615	-1.69
672.646	7.31
672.677	-1.69
672.708	6.31
672.739	10.31
672.77	25.31
672.802	15.31
672.833	-12.69
672.864	7.31
672.895	-12.69
672.926	-1.69
672.957	-7.69
672.989	-9.69
673.02	7.31
673.051	-4.69
673.082	6.31
673.113	-15.69
673.144	5.31
673.175	-3.69
673.206	-13.69
673.238	-3.69
673.269	2.31
673.3	7.31
673.331	22.31
673.362	8.31
673.393	19.31
673.424	9.31
673.455	15.31
673.487	2.31
673.518	9.31
673.549	13.31
673.58	-1.69
673.611	4.31
673.642	-5.69
673.673	-4.69
673.704	15.31
673.735	-5.69
673.766	-1.69
673.797	-0.69
673.828	2.31
673.86	-8.69
673.891	-19.69
673.922	-13.69
673.953	1.31
673.984	21.31
674.015	12.31
674.046	-10.69
674.077	2.31
674.108	-2.69
674.139	-0.69
674.17	14.31
674.201	0.31
674.232	-18.69
674.263	-9.69
674.294	5.31
674.325	-13.69
674.356	14.31
674.387	3.31
674.418	4.31
674.449	2.31
674.48	-15.69
674.511	-8.69
674.542	5.31
674.573	-21.69
674.604	0.31
674.635	-4.69
674.666	1.31
674.697	3.31
674.728	-5.69
674.759	-5.69
674.79	-6.69
674.821	2.31
674.852	-9.69
674.883	-15.69
674.914	-13.69
674.945	3.31
674.976	1.31
675.007	-3.69
675.038	-4.69
675.069	-14.69
675.1	3.31
675.131	8.31
675.162	-2.69
675.193	-9.69
675.224	-15.69
675.254	6.31
675.285	3.31
675.316	24.31
675.347	3.31
675.378	-14.69
675.409	6.31
675.44	6.31
675.471	10.31
675.502	-4.69
675.533	5.31
675.564	-11.69
675.595	5.31
675.625	3.31
675.656	11.31
675.687	8.31
675.718	-20.69
675.749	-2.69
675.78	-1.69
675.811	-10.69
675.842	15.31
675.873	9.31
675.903	9.31
675.934	8.31
675.965	1.31
675.996	-3.69
676.027	3.31
676.058	6.31
676.089	-1.69
676.119	-1.69
676.15	-7.69
676.181	20.31
676.212	0.31
676.243	22.31
676.274	-10.69
676.304	31.31
676.335	-9.69
676.366	3.31
676.397	-9.69
676.428	1.31
676.459	1.31
676.489	0.31
676.52	-0.69
676.551	5.31
676.582	-19.69
676.613	6.31
676.643	-0.69
676.674	7.31
676.705	-1.69
676.736	2.31
676.767	0.31
676.797	-3.69
676.828	6.31
676.859	13.31
676.89	3.31
676.92	-1.69
676.951	15.31
676.982	4.31
677.013	-3.69
677.044	19.31
677.074	6.31
677.105	-2.69
677.136	7.31
677.167	-7.69
677.197	8.31
677.228	6.31
677.259	2.31
677.289	-1.69
677.32	-18.69
677.351	-12.69
677.382	1.31
677.412	-20.69
677.443	8.31
677.474	1.31
677.505	-6.69
677.535	-2.69
677.566	7.31
677.597	-10.69
677.627	-9.69
677.658	-8.69
677.689	0.31
677.72	-9.69
677.75	-0.69
677.781	0.31
677.812	-7.69
677.842	20.31
677.873	2.31
677.904	17.31
677.934	4.31
677.965	-3.69
677.996	-5.69
678.026	16.31
678.057	-1.69
678.088	-11.69
678.118	-3.69
678.149	2.31
678.18	-2.69
678.21	3.31
678.241	-0.69
678.272	10.31
678.302	-3.69
678.333	-0.69
678.363	9.31
678.394	9.31
678.425	6.31
678.455	2.31
678.486	14.31
678.517	-7.69
678.547	4.31
678.578	6.31
678.608	-8.69
678.639	9.31
678.67	-3.69
678.7	2.31
678.731	-3.69
678.761	5.31
678.792	16.31
678.823	11.31
678.853	13.31
678.884	-5.69
678.914	-2.69
678.945	23.31
678.975	-8.69
679.006	12.31
679.037	4.31
679.067	24.31
679.098	-4.69
679.128	-18.69
679.159	0.31
679.189	4.31
679.22	-6.69
679.25	6.31
679.281	16.31
679.312	8.31
679.342	-1.69
679.373	20.31
679.403	13.31
679.434	19.31
679.464	-2.69
679.495	14.31
679.525	22.31
679.556	9.31
679.586	1.31
679.617	8.31
679.647	0.31
679.678	-0.69
679.708	4.31
679.739	-2.69
679.769	6.31
679.8	-5.69
679.83	0.31
679.861	-3.69
679.891	-1.69
679.922	-4.69
679.952	0.31
679.983	-0.69
680.013	9.31
680.044	-12.69
680.074	23.31
680.105	3.31
680.135	2.31
680.165	19.31
680.196	6.31
680.226	8.31
680.257	13.31
680.287	24.31
680.318	3.31
680.348	-5.69
680.379	19.31
680.409	2.31
680.439	-8.69
680.47	-3.69
680.5	-3.69
680.531	4.31
680.561	3.31
680.592	0.31
680.622	8.31
680.652	8.31
680.683	20.31
680.713	-4.69
680.744	1.31
680.774	2.31
680.804	16.31
680.835	-4.69
680.865	-8.69
680.896	13.31
680.926	24.31
680.956	6.31
680.987	5.31
681.017	-3.69
681.047	4.31
681.078	-2.69
681.108	2.31
681.139	0.31
681.169	-7.69
681.199	-9.69
681.23	6.31
681.26	-3.69
681.29	4.31
681.321	-0.69
681.351	-1.69
681.381	-9.69
681.412	-4.69
681.442	-0.69
681.472	11.31
681.503	2.31
681.533	6.31
681.563	9.31
681.594	-6.69
681.624	-0.69
681.654	2.31
681.685	3.31
681.715	3.31
681.745	8.31
681.775	-6.69
681.806	-5.69
681.836	-6.69
681.866	-6.69
681.897	-3.69
681.927	-9.69
681.957	-9.69
681.987	1.31
682.018	4.31
682.048	12.31
682.078	12.31
682.109	8.31
682.139	8.31
682.169	8.31
682.199	0.31
682.23	-6.69
682.26	-10.69
682.29	7.31
682.32	-1.69
682.351	-11.69
682.381	0.31
682.411	-1.69
682.441	-0.69
682.472	3.31
682.502	-6.69
682.532	4.31
682.562	9.31
682.592	5.31
682.623	9.31
682.653	13.31
682.683	-1.69
682.713	8.31
682.743	2.31
682.774	-2.69
682.804	15.31
682.834	15.31
682.864	4.31
682.894	-6.69
682.925	-10.69
682.955	-0.69
682.985	3.31
683.015	13.31
683.045	0.31
683.076	-25.69
683.106	-1.69
683.136	9.31
683.166	12.31
683.196	-10.69
683.226	-5.69
683.257	-2.69
683.287	-4.69
683.317	-3.69
683.347	-10.69
683.377	-2.69
683.407	2.31
683.437	-4.69
683.468	3.31
683.498	2.31
683.528	6.31
683.558	3.31
683.588	-9.69
683.618	3.31
683.648	2.31
683.678	-6.69
683.708	-2.69
683.739	-4.69
683.769	0.31
683.799	2.31
683.829	-10.69
683.859	5.31
683.889	24.31
683.919	8.31
683.949	3.31
683.979	9.31
684.009	2.31
684.039	-4.69
684.07	-9.69
684.1	15.31
684.13	2.31
684.16	0.31
684.19	8.31
684.22	-2.69
684.25	13.31
684.28	-14.69
684.31	16.31
684.34	11.31
684.37	-0.69
684.4	4.31
684.43	17.31
684.46	15.31
684.49	5.31
684.52	2.31
684.55	7.31
684.58	-8.69
684.61	-8.69
684.64	10.31
684.67	-0.69
684.7	5.31
684.73	21.31
684.76	7.31
684.79	14.31
684.82	4.31
684.85	-1.69
684.88	19.31
684.91	3.31
684.94	0.31
684.97	5.31
685	0.31
685.03	-11.69
685.06	-4.69
685.09	-2.69
685.12	12.31
685.15	-6.69
685.18	13.31
685.21	14.31
685.24	25.31
685.27	26.31
685.3	-5.69
685.33	21.31
685.36	-14.69
685.39	-4.69
685.42	-5.69
685.45	-10.69
685.48	2.31
685.51	-8.69
685.54	8.31
685.569	19.31
685.599	1.31
685.629	4.31
685.659	-2.69
685.689	3.31
685.719	-10.69
685.749	-5.69
685.779	9.31
685.809	4.31
685.839	2.31
685.869	20.31
685.898	-12.69
685.928	-5.69
685.958	-7.69
685.988	15.31
686.018	3.31
686.048	16.31
686.078	19.31
686.108	9.31
686.137	5.31
686.167	19.31
686.197	-20.69
686.227	1.31
686.257	28.31
686.287	8.31
686.317	7.31
686.346	5.31
686.376	-7.69
686.406	-11.69
686.436	5.31
686.466	-4.69
686.496	2.31
686.525	-3.69
686.555	-10.69
686.585	14.31
686.615	28.31
686.645	-1.69
686.675	9.31
686.704	18.31
686.734	18.31
686.764	-9.69
686.794	-7.69
686.824	-6.69
686.853	5.31
686.883	19.31
686.913	9.31
686.943	-4.69
686.973	2.31
687.002	8.31
687.032	3.31
687.062	-7.69
687.092	28.31
687.121	8.31
687.151	-4.69
687.181	7.31
687.211	7.31
687.24	-0.69
687.27	3.31
687.3	3.31
687.33	-1.69
687.359	-1.69
687.389	1.31
687.419	4.31
687.449	-2.69
687.478	-4.69
687.508	6.31
687.538	4.31
687.568	9.31
687.597	-6.69
687.627	9.31
687.657	3.31
687.686	-9.69
687.716	26.31
687.746	-0.69
687.776	-19.69
687.805	16.31
687.835	-1.69
687.865	19.31
687.894	8.31
687.924	0.31
687.954	-2.69
687.983	6.31
688.013	6.31
688.043	8.31
688.072	-19.69
688.102	5.31
688.132	4.31
688.161	-0.69
688.191	-4.69
688.221	17.31
688.25	-2.69
688.28	8.31
688.31	-2.69
688.339	13.31
688.369	3.31
688.399	-2.69
688.428	-6.69
688.458	-6.69
688.488	9.31
688.517	14.31
688.547	-2.69
688.576	26.31
688.606	17.31
688.636	-3.69
688.665	4.31
688.695	20.31
688.725	13.31
688.754	9.31
688.784	-0.69
688.813	6.31
688.843	0.31
688.873	-0.69
688.902	-2.69
688.932	-0.69
688.961	3.31
688.991	4.31
689.02	1.31
689.05	-7.69
689.08	13.31
689.109	8.31
689.139	-3.69
689.168	3.31
689.198	-10.69
689.227	-9.69
689.257	6.31
689.287	1.31
689.316	2.31
689.346	-8.69
689.375	-13.69
689.405	5.31
689.434	16.31
689.464	3.31
689.493	4.31
689.523	-2.69
689.552	0.31
689.582	-4.69
689.611	7.31
689.641	7.31
689.67	9.31
689.7	8.31
689.73	10.31
689.759	11.31
689.789	6.31
689.818	13.31
689.848	1.31
689.877	15.31
689.906	-2.69
689.936	-15.69
689.965	-7.69
689.995	-4.69
690.024	8.31
690.054	0.31
690.083	7.31
690.113	-6.69
690.142	6.31
690.172	5.31
690.201	8.31
690.231	-2.69
690.26	3.31
690.29	-8.69
690.319	3.31
690.348	-1.69
690.378	3.31
690.407	5.31
690.437	2.31
690.466	1.31
690.496	-10.69
690.525	5.31
690.555	4.31
690.584	-9.69
690.613	0.31
690.643	23.31
690.672	17.31
690.702	-2.69
690.731	-1.69
690.76	5.31
690.79	-4.69
690.819	-13.69
690.849	11.31
690.878	5.31
690.907	6.31
690.937	6.31
690.966	23.31
690.996	-3.69
691.025	3.31
691.054	9.31
691.084	11.31
691.113	0.31
691.142	9.31
691.172	14.31
691.201	18.31
691.23	2.31
691.26	3.31
691.289	4.31
691.319	3.31
691.348	-1.69
691.377	17.31
691.407	4.31
691.436	11.31
691.465	-6.69
691.495	-8.69
691.524	-8.69
691.553	-9.69
691.583	-0.69
691.612	24.31
691.641	5.31
691.67	-14.69
691.7	11.31
691.729	-4.69
691.758	-8.69
691.788	5.31
691.817	-3.69
691.846	10.31
691.876	8.31
691.905	2.31
691.934	0.31
691.963	12.31
691.993	4.31
692.022	-1.69
692.051	-11.69
692.081	7.31
692.11	16.31
692.139	4.31
692.168	14.31
692.198	21.31
692.227	9.31
692.256	19.31
692.285	-8.69
692.315	4.31
692.344	-2.69
692.373	11.31
692.402	-17.69
692.432	-6.69
692.461	5.31
692.49	0.31
692.519	-7.69
692.548	9.31
692.578	24.31
692.607	2.31
692.636	-7.69
692.665	29.31
692.694	-3.69
692.724	-9.69
692.753	11.31
692.782	16.31
692.811	3.31
692.84	-7.69
692.87	10.31
692.899	5.31
692.928	-6.69
692.957	-3.69
692.986	-5.69
693.016	3.31
693.045	9.31
693.074	18.31
693.103	8.31
693.132	9.31
693.161	15.31
693.191	-3.69
693.22	-8.69
693.249	2.31
693.278	-0.69
693.307	19.31
693.336	-5.69
693.365	-16.69
693.395	-7.69
693.424	6.31
693.453	31.31
693.482	9.31
693.511	9.31
693.54	17.31
693.569	3.31
693.598	4.31
693.628	14.31
693.657	24.31
693.686	32.31
693.715	2.31
693.744	6.31
693.773	23.31
693.802	9.31
693.831	4.31
693.86	21.31
693.889	1.31
693.919	4.31
693.948	2.31
693.977	14.31
694.006	16.31
694.035	1.31
694.064	-3.69
694.093	-6.69
694.122	-0.69
694.151	5.31
694.18	1.31
694.209	20.31
694.238	-3.69
694.267	21.31
694.296	32.31
694.325	12.31
694.354	18.31
694.383	7.31
694.412	9.31
694.441	-14.69
694.471	2.31
694.5	-3.69
694.529	-0.69
694.558	37.31
694.587	26.31
694.616	4.31
694.645	-2.69
694.674	11.31
694.703	8.31
694.732	-3.69
694.761	15.31
694.79	21.31
694.819	1.31
694.848	8.31
694.877	11.31
694.906	26.31
694.935	11.31
694.963	19.31
694.992	2.31
695.021	2.31
695.05	10.31
695.079	10.31
695.108	-2.69
695.137	8.31
695.166	7.31
695.195	-11.69
695.224	7.31
695.253	-3.69
695.282	1.31
695.311	18.31
695.34	-1.69
695.369	21.31
695.398	14.31
695.427	21.31
695.456	10.31
695.485	23.31
695.513	7.31
695.542	3.31
695.571	-1.69
695.6	38.31
695.629	-3.69
695.658	8.31
695.687	-7.69
695.716	5.31
695.745	40.31
695.774	7.31
695.802	1.31
695.831	4.31
695.86	6.31
695.889	9.31
695.918	5.31
695.947	-6.69
695.976	11.31
696.005	9.31
696.033	4.31
696.062	29.31
696.091	13.31
696.12	20.31
696.149	9.31
696.178	10.31
696.207	8.31
696.235	-8.69
696.264	11.31
696.293	1.31
696.322	11.31
696.351	19.31
696.38	2.31
696.408	9.31
696.437	10.31
696.466	19.31
696.495	21.31
696.524	18.31
696.553	7.31
696.581	21.31
696.61	6.31
696.639	4.31
696.668	9.31
696.697	-1.69
696.725	21.31
696.754	17.31
696.783	3.31
696.812	6.31
696.84	5.31
696.869	17.31
696.898	10.31
696.927	21.31
696.956	26.31
696.984	0.31
697.013	17.31
697.042	-1.69
697.071	15.31
697.099	23.31
697.128	33.31
697.157	-9.69
697.186	14.31
697.214	-2.69
697.243	2.31
697.272	-4.69
697.301	0.31
697.329	11.31
697.358	17.31
697.387	14.31
697.415	14.31
697.444	11.31
697.473	6.31
697.502	-3.69
697.53	15.31
697.559	12.31
697.588	4.31
697.616	3.31
697.645	-9.69
697.674	10.31
697.703	6.31
697.731	15.31
697.76	1.31
697.789	5.31
697.817	6.31
697.846	8.31
697.875	-6.69
697.903	24.31
697.932	22.31
697.961	-5.69
697.989	6.31
698.018	12.31
698.047	17.31
698.075	12.31
698.104	1.31
698.133	5.31
698.161	-2.69
698.19	-3.69
698.218	-0.69
698.247	12.31
698.276	-1.69
698.304	2.31
698.333	5.31
698.362	6.31
698.39	8.31
698.419	13.31
698.447	-7.69
698.476	1.31
698.505	13.31
698.533	1.31
698.562	6.31
698.591	-11.69
698.619	-4.69
698.648	12.31
698.676	7.31
698.705	5.31
698.733	-3.69
698.762	10.31
698.791	5.31
698.819	3.31
698.848	3.31
698.876	15.31
698.905	16.31
698.933	19.31
698.962	14.31
698.991	13.31
699.019	12.31
699.048	3.31
699.076	15.31
699.105	7.31
699.133	-3.69
699.162	3.31
699.19	6.31
699.219	14.31
699.248	-1.69
699.276	8.31
699.305	0.31
699.333	19.31
699.362	1.31
699.39	12.31
699.419	-5.69
699.447	20.31
699.476	10.31
699.504	9.31
699.533	12.31
699.561	-3.69
699.59	0.31
699.618	0.31
699.647	15.31
699.675	0.31
699.704	1.31
699.732	9.31
699.761	8.31
699.789	4.31
699.818	0.31
699.846	3.31
699.874	5.31
699.903	4.31
699.931	10.31
699.96	9.31
699.988	-9.69
700.017	-5.69
700.045	-7.69
700.074	0.31
700.102	-3.69
700.13	5.31
700.159	15.31
700.187	6.31
700.216	-1.69
700.244	2.31
700.273	0.31
700.301	14.31
700.329	12.31
700.358	6.31
700.386	2.31
700.415	3.31
700.443	1.31
700.472	-6.69
700.5	11.31
700.528	7.31
700.557	-2.69
700.585	-5.69
700.614	-2.69
700.642	10.31
700.67	32.31
700.699	10.31
700.727	-0.69
700.755	18.31
700.784	1.31
700.812	-7.69
700.841	11.31
700.869	4.31
700.897	-5.69
700.926	-0.69
700.954	16.31
700.982	15.31
701.011	8.31
701.039	11.31
701.067	-1.69
701.096	9.31
701.124	-6.69
701.152	6.31
701.181	5.31
701.209	-6.69
701.237	1.31
701.266	0.31
701.294	3.31
701.322	13.31
701.351	13.31
701.379	8.31
701.407	4.31
701.435	1.31
701.464	2.31
701.492	28.31
701.52	-2.69
701.549	-0.69
701.577	-1.69
701.605	1.31
701.634	9.31
701.662	22.31
701.69	-15.69
701.718	-7.69
701.747	6.31
701.775	-14.69
701.803	-13.69
701.831	9.31
701.86	1.31
701.888	18.31
701.916	6.31
701.944	8.31
701.973	-10.69
702.001	-11.69
702.029	-9.69
702.057	-9.69
702.086	-0.69
702.114	-4.69
702.142	8.31
702.17	-5.69
702.199	-14.69
702.227	3.31
702.255	13.31
702.283	1.31
702.311	6.31
702.34	9.31
702.368	-1.69
702.396	-3.69
702.424	8.31
702.452	1.31
702.481	-0.69
702.509	1.31
702.537	-1.69
702.565	12.31
702.593	-6.69
702.621	7.31
702.65	3.31
702.678	4.31
702.706	5.31
702.734	-14.69
702.762	-4.69
702.79	10.31
702.819	2.31
702.847	3.31
702.875	20.31
702.903	0.31
702.931	-5.69
702.959	6.31
702.988	1.31
703.016	-17.69
703.044	-3.69
703.072	-3.69
703.1	8.31
703.128	-2.69
703.156	5.31
703.184	-9.69
703.212	21.31
703.241	11.31
703.269	21.31
703.297	11.31
703.325	-4.69
703.353	-11.69
703.381	-10.69
703.409	8.31
703.437	-18.69
703.465	8.31
703.493	8.31
703.522	16.31
703.55	4.31
703.578	13.31
703.606	-7.69
703.634	-4.69
703.662	4.31
703.69	-1.69
703.718	-2.69
703.746	19.31
703.774	-3.69
703.802	13.31
703.83	1.31
703.858	-1.69
703.886	-6.69
703.914	-23.69
703.942	8.31
703.97	-12.69
703.998	1.31
704.027	14.31
704.055	12.31
704.083	20.31
704.111	-0.69
704.139	4.31
704.167	3.31
704.195	1.31
704.223	7.31
704.251	0.31
704.279	12.31
704.307	4.31
704.335	-24.69
704.363	-3.69
704.391	-12.69
704.419	2.31
704.447	-10.69
704.475	2.31
704.503	4.31
704.531	15.31
704.558	3.31
704.586	-4.69
704.614	21.31
704.642	12.31
704.67	-7.69
704.698	5.31
704.726	9.31
704.754	-0.69
704.782	-2.69
704.81	-1.69
704.838	6.31
704.866	26.31
704.894	2.31
704.922	4.31
704.95	17.31
704.978	15.31
705.006	13.31
705.034	18.31
705.061	-3.69
705.089	-11.69
705.117	-17.69
705.145	-21.69
705.173	-1.69
705.201	12.31
705.229	9.31
705.257	-3.69
705.285	2.31
705.313	5.31
705.34	-8.69
705.368	5.31
705.396	9.31
705.424	17.31
705.452	2.31
705.48	-6.69
705.508	-2.69
705.536	4.31
705.563	-15.69
705.591	4.31
705.619	9.31
705.647	-21.69
705.675	14.31
705.703	21.31
705.731	5.31
705.758	7.31
705.786	8.31
705.814	19.31
705.842	13.31
705.87	23.31
705.898	15.31
705.925	-3.69
705.953	4.31
705.981	4.31
706.009	-6.69
706.037	-1.69
706.065	3.31
706.092	-4.69
706.12	14.31
706.148	-10.69
706.176	15.31
706.204	5.31
706.231	-2.69
706.259	2.31
706.287	1.31
706.315	4.31
706.342	8.31
706.37	15.31
706.398	8.31
706.426	-4.69
706.454	14.31
706.481	12.31
706.509	3.31
706.537	-0.69
706.565	-4.69
706.592	11.31
706.62	-13.69
706.648	3.31
706.676	0.31
706.703	4.31
706.731	6.31
706.759	-1.69
706.787	10.31
706.814	1.31
706.842	13.31
706.87	-0.69
706.897	-1.69
706.925	7.31
706.953	18.31
706.981	10.31
707.008	14.31
707.036	0.31
707.064	4.31
707.091	-18.69
707.119	10.31
707.147	5.31
707.174	4.31
707.202	2.31
707.23	-21.69
707.258	-0.69
707.285	-11.69
707.313	-6.69
707.341	-0.69
707.368	-1.69
707.396	5.31
707.424	16.31
707.451	8.31
707.479	11.31
707.507	3.31
707.534	11.31
707.562	11.31
707.59	-11.69
707.617	-7.69
707.645	5.31
707.672	-1.69
707.7	-7.69
707.728	11.31
707.755	8.31
707.783	-1.69
707.811	4.31
707.838	3.31
707.866	5.31
707.893	-1.69
707.921	1.31
707.949	5.31
707.976	6.31
708.004	9.31
708.031	1.31
708.059	5.31
708.087	-7.69
708.114	-2.69
708.142	-4.69
708.169	-16.69
708.197	-4.69
708.225	5.31
708.252	-1.69
708.28	6.31
708.307	-7.69
708.335	-6.69
708.362	0.31
708.39	-6.69
708.418	-2.69
708.445	-4.69
708.473	0.31
708.5	3.31
708.528	-1.69
708.555	8.31
708.583	-3.69
708.61	3.31
708.638	9.31
708.665	-4.69
708.693	3.31
708.72	5.31
708.748	-6.69
708.776	3.31
708.803	15.31
708.831	-1.69
708.858	24.31
708.886	-5.69
708.913	5.31
708.941	-8.69
708.968	19.31
708.996	1.31
709.023	32.31
709.051	-1.69
709.078	4.31
709.105	-0.69
709.133	12.31
709.16	20.31
709.188	8.31
709.215	-10.69
709.243	0.31
709.27	-8.69
709.298	-18.69
709.325	-7.69
709.353	-2.69
709.38	11.31
709.408	7.31
709.435	14.31
709.462	11.31
709.49	1.31
709.517	-1.69
709.545	5.31
709.572	1.31
709.6	11.31
709.627	9.31
709.655	-2.69
709.682	4.31
709.709	5.31
709.737	-3.69
709.764	5.31
709.792	14.31
709.819	5.31
709.846	-9.69
709.874	6.31
709.901	16.31
709.929	9.31
709.956	10.31
709.983	8.31
710.011	-2.69
710.038	-7.69
710.066	3.31
710.093	13.31
710.12	12.31
710.148	3.31
710.175	-9.69
710.202	-2.69
710.23	-14.69
710.257	-11.69
710.284	18.31
710.312	-1.69
710.339	-6.69
710.366	4.31
710.394	5.31
710.421	18.31
710.448	4.31
710.476	-4.69
710.503	12.31
710.53	11.31
710.558	10.31
710.585	1.31
710.612	-4.69
710.64	-1.69
710.667	-0.69
710.694	-3.69
710.722	6.31
710.749	23.31
710.776	8.31
710.804	23.31
710.831	5.31
710.858	-11.69
710.885	-14.69
710.913	8.31
710.94	29.31
710.967	-1.69
710.995	-7.69
711.022	-4.69
711.049	14.31
711.076	-1.69
711.104	9.31
711.131	-10.69
711.158	5.31
711.185	31.31
711.213	-6.69
711.24	6.31
711.267	2.31
711.294	7.31
711.322	9.31
711.349	0.31
711.376	-19.69
711.403	7.31
711.431	0.31
711.458	-10.69
711.485	-7.69
711.512	3.31
711.54	9.31
711.567	2.31
711.594	-4.69
711.621	-2.69
711.648	9.31
711.676	8.31
711.703	8.31
711.73	-1.69
711.757	6.31
711.784	12.31
711.812	13.31
711.839	21.31
711.866	-2.69
711.893	-7.69
711.92	-2.69
711.947	12.31
711.975	12.31
712.002	-3.69
712.029	7.31
712.056	16.31
712.083	19.31
712.11	-11.69
712.138	-4.69
712.165	5.31
712.192	2.31
712.219	-15.69
712.246	-3.69
712.273	-9.69
712.3	-8.69
712.328	-1.69
712.355	-2.69
712.382	-10.69
712.409	13.31
712.436	-25.69
712.463	4.31
712.49	-4.69
712.517	-2.69
712.544	-11.69
712.572	10.31
712.599	0.31
712.626	9.31
712.653	1.31
712.68	-13.69
712.707	21.31
712.734	16.31
712.761	-8.69
712.788	9.31
712.815	1.31
712.842	15.31
712.87	4.31
712.897	-10.69
712.924	-15.69
712.951	-10.69
712.978	10.31
713.005	16.31
713.032	16.31
713.059	-14.69
713.086	-1.69
713.113	-7.69
713.14	-2.69
713.167	11.31
713.194	17.31
713.221	-11.69
713.248	8.31
713.275	0.31
713.302	-1.69
713.329	1.31
713.356	10.31
713.383	0.31
713.41	12.31
713.437	10.31
713.464	-4.69
713.491	19.31
713.518	18.31
713.545	-3.69
713.572	8.31
713.599	20.31
713.626	1.31
713.653	6.31
713.68	-9.69
713.707	1.31
713.734	-4.69
713.761	1.31
713.788	17.31
713.815	11.31
713.842	-6.69
713.869	1.31
713.896	4.31
713.923	10.31
713.95	-3.69
713.977	-0.69
714.004	-2.69
714.031	-1.69
714.058	0.31
714.085	-7.69
714.112	10.31
714.139	-7.69
714.165	5.31
714.192	1.31
714.219	-8.69
714.246	6.31
714.273	5.31
714.3	-7.69
714.327	0.31
714.354	14.31
714.381	4.31
714.408	0.31
714.435	1.31
714.461	8.31
714.488	7.31
714.515	-13.69
714.542	-21.69
714.569	-2.69
714.596	-13.69
714.623	-4.69
714.65	-10.69
714.677	3.31
714.703	-5.69
714.73	3.31
714.757	16.31
714.784	11.31
714.811	-8.69
714.838	5.31
714.865	-0.69
714.891	6.31
714.918	-3.69
714.945	-11.69
714.972	-8.69
714.999	1.31
715.026	-0.69
715.052	15.31
715.079	5.31
715.106	-4.69
715.133	12.31
715.16	-21.69
715.187	6.31
715.213	10.31
715.24	-5.69
715.267	3.31
715.294	5.31
715.321	-14.69
715.347	-2.69
715.374	2.31
715.401	2.31
715.428	10.31
715.455	12.31
715.481	0.31
715.508	13.31
715.535	-2.69
715.562	18.31
715.588	-5.69
715.615	19.31
715.642	-14.69
715.669	10.31
715.695	4.31
715.722	-5.69
715.749	8.31
715.776	10.31
715.802	2.31
715.829	1.31
715.856	-5.69
715.883	12.31
715.909	0.31
715.936	-9.69
715.963	-9.69
715.99	-4.69
716.016	4.31
716.043	26.31
716.07	-8.69
716.096	3.31
716.123	-1.69
716.15	2.31
716.177	11.31
716.203	31.31
716.23	13.31
716.257	8.31
716.283	22.31
716.31	3.31
716.337	1.31
716.363	-11.69
716.39	7.31
716.417	10.31
716.443	0.31
716.47	10.31
716.497	13.31
716.523	19.31
716.55	2.31
716.577	13.31
716.603	1.31
716.63	5.31
716.657	17.31
716.683	4.31
716.71	-0.69
716.737	-2.69
716.763	-2.69
716.79	5.31
716.817	9.31
716.843	0.31
716.87	-8.69
716.897	-22.69
716.923	13.31
716.95	-2.69
716.976	2.31
717.003	3.31
717.03	9.31
717.056	3.31
717.083	4.31
717.109	3.31
717.136	2.31
717.163	-14.69
717.189	5.31
717.216	-18.69
717.242	-4.69
717.269	-2.69
717.296	7.31
717.322	15.31
717.349	12.31
717.375	5.31
717.402	-3.69
717.428	5.31
717.455	1.31
717.481	5.31
717.508	4.31
717.535	14.31
717.561	4.31
717.588	-2.69
717.614	1.31
717.641	3.31
717.667	2.31
717.694	5.31
717.72	0.31
717.747	4.31
717.773	-11.69
717.8	-1.69
717.826	-1.69
717.853	2.31
717.88	11.31
717.906	15.31
717.933	1.31
717.959	0.31
717.986	10.31
718.012	-1.69
718.039	11.31
718.065	7.31
718.092	9.31
718.118	4.31
718.144	-2.69
718.171	13.31
718.197	14.31
718.224	12.31
718.25	10.31
718.277	16.31
718.303	0.31
718.33	10.31
718.356	-2.69
718.383	-8.69
718.409	-15.69
718.436	-6.69
718.462	-6.69
718.489	-5.69
718.515	12.31
718.541	11.31
718.568	18.31
718.594	1.31
718.621	19.31
718.647	5.31
718.674	23.31
718.7	20.31
718.726	-4.69
718.753	8.31
718.779	-1.69
718.806	1.31
718.832	12.31
718.858	7.31
718.885	-0.69
718.911	-0.69
718.938	1.31
718.964	-4.69
718.99	22.31
719.017	13.31
719.043	5.31
719.07	20.31
719.096	-5.69
719.122	11.31
719.149	5.31
719.175	13.31
719.201	7.31
719.228	4.31
719.254	-7.69
719.281	-11.69
719.307	-2.69
719.333	0.31
719.36	4.31
719.386	3.31
719.412	4.31
719.439	3.31
719.465	4.31
719.491	2.31
719.518	10.31
719.544	-11.69
719.57	12.31
719.597	20.31
719.623	-11.69
719.649	7.31
719.675	2.31
719.702	-5.69
719.728	6.31
719.754	-4.69
719.781	-11.69
719.807	0.31
719.833	-2.69
719.86	-3.69
719.886	4.31
719.912	14.31
719.938	5.31
719.965	-0.69
719.991	8.31
720.017	0.31
720.044	-17.69
720.07	-4.69
720.096	7.31
720.122	-2.69
720.149	-3.69
720.175	29.31
720.201	-3.69
720.227	-11.69
720.254	1.31
720.28	-6.69
720.306	-4.69
720.332	-5.69
720.359	3.31
720.385	-3.69
720.411	14.31
720.437	2.31
720.463	-8.69
720.49	4.31
720.516	1.31
720.542	5.31
720.568	4.31
720.595	29.31
720.621	12.31
720.647	21.31
720.673	16.31
720.699	1.31
720.725	6.31
720.752	8.31
720.778	0.31
720.804	19.31
720.83	14.31
720.856	1.31
720.883	-13.69
720.909	7.31
720.935	20.31
720.961	22.31
720.987	9.31
721.013	22.31
721.04	-2.69
721.066	-10.69
721.092	-3.69
721.118	11.31
721.144	3.31
721.17	2.31
721.196	8.31
721.223	-14.69
721.249	1.31
721.275	13.31
721.301	0.31
721.327	18.31
721.353	-2.69
721.379	1.31
721.405	21.31
721.432	18.31
721.458	2.31
721.484	13.31
721.51	-7.69
721.536	11.31
721.562	13.31
721.588	1.31
721.614	-6.69
721.64	13.31
721.666	4.31
721.693	-8.69
721.719	0.31
721.745	5.31
721.771	1.31
721.797	3.31
721.823	15.31
721.849	25.31
721.875	10.31
721.901	1.31
721.927	2.31
721.953	-2.69
721.979	24.31
722.005	17.31
722.031	2.31
722.057	3.31
722.083	-5.69
722.109	-6.69
722.135	12.31
722.161	-4.69
722.187	0.31
722.214	-6.69
722.24	8.31
722.266	9.31
722.292	8.31
722.318	5.31
722.344	4.31
722.37	11.31
722.396	0.31
722.422	-2.69
722.448	3.31
722.474	-3.69
722.5	20.31
722.526	-6.69
722.552	1.31
722.578	2.31
722.603	1.31
722.629	-7.69
722.655	6.31
722.681	16.31
722.707	1.31
722.733	10.31
722.759	4.31
722.785	6.31
722.811	19.31
722.837	15.31
722.863	11.31
722.889	6.31
722.915	-2.69
722.941	5.31
722.967	1.31
722.993	4.31
723.019	5.31
723.045	15.31
723.071	-1.69
723.097	-1.69
723.122	1.31
723.148	-23.69
723.174	-3.69
723.2	4.31
723.226	-5.69
723.252	-3.69
723.278	7.31
723.304	0.31
723.33	13.31
723.356	2.31
723.381	-5.69
723.407	-10.69
723.433	7.31
723.459	-2.69
723.485	9.31
723.511	26.31
723.537	-11.69
723.563	-6.69
723.588	-4.69
723.614	7.31
723.64	1.31
723.666	4.31
723.692	10.31
723.718	1.31
723.744	-5.69
723.769	-0.69
723.795	-3.69
723.821	-3.69
723.847	-3.69
723.873	14.31
723.899	8.31
723.924	-1.69
723.95	-3.69
723.976	-2.69
724.002	8.31
724.028	12.31
724.053	10.31
724.079	0.31
724.105	5.31
724.131	-1.69
724.157	-12.69
724.182	13.31
724.208	7.31
724.234	3.31
724.26	-0.69
724.286	19.31
724.311	6.31
724.337	0.31
724.363	-2.69
724.389	-5.69
724.415	-3.69
724.44	12.31
724.466	16.31
724.492	-4.69
724.518	3.31
724.543	-2.69
724.569	-1.69
724.595	13.31
724.621	-1.69
724.646	-6.69
724.672	-0.69
724.698	-4.69
724.723	5.31
724.749	9.31
724.775	1.31
724.801	-0.69
724.826	3.31
724.852	11.31
724.878	-4.69
724.904	-15.69
724.929	-0.69
724.955	-5.69
724.981	7.31
725.006	4.31
725.032	-1.69
725.058	-14.69
725.083	-6.69
725.109	6.31
725.135	8.31
725.161	7.31
725.186	4.31
725.212	-5.69
725.238	-4.69
725.263	-5.69
725.289	-5.69
725.315	-7.69
725.34	-7.69
725.366	12.31
725.392	5.31
725.417	-5.69
725.443	3.31
725.468	4.31
725.494	14.31
725.52	21.31
725.545	17.31
725.571	-5.69
725.597	5.31
725.622	14.31
725.648	5.31
725.674	17.31
725.699	20.31
725.725	1.31
725.75	20.31
725.776	-5.69
725.802	-0.69
725.827	5.31
725.853	-5.69
725.878	4.31
725.904	-10.69
725.93	-17.69
725.955	-7.69
725.981	5.31
726.006	-1.69
726.032	5.31
726.057	-1.69
726.083	9.31
726.109	6.31
726.134	0.31
726.16	10.31
726.185	10.31
726.211	0.31
726.236	12.31
726.262	0.31
726.288	1.31
726.313	17.31
726.339	13.31
726.364	-7.69
726.39	9.31
726.415	0.31
726.441	1.31
726.466	-2.69
726.492	-4.69
726.517	5.31
726.543	-11.69
726.568	-7.69
726.594	-6.69
726.619	-1.69
726.645	1.31
726.67	-3.69
726.696	19.31
726.721	20.31
726.747	-11.69
726.772	0.31
726.798	-1.69
726.823	6.31
726.849	-3.69
726.874	9.31
726.9	25.31
726.925	16.31
726.951	-2.69
726.976	8.31
727.002	0.31
727.027	0.31
727.053	14.31
727.078	-9.69
727.104	1.31
727.129	-7.69
727.155	5.31
727.18	6.31
727.205	1.31
727.231	-6.69
727.256	8.31
727.282	-1.69
727.307	4.31
727.333	3.31
727.358	4.31
727.383	-7.69
727.409	-19.69
727.434	8.31
727.46	7.31
727.485	-0.69
727.511	-3.69
727.536	-2.69
727.561	-18.69
727.587	-25.69
727.612	-13.69
727.637	-5.69
727.663	-11.69
727.688	17.31
727.714	-2.69
727.739	-7.69
727.764	-6.69
727.79	-3.69
727.815	15.31
727.841	19.31
727.866	9.31
727.891	3.31
727.917	-6.69
727.942	-5.69
727.967	-2.69
727.993	-2.69
728.018	2.31
728.043	4.31
728.069	-1.69
728.094	-6.69
728.119	-7.69
728.145	13.31
728.17	0.31
728.195	16.31
728.221	7.31
728.246	-5.69
728.271	-14.69
728.297	-7.69
728.322	9.31
728.347	22.31
728.373	2.31
728.398	-3.69
728.423	15.31
728.448	-5.69
728.474	-10.69
728.499	16.31
728.524	-10.69
728.55	-2.69
728.575	4.31
728.6	-3.69
728.625	-13.69
728.651	20.31
728.676	3.31
728.701	-7.69
728.727	4.31
728.752	-11.69
728.777	-5.69
728.802	-7.69
728.828	-0.69
728.853	0.31
728.878	-6.69
728.903	-2.69
728.929	-0.69
728.954	-2.69
728.979	10.31
729.004	16.31
729.03	-14.69
729.055	10.31
729.08	-9.69
729.105	-3.69
729.13	6.31
729.156	12.31
729.181	0.31
729.206	-3.69
729.231	-4.69
729.256	13.31
729.282	13.31
729.307	-9.69
729.332	-15.69
729.357	3.31
729.382	2.31
729.408	-16.69
729.433	-5.69
729.458	7.31
729.483	10.31
729.508	10.31
729.533	15.31
729.559	1.31
729.584	-18.69
729.609	7.31
729.634	11.31
729.659	-2.69
729.684	-25.69
729.71	11.31
729.735	6.31
729.76	5.31
729.785	14.31
729.81	8.31
729.835	4.31
729.86	-4.69
729.886	3.31
729.911	23.31
729.936	-3.69
729.961	7.31
729.986	2.31
730.011	-4.69
730.036	-10.69
730.061	1.31
730.086	-3.69
730.112	2.31
730.137	10.31
730.162	1.31
730.187	2.31
730.212	9.31
730.237	3.31
730.262	2.31
730.287	5.31
730.312	14.31
730.337	-5.69
730.362	5.31
730.387	-8.69
730.413	-18.69
730.438	-9.69
730.463	2.31
730.488	-3.69
730.513	17.31
730.538	-0.69
730.563	6.31
730.588	7.31
730.613	2.31
730.638	-23.69
730.663	1.31
730.688	21.31
730.713	2.31
730.738	5.31
730.763	8.31
730.788	-1.69
730.813	8.31
730.838	5.31
730.863	-1.69
730.888	5.31
730.913	-9.69
730.938	-18.69
730.963	-1.69
730.988	10.31
731.013	19.31
731.038	-5.69
731.063	-6.69
731.088	3.31
731.113	-6.69
731.138	-7.69
731.163	0.31
731.188	0.31
731.213	9.31
731.238	4.31
731.263	-10.69
731.288	-3.69
731.313	1.31
731.338	-4.69
731.363	-10.69
731.388	-5.69
731.413	-7.69
731.438	2.31
731.463	1.31
731.487	-1.69
731.512	-1.69
731.537	0.31
731.562	-5.69
731.587	-2.69
731.612	-3.69
731.637	-1.69
731.662	-9.69
731.687	-0.69
731.712	-13.69
731.737	11.31
731.762	-7.69
731.786	4.31
731.811	-7.69
731.836	20.31
731.861	-13.69
731.886	0.31
731.911	12.31
731.936	10.31
731.961	-5.69
731.986	2.31
732.01	0.31
732.035	18.31
732.06	17.31
732.085	0.31
732.11	-5.69
732.135	-5.69
732.16	2.31
732.184	8.31
732.209	1.31
732.234	15.31
732.259	-6.69
732.284	19.31
732.309	-13.69
732.334	-2.69
732.358	-19.69
732.383	-18.69
732.408	-3.69
732.433	10.31
732.458	4.31
732.482	-7.69
732.507	-3.69
732.532	13.31
732.557	10.31
732.582	17.31
732.607	0.31
732.631	-7.69
732.656	0.31
732.681	16.31
732.706	16.31
732.73	2.31
732.755	2.31
732.78	-2.69
732.805	-9.69
732.83	3.31
732.854	-1.69
732.879	9.31
732.904	-3.69
732.929	-0.69
732.953	9.31
732.978	9.31
733.003	-0.69
733.028	-10.69
733.052	10.31
733.077	9.31
733.102	9.31
733.127	-4.69
733.151	-8.69
733.176	14.31
733.201	6.31
733.226	-0.69
733.25	8.31
733.275	-4.69
733.3	-2.69
733.324	22.31
733.349	-10.69
733.374	21.31
733.399	8.31
733.423	0.31
733.448	-2.69
733.473	-9.69
733.497	-5.69
733.522	-10.69
733.547	15.31
733.571	28.31
733.596	16.31
733.621	3.31
733.646	8.31
733.67	17.31
733.695	-4.69
733.72	6.31
733.744	5.31
733.769	6.31
733.794	8.31
733.818	4.31
733.843	0.31
733.867	-14.69
733.892	0.31
733.917	6.31
733.941	11.31
733.966	9.31
733.991	11.31
734.015	17.31
734.04	-4.69
734.065	9.31
734.089	26.31
734.114	-10.69
734.138	-2.69
734.163	-0.69
734.188	12.31
734.212	5.31
734.237	1.31
734.261	1.31
734.286	3.31
734.311	-5.69
734.335	6.31
734.36	-4.69
734.384	-12.69
734.409	5.31
734.434	5.31
734.458	4.31
734.483	-3.69
734.507	-11.69
734.532	4.31
734.556	8.31
734.581	2.31
734.606	-3.69
734.63	-9.69
734.655	0.31
734.679	-3.69
734.704	-2.69
734.728	8.31
734.753	0.31
734.777	2.31
734.802	-15.69
734.826	-6.69
734.851	-8.69
734.876	8.31
734.9	11.31
734.925	18.31
734.949	8.31
734.974	-9.69
734.998	8.31
735.023	-14.69
735.047	-9.69
735.072	16.31
735.096	-9.69
735.121	-13.69
735.145	-9.69
735.17	-5.69
735.194	-6.69
735.219	9.31
735.243	0.31
735.268	8.31
735.292	16.31
735.317	4.31
735.341	0.31
735.365	-13.69
735.39	0.31
735.414	-1.69
735.439	-2.69
735.463	4.31
735.488	-3.69
735.512	-9.69
735.537	-20.69
735.561	-8.69
735.586	1.31
735.61	4.31
735.634	-3.69
735.659	4.31
735.683	20.31
735.708	-1.69
735.732	2.31
735.757	-4.69
735.781	-3.69
735.805	8.31
735.83	4.31
735.854	1.31
735.879	0.31
735.903	7.31
735.927	5.31
735.952	0.31
735.976	-11.69
736.001	-22.69
736.025	-7.69
736.049	6.31
736.074	6.31
736.098	1.31
736.123	3.31
736.147	4.31
736.171	5.31
736.196	10.31
736.22	-2.69
736.244	11.31
736.269	6.31
736.293	9.31
736.317	7.31
736.342	10.31
736.366	11.31
736.39	17.31
736.415	11.31
736.439	-11.69
736.463	5.31
736.488	11.31
736.512	0.31
736.536	-6.69
736.561	19.31
736.585	12.31
736.609	14.31
736.634	-13.69
736.658	8.31
736.682	-14.69
736.707	-13.69
736.731	-0.69
736.755	-1.69
736.78	14.31
736.804	13.31
736.828	-6.69
736.852	-15.69
736.877	-2.69
736.901	8.31
736.925	-2.69
736.949	12.31
736.974	-4.69
736.998	-14.69
737.022	5.31
737.047	-2.69
737.071	8.31
737.095	11.31
737.119	26.31
737.144	9.31
737.168	0.31
737.192	-10.69
737.216	-0.69
737.241	-12.69
737.265	-3.69
737.289	-5.69
737.313	-6.69
737.337	1.31
737.362	3.31
737.386	1.31
737.41	0.31
737.434	17.31
737.459	12.31
737.483	6.31
737.507	11.31
737.531	3.31
737.555	-2.69
737.58	9.31
737.604	7.31
737.628	-2.69
737.652	-14.69
737.676	0.31
737.701	-9.69
737.725	-2.69
737.749	15.31
737.773	-5.69
737.797	10.31
737.821	10.31
737.846	8.31
737.87	28.31
737.894	8.31
737.918	-2.69
737.942	-8.69
737.966	9.31
737.99	9.31
738.015	1.31
738.039	-2.69
738.063	5.31
738.087	23.31
738.111	3.31
738.135	15.31
738.159	-1.69
738.184	-1.69
738.208	-5.69
738.232	19.31
738.256	30.31
738.28	10.31
738.304	21.31
738.328	5.31
738.352	16.31
738.376	-5.69
738.4	0.31
738.425	7.31
738.449	-3.69
738.473	22.31
738.497	0.31
738.521	-6.69
738.545	11.31
738.569	13.31
738.593	7.31
738.617	19.31
738.641	12.31
738.665	17.31
738.689	-4.69
738.713	-3.69
738.737	-1.69
738.762	5.31
738.786	-11.69
738.81	-6.69
738.834	14.31
738.858	11.31
738.882	14.31
738.906	1.31
738.93	9.31
738.954	-1.69
738.978	9.31
739.002	-7.69
739.026	20.31
739.05	-3.69
739.074	-2.69
739.098	39.31
739.122	11.31
739.146	9.31
739.17	20.31
739.194	10.31
739.218	0.31
739.242	2.31
739.266	-7.69
739.29	0.31
739.314	2.31
739.338	5.31
739.362	-3.69
739.386	-7.69
739.41	5.31
739.434	9.31
739.458	17.31
739.482	2.31
739.506	2.31
739.53	10.31
739.554	3.31
739.577	-10.69
739.601	3.31
739.625	4.31
739.649	-10.69
739.673	0.31
739.697	12.31
739.721	0.31
739.745	13.31
739.769	-7.69
739.793	-3.69
739.817	16.31
739.841	-1.69
739.865	-1.69
739.889	-15.69
739.912	5.31
739.936	-3.69
739.96	5.31
739.984	9.31
740.008	4.31
740.032	6.31
740.056	-6.69
740.08	2.31
740.104	8.31
740.127	6.31
740.151	6.31
740.175	19.31
740.199	17.31
740.223	57.31
740.247	12.31
740.271	5.31
740.295	10.31
740.318	-9.69
740.342	-3.69
740.366	12.31
740.39	9.31
740.414	-2.69
740.438	-15.69
740.461	10.31
740.485	6.31
740.509	-11.69
740.533	10.31
740.557	-9.69
740.581	-6.69
740.604	-12.69
740.628	-2.69
740.652	7.31
740.676	-2.69
740.7	15.31
740.723	5.31
740.747	-7.69
740.771	8.31
740.795	-2.69
740.819	4.31
740.842	0.31
740.866	20.31
740.89	2.31
740.914	14.31
740.938	-5.69
740.961	5.31
740.985	10.31
741.009	2.31
741.033	15.31
741.056	5.31
741.08	-2.69
741.104	-10.69
741.128	-11.69
741.151	8.31
741.175	2.31
741.199	10.31
741.223	6.31
741.246	-3.69
741.27	4.31
741.294	-2.69
741.318	-10.69
741.341	-2.69
741.365	6.31
741.389	1.31
741.413	0.31
741.436	13.31
741.46	4.31
741.484	14.31
741.507	6.31
741.531	28.31
741.555	16.31
741.579	3.31
741.602	20.31
741.626	9.31
741.65	-5.69
741.673	8.31
741.697	16.31
741.721	16.31
741.744	-11.69
741.768	-2.69
741.792	10.31
741.815	-8.69
741.839	7.31
741.863	32.31
741.886	5.31
741.91	11.31
741.934	12.31
741.957	-6.69
741.981	4.31
742.005	0.31
742.028	-0.69
742.052	4.31
742.075	20.31
742.099	16.31
742.123	-5.69
742.146	5.31
742.17	13.31
742.194	-10.69
742.217	-3.69
742.241	-14.69
742.264	-7.69
742.288	-2.69
742.312	6.31
742.335	-2.69
742.359	9.31
742.382	-0.69
742.406	12.31
742.43	-9.69
742.453	-3.69
742.477	-11.69
742.5	3.31
742.524	5.31
742.548	-7.69
742.571	3.31
742.595	-4.69
742.618	8.31
742.642	-8.69
742.665	5.31
742.689	-2.69
742.712	-7.69
742.736	2.31
742.76	-1.69
742.783	-5.69
742.807	10.31
742.83	17.31
742.854	-1.69
742.877	9.31
742.901	-7.69
742.924	-10.69
742.948	-8.69
742.971	0.31
742.995	-11.69
743.018	-6.69
743.042	5.31
743.065	9.31
743.089	-2.69
743.112	10.31
743.136	-4.69
743.159	-5.69
743.183	-3.69
743.206	5.31
743.23	4.31
743.253	4.31
743.277	-5.69
743.3	-1.69
743.324	2.31
743.347	-11.69
743.371	19.31
743.394	5.31
743.418	27.31
743.441	12.31
743.465	17.31
743.488	5.31
743.512	1.31
743.535	1.31
743.558	-11.69
743.582	15.31
743.605	2.31
743.629	-1.69
743.652	4.31
743.676	5.31
743.699	-4.69
743.723	-5.69
743.746	9.31
743.769	11.31
743.793	6.31
743.816	-5.69
743.84	13.31
743.863	-2.69
743.886	10.31
743.91	14.31
743.933	2.31
743.957	21.31
743.98	3.31
744.003	4.31
744.027	10.31
744.05	-4.69
744.074	4.31
744.097	-0.69
744.12	-2.69
744.144	6.31
744.167	10.31
744.19	1.31
744.214	-1.69
744.237	-8.69
744.26	19.31
744.284	12.31
744.307	-8.69
744.331	-4.69
744.354	6.31
744.377	-2.69
744.401	-3.69
744.424	6.31
744.447	-2.69
744.471	4.31
