Data from HighRes_H2_15_09_11_07_2024_HR4C61891__143__15-11-10-701.txt Node

Date: Thu Nov 07 15:11:10 EST 2024
User: crc00042
Spectrometer: HR4C6189
Trigger mode: 4
Integration Time (sec): 1.000000E-1
Scans to average: 1
Electric dark correction enabled: true
Nonlinearity correction enabled: false
Boxcar width: 0
XAxis mode: Wavelengths
Number of Pixels in Spectrum: 3648
>>>>>Begin Spectral Data<<<<<
639.567	-19.69
639.602	-19.69
639.636	-19.69
639.67	-43.69
639.704	-18.69
639.738	-4.69
639.773	9.31
639.807	-15.69
639.841	-3.69
639.875	13.31
639.909	13.31
639.943	-8.69
639.978	-2.69
640.012	3.31
640.046	5.31
640.08	2.31
640.114	10.31
640.148	-21.69
640.182	4.31
640.217	-7.69
640.251	12.31
640.285	-2.69
640.319	5.31
640.353	-12.69
640.387	7.31
640.421	1.31
640.455	5.31
640.49	14.31
640.524	1.31
640.558	8.31
640.592	-10.69
640.626	4.31
640.66	2.31
640.694	-14.69
640.728	15.31
640.762	29.31
640.796	20.31
640.83	19.31
640.865	4.31
640.899	8.31
640.933	7.31
640.967	4.31
641.001	10.31
641.035	19.31
641.069	-0.69
641.103	-4.69
641.137	5.31
641.171	-20.69
641.205	17.31
641.239	0.31
641.273	29.31
641.307	12.31
641.341	10.31
641.375	2.31
641.409	-0.69
641.443	7.31
641.477	9.31
641.511	-1.69
641.545	4.31
641.579	5.31
641.614	-3.69
641.648	13.31
641.682	-4.69
641.716	13.31
641.75	17.31
641.784	7.31
641.818	1.31
641.852	9.31
641.886	-8.69
641.919	33.31
641.953	10.31
641.987	-8.69
642.021	2.31
642.055	-1.69
642.089	12.31
642.123	-4.69
642.157	-17.69
642.191	-6.69
642.225	5.31
642.259	0.31
642.293	16.31
642.327	8.31
642.361	17.31
642.395	12.31
642.429	14.31
642.463	5.31
642.497	13.31
642.531	11.31
642.565	-5.69
642.599	4.31
642.633	-9.69
642.666	12.31
642.7	3.31
642.734	33.31
642.768	8.31
642.802	2.31
642.836	15.31
642.87	-1.69
642.904	13.31
642.938	7.31
642.972	-10.69
643.005	-5.69
643.039	16.31
643.073	10.31
643.107	16.31
643.141	7.31
643.175	9.31
643.209	8.31
643.243	1.31
643.276	10.31
643.31	-4.69
643.344	0.31
643.378	5.31
643.412	7.31
643.446	-4.69
643.48	5.31
643.513	-1.69
643.547	10.31
643.581	6.31
643.615	12.31
643.649	10.31
643.683	7.31
643.716	-12.69
643.75	4.31
643.784	-10.69
643.818	6.31
643.852	3.31
643.886	-10.69
643.919	-9.69
643.953	0.31
643.987	0.31
644.021	14.31
644.055	19.31
644.088	-2.69
644.122	-11.69
644.156	-17.69
644.19	9.31
644.224	3.31
644.257	6.31
644.291	20.31
644.325	-9.69
644.359	-18.69
644.392	17.31
644.426	24.31
644.46	8.31
644.494	-9.69
644.527	4.31
644.561	6.31
644.595	-13.69
644.629	-9.69
644.662	4.31
644.696	11.31
644.73	-4.69
644.764	5.31
644.797	9.31
644.831	9.31
644.865	17.31
644.899	21.31
644.932	18.31
644.966	9.31
645	7.31
645.033	21.31
645.067	17.31
645.101	7.31
645.135	-21.69
645.168	7.31
645.202	2.31
645.236	8.31
645.269	8.31
645.303	9.31
645.337	-9.69
645.37	-11.69
645.404	-13.69
645.438	1.31
645.471	-1.69
645.505	10.31
645.539	9.31
645.572	-0.69
645.606	-7.69
645.64	2.31
645.673	1.31
645.707	21.31
645.741	13.31
645.774	-11.69
645.808	6.31
645.842	-9.69
645.875	10.31
645.909	-12.69
645.943	-7.69
645.976	8.31
646.01	21.31
646.043	16.31
646.077	8.31
646.111	15.31
646.144	9.31
646.178	2.31
646.212	-28.69
646.245	-0.69
646.279	9.31
646.312	24.31
646.346	15.31
646.38	6.31
646.413	-0.69
646.447	3.31
646.48	-3.69
646.514	11.31
646.547	7.31
646.581	-10.69
646.615	1.31
646.648	-0.69
646.682	-1.69
646.715	3.31
646.749	26.31
646.782	6.31
646.816	-6.69
646.85	18.31
646.883	4.31
646.917	13.31
646.95	-1.69
646.984	6.31
647.017	-1.69
647.051	18.31
647.084	11.31
647.118	1.31
647.151	6.31
647.185	11.31
647.218	-7.69
647.252	15.31
647.285	0.31
647.319	-5.69
647.353	7.31
647.386	15.31
647.42	18.31
647.453	2.31
647.487	10.31
647.52	10.31
647.553	0.31
647.587	-12.69
647.62	6.31
647.654	6.31
647.687	18.31
647.721	0.31
647.754	14.31
647.788	-6.69
647.821	-18.69
647.855	15.31
647.888	20.31
647.922	27.31
647.955	2.31
647.989	8.31
648.022	2.31
648.055	10.31
648.089	-2.69
648.122	17.31
648.156	-7.69
648.189	12.31
648.223	9.31
648.256	12.31
648.29	12.31
648.323	-2.69
648.356	4.31
648.39	5.31
648.423	5.31
648.457	7.31
648.49	-1.69
648.523	11.31
648.557	5.31
648.59	2.31
648.624	3.31
648.657	6.31
648.69	20.31
648.724	1.31
648.757	16.31
648.791	3.31
648.824	13.31
648.857	31.31
648.891	-0.69
648.924	12.31
648.957	10.31
648.991	-15.69
649.024	14.31
649.057	2.31
649.091	4.31
649.124	20.31
649.158	6.31
649.191	32.31
649.224	0.31
649.258	5.31
649.291	16.31
649.324	4.31
649.358	-18.69
649.391	-1.69
649.424	-9.69
649.458	2.31
649.491	1.31
649.524	-0.69
649.557	-8.69
649.591	-8.69
649.624	26.31
649.657	7.31
649.691	5.31
649.724	-7.69
649.757	10.31
649.791	-7.69
649.824	4.31
649.857	26.31
649.89	3.31
649.924	-10.69
649.957	-3.69
649.99	7.31
650.023	4.31
650.057	-1.69
650.09	12.31
650.123	5.31
650.157	5.31
650.19	0.31
650.223	5.31
650.256	0.31
650.29	7.31
650.323	-1.69
650.356	2.31
650.389	7.31
650.423	5.31
650.456	-3.69
650.489	11.31
650.522	16.31
650.555	19.31
650.589	9.31
650.622	-3.69
650.655	19.31
650.688	2.31
650.721	3.31
650.755	1.31
650.788	12.31
650.821	-16.69
650.854	-12.69
650.887	6.31
650.921	-16.69
650.954	-2.69
650.987	-0.69
651.02	8.31
651.053	-9.69
651.087	-17.69
651.12	25.31
651.153	9.31
651.186	12.31
651.219	-11.69
651.252	-2.69
651.286	14.31
651.319	5.31
651.352	5.31
651.385	-1.69
651.418	9.31
651.451	26.31
651.484	10.31
651.518	1.31
651.551	14.31
651.584	-7.69
651.617	4.31
651.65	19.31
651.683	14.31
651.716	5.31
651.749	-5.69
651.783	-2.69
651.816	-4.69
651.849	8.31
651.882	-5.69
651.915	-5.69
651.948	-2.69
651.981	-1.69
652.014	-5.69
652.047	-21.69
652.08	-1.69
652.114	9.31
652.147	2.31
652.18	15.31
652.213	28.31
652.246	-10.69
652.279	-0.69
652.312	16.31
652.345	2.31
652.378	8.31
652.411	7.31
652.444	6.31
652.477	8.31
652.51	-12.69
652.543	-3.69
652.576	10.31
652.609	-13.69
652.642	2.31
652.675	21.31
652.709	-2.69
652.742	4.31
652.775	6.31
652.808	9.31
652.841	2.31
652.874	19.31
652.907	15.31
652.94	1.31
652.973	10.31
653.006	7.31
653.039	7.31
653.072	-3.69
653.105	1.31
653.138	-3.69
653.171	-1.69
653.204	-9.69
653.237	3.31
653.27	8.31
653.303	-0.69
653.336	32.31
653.368	-6.69
653.401	-5.69
653.434	-12.69
653.467	14.31
653.5	0.31
653.533	-9.69
653.566	-8.69
653.599	1.31
653.632	4.31
653.665	5.31
653.698	-9.69
653.731	-12.69
653.764	13.31
653.797	-2.69
653.83	6.31
653.863	5.31
653.896	6.31
653.929	-9.69
653.961	19.31
653.994	0.31
654.027	2.31
654.06	1.31
654.093	15.31
654.126	11.31
654.159	-6.69
654.192	5.31
654.225	-1.69
654.258	11.31
654.29	2.31
654.323	5.31
654.356	-22.69
654.389	3.31
654.422	5.31
654.455	14.31
654.488	-6.69
654.521	-13.69
654.553	-8.69
654.586	7.31
654.619	17.31
654.652	3.31
654.685	5.31
654.718	7.31
654.751	20.31
654.783	5.31
654.816	17.31
654.849	13.31
654.882	6.31
654.915	-9.69
654.948	4.31
654.98	1.31
655.013	25.31
655.046	3.31
655.079	-1.69
655.112	1.31
655.144	-3.69
655.177	6.31
655.21	18.31
655.243	17.31
655.276	5.31
655.308	-4.69
655.341	-1.69
655.374	10.31
655.407	9.31
655.44	-10.69
655.472	9.31
655.505	9.31
655.538	9.31
655.571	18.31
655.603	11.31
655.636	-2.69
655.669	8.31
655.702	23.31
655.734	0.31
655.767	12.31
655.8	16.31
655.833	24.31
655.865	35.31
655.898	23.31
655.931	50.31
655.964	54.31
655.996	44.31
656.029	58.31
656.062	59.31
656.095	78.31
656.127	69.31
656.16	93.31
656.193	150.31
656.225	169.31
656.258	266.31
656.291	521.31
656.324	1146.31
656.356	3377.31
656.389	7592.31
656.422	6072.31
656.454	2101.31
656.487	678.31
656.52	267.31
656.552	116.31
656.585	72.31
656.618	71.31
656.65	51.31
656.683	25.31
656.716	18.31
656.748	9.31
656.781	-8.69
656.814	8.31
656.846	29.31
656.879	20.31
656.912	11.31
656.944	-11.69
656.977	-14.69
657.01	5.31
657.042	18.31
657.075	21.31
657.108	3.31
657.14	6.31
657.173	43.31
657.205	24.31
657.238	5.31
657.271	6.31
657.303	-3.69
657.336	21.31
657.369	8.31
657.401	8.31
657.434	-7.69
657.466	17.31
657.499	7.31
657.532	-3.69
657.564	8.31
657.597	11.31
657.629	22.31
657.662	6.31
657.694	-4.69
657.727	-6.69
657.76	25.31
657.792	0.31
657.825	5.31
657.857	8.31
657.89	22.31
657.922	13.31
657.955	-4.69
657.987	-8.69
658.02	11.31
658.053	11.31
658.085	4.31
658.118	-8.69
658.15	15.31
658.183	17.31
658.215	-1.69
658.248	-5.69
658.28	-3.69
658.313	12.31
658.345	11.31
658.378	5.31
658.41	3.31
658.443	10.31
658.475	2.31
658.508	-0.69
658.54	0.31
658.573	-13.69
658.605	9.31
658.638	9.31
658.67	4.31
658.703	-6.69
658.735	-12.69
658.768	-0.69
658.8	-15.69
658.833	21.31
658.865	6.31
658.898	-1.69
658.93	-5.69
658.963	-2.69
658.995	-21.69
659.028	9.31
659.06	6.31
659.092	-3.69
659.125	-12.69
659.157	3.31
659.19	-8.69
659.222	-0.69
659.255	1.31
659.287	5.31
659.32	1.31
659.352	11.31
659.384	22.31
659.417	-1.69
659.449	7.31
659.482	15.31
659.514	-9.69
659.546	-7.69
659.579	-0.69
659.611	7.31
659.644	-4.69
659.676	-5.69
659.708	2.31
659.741	-5.69
659.773	0.31
659.806	14.31
659.838	-0.69
659.87	4.31
659.903	-3.69
659.935	5.31
659.967	16.31
660	10.31
660.032	-15.69
660.065	17.31
660.097	12.31
660.129	3.31
660.162	-2.69
660.194	19.31
660.226	2.31
660.259	6.31
660.291	-8.69
660.323	2.31
660.356	16.31
660.388	-4.69
660.42	2.31
660.453	7.31
660.485	17.31
660.517	21.31
660.55	17.31
660.582	1.31
660.614	13.31
660.647	-3.69
660.679	-28.69
660.711	6.31
660.743	-10.69
660.776	3.31
660.808	7.31
660.84	0.31
660.873	5.31
660.905	7.31
660.937	-1.69
660.969	13.31
661.002	5.31
661.034	15.31
661.066	4.31
661.099	8.31
661.131	24.31
661.163	9.31
661.195	-6.69
661.228	27.31
661.26	-3.69
661.292	-10.69
661.324	-11.69
661.357	3.31
661.389	8.31
661.421	17.31
661.453	-17.69
661.485	5.31
661.518	19.31
661.55	-14.69
661.582	-25.69
661.614	3.31
661.647	8.31
661.679	13.31
661.711	9.31
661.743	0.31
661.775	1.31
661.808	22.31
661.84	1.31
661.872	-3.69
661.904	1.31
661.936	-0.69
661.969	3.31
662.001	-10.69
662.033	0.31
662.065	4.31
662.097	8.31
662.129	18.31
662.162	-9.69
662.194	0.31
662.226	-4.69
662.258	3.31
662.29	-9.69
662.322	-21.69
662.355	-20.69
662.387	23.31
662.419	13.31
662.451	10.31
662.483	4.31
662.515	-8.69
662.547	7.31
662.58	10.31
662.612	-7.69
662.644	-5.69
662.676	6.31
662.708	25.31
662.74	9.31
662.772	22.31
662.804	12.31
662.836	6.31
662.869	6.31
662.901	2.31
662.933	13.31
662.965	13.31
662.997	10.31
663.029	-2.69
663.061	6.31
663.093	5.31
663.125	-0.69
663.157	7.31
663.189	17.31
663.221	7.31
663.254	13.31
663.286	9.31
663.318	-15.69
663.35	0.31
663.382	9.31
663.414	6.31
663.446	8.31
663.478	1.31
663.51	17.31
663.542	-14.69
663.574	24.31
663.606	5.31
663.638	-16.69
663.67	9.31
663.702	3.31
663.734	5.31
663.766	12.31
663.798	6.31
663.83	-1.69
663.862	-2.69
663.894	9.31
663.926	14.31
663.958	17.31
663.99	9.31
664.022	-20.69
664.054	5.31
664.086	-7.69
664.118	-21.69
664.15	0.31
664.182	7.31
664.214	1.31
664.246	11.31
664.278	11.31
664.31	5.31
664.342	-0.69
664.374	5.31
664.406	-8.69
664.438	-0.69
664.47	18.31
664.502	-5.69
664.534	6.31
664.566	1.31
664.598	7.31
664.63	19.31
664.662	12.31
664.693	11.31
664.725	8.31
664.757	6.31
664.789	-6.69
664.821	11.31
664.853	2.31
664.885	-8.69
664.917	-10.69
664.949	14.31
664.981	22.31
665.013	7.31
665.045	-9.69
665.076	-14.69
665.108	3.31
665.14	1.31
665.172	1.31
665.204	-14.69
665.236	6.31
665.268	13.31
665.3	6.31
665.331	2.31
665.363	10.31
665.395	-2.69
665.427	-1.69
665.459	15.31
665.491	10.31
665.523	4.31
665.555	3.31
665.586	3.31
665.618	7.31
665.65	-11.69
665.682	1.31
665.714	-0.69
665.746	-6.69
665.777	-2.69
665.809	2.31
665.841	12.31
665.873	1.31
665.905	18.31
665.937	9.31
665.968	13.31
666	13.31
666.032	19.31
666.064	9.31
666.096	9.31
666.127	10.31
666.159	15.31
666.191	5.31
666.223	16.31
666.255	11.31
666.286	2.31
666.318	-7.69
666.35	15.31
666.382	8.31
666.413	-0.69
666.445	-12.69
666.477	-9.69
666.509	-9.69
666.54	-12.69
666.572	17.31
666.604	4.31
666.636	7.31
666.667	30.31
666.699	14.31
666.731	9.31
666.763	-16.69
666.794	5.31
666.826	15.31
666.858	-1.69
666.89	11.31
666.921	6.31
666.953	0.31
666.985	17.31
667.017	25.31
667.048	12.31
667.08	3.31
667.112	-1.69
667.143	-2.69
667.175	8.31
667.207	10.31
667.238	14.31
667.27	12.31
667.302	19.31
667.334	4.31
667.365	18.31
667.397	2.31
667.429	5.31
667.46	18.31
667.492	8.31
667.524	9.31
667.555	-17.69
667.587	3.31
667.619	-4.69
667.65	-12.69
667.682	4.31
667.714	23.31
667.745	1.31
667.777	2.31
667.808	21.31
667.84	17.31
667.872	-3.69
667.903	12.31
667.935	5.31
667.967	-2.69
667.998	3.31
668.03	10.31
668.061	-3.69
668.093	2.31
668.125	17.31
668.156	20.31
668.188	-2.69
668.22	0.31
668.251	3.31
668.283	1.31
668.314	5.31
668.346	-8.69
668.377	16.31
668.409	3.31
668.441	31.31
668.472	7.31
668.504	7.31
668.535	9.31
668.567	11.31
668.599	-10.69
668.63	-11.69
668.662	1.31
668.693	14.31
668.725	-0.69
668.756	14.31
668.788	5.31
668.819	20.31
668.851	-9.69
668.882	0.31
668.914	1.31
668.946	5.31
668.977	-13.69
669.009	-1.69
669.04	-18.69
669.072	5.31
669.103	7.31
669.135	2.31
669.166	11.31
669.198	2.31
669.229	15.31
669.261	-5.69
669.292	0.31
669.324	5.31
669.355	1.31
669.387	-1.69
669.418	13.31
669.45	-2.69
669.481	3.31
669.513	3.31
669.544	-2.69
669.576	8.31
669.607	1.31
669.639	16.31
669.67	5.31
669.701	12.31
669.733	-13.69
669.764	1.31
669.796	-5.69
669.827	-19.69
669.859	-19.69
669.89	15.31
669.922	2.31
669.953	15.31
669.985	14.31
670.016	12.31
670.047	8.31
670.079	15.31
670.11	4.31
670.142	-12.69
670.173	-1.69
670.204	-2.69
670.236	11.31
670.267	-1.69
670.299	-4.69
670.33	7.31
670.362	3.31
670.393	-0.69
670.424	5.31
670.456	-12.69
670.487	0.31
670.518	7.31
670.55	-2.69
670.581	5.31
670.613	-2.69
670.644	-1.69
670.675	-8.69
670.707	7.31
670.738	6.31
670.769	3.31
670.801	-5.69
670.832	6.31
670.864	-3.69
670.895	9.31
670.926	-8.69
670.958	1.31
670.989	6.31
671.02	4.31
671.052	2.31
671.083	34.31
671.114	12.31
671.146	22.31
671.177	9.31
671.208	-2.69
671.24	-14.69
671.271	2.31
671.302	-0.69
671.333	3.31
671.365	-22.69
671.396	-24.69
671.427	-8.69
671.459	13.31
671.49	11.31
671.521	9.31
671.553	3.31
671.584	6.31
671.615	-6.69
671.646	5.31
671.678	4.31
671.709	-20.69
671.74	-24.69
671.771	1.31
671.803	2.31
671.834	-4.69
671.865	-7.69
671.896	7.31
671.928	-14.69
671.959	-10.69
671.99	-6.69
672.021	-0.69
672.053	-0.69
672.084	15.31
672.115	9.31
672.146	17.31
672.178	-24.69
672.209	1.31
672.24	-13.69
672.271	13.31
672.303	4.31
672.334	6.31
672.365	-0.69
672.396	2.31
672.427	8.31
672.459	10.31
672.49	7.31
672.521	-3.69
672.552	-6.69
672.583	1.31
672.615	9.31
672.646	28.31
672.677	1.31
672.708	5.31
672.739	7.31
672.77	20.31
672.802	24.31
672.833	3.31
672.864	1.31
672.895	-0.69
672.926	1.31
672.957	-24.69
672.989	0.31
673.02	14.31
673.051	-9.69
673.082	23.31
673.113	4.31
673.144	19.31
673.175	5.31
673.206	3.31
673.238	-18.69
673.269	-6.69
673.3	-6.69
673.331	2.31
673.362	-20.69
673.393	14.31
673.424	6.31
673.455	13.31
673.487	10.31
673.518	3.31
673.549	6.31
673.58	11.31
673.611	14.31
673.642	0.31
673.673	-4.69
673.704	-7.69
673.735	-6.69
673.766	0.31
673.797	-2.69
673.828	5.31
673.86	0.31
673.891	4.31
673.922	2.31
673.953	-0.69
673.984	-1.69
674.015	-1.69
674.046	9.31
674.077	9.31
674.108	8.31
674.139	5.31
674.17	-6.69
674.201	2.31
674.232	-1.69
674.263	-2.69
674.294	-9.69
674.325	-15.69
674.356	-0.69
674.387	12.31
674.418	10.31
674.449	3.31
674.48	-6.69
674.511	-6.69
674.542	0.31
674.573	-6.69
674.604	7.31
674.635	5.31
674.666	13.31
674.697	8.31
674.728	12.31
674.759	9.31
674.79	-13.69
674.821	-0.69
674.852	2.31
674.883	-6.69
674.914	1.31
674.945	2.31
674.976	8.31
675.007	-15.69
675.038	-15.69
675.069	-19.69
675.1	-10.69
675.131	2.31
675.162	9.31
675.193	-7.69
675.224	-14.69
675.254	6.31
675.285	12.31
675.316	20.31
675.347	15.31
675.378	-14.69
675.409	1.31
675.44	6.31
675.471	-5.69
675.502	-6.69
675.533	14.31
675.564	7.31
675.595	2.31
675.625	2.31
675.656	10.31
675.687	-0.69
675.718	-9.69
675.749	-3.69
675.78	8.31
675.811	-10.69
675.842	7.31
675.873	14.31
675.903	-3.69
675.934	5.31
675.965	8.31
675.996	0.31
676.027	3.31
676.058	11.31
676.089	-20.69
676.119	-14.69
676.15	-3.69
676.181	6.31
676.212	-13.69
676.243	-3.69
676.274	-6.69
676.304	9.31
676.335	4.31
676.366	-0.69
676.397	1.31
676.428	-9.69
676.459	3.31
676.489	4.31
676.52	19.31
676.551	-10.69
676.582	-5.69
676.613	10.31
676.643	-2.69
676.674	2.31
676.705	-5.69
676.736	13.31
676.767	20.31
676.797	5.31
676.828	11.31
676.859	-5.69
676.89	7.31
676.92	13.31
676.951	11.31
676.982	-15.69
677.013	-7.69
677.044	22.31
677.074	-1.69
677.105	6.31
677.136	4.31
677.167	10.31
677.197	15.31
677.228	3.31
677.259	5.31
677.289	4.31
677.32	-8.69
677.351	-0.69
677.382	4.31
677.412	-5.69
677.443	5.31
677.474	4.31
677.505	-3.69
677.535	8.31
677.566	8.31
677.597	-3.69
677.627	-4.69
677.658	-7.69
677.689	-14.69
677.72	-6.69
677.75	5.31
677.781	-2.69
677.812	-9.69
677.842	5.31
677.873	9.31
677.904	5.31
677.934	8.31
677.965	1.31
677.996	-3.69
678.026	6.31
678.057	15.31
678.088	-1.69
678.118	-8.69
678.149	-21.69
678.18	-10.69
678.21	1.31
678.241	13.31
678.272	0.31
678.302	6.31
678.333	10.31
678.363	8.31
678.394	7.31
678.425	0.31
678.455	-8.69
678.486	11.31
678.517	-4.69
678.547	-4.69
678.578	-2.69
678.608	-14.69
678.639	9.31
678.67	4.31
678.7	-10.69
678.731	13.31
678.761	15.31
678.792	15.31
678.823	18.31
678.853	5.31
678.884	-10.69
678.914	14.31
678.945	-0.69
678.975	-1.69
679.006	10.31
679.037	-6.69
679.067	10.31
679.098	5.31
679.128	-2.69
679.159	-1.69
679.189	10.31
679.22	-8.69
679.25	9.31
679.281	-7.69
679.312	-5.69
679.342	7.31
679.373	28.31
679.403	7.31
679.434	16.31
679.464	4.31
679.495	-6.69
679.525	4.31
679.556	-10.69
679.586	7.31
679.617	7.31
679.647	-5.69
679.678	1.31
679.708	-0.69
679.739	8.31
679.769	1.31
679.8	10.31
679.83	7.31
679.861	9.31
679.891	-2.69
679.922	-13.69
679.952	-4.69
679.983	14.31
680.013	18.31
680.044	-0.69
680.074	8.31
680.105	14.31
680.135	1.31
680.165	-0.69
680.196	6.31
680.226	8.31
680.257	8.31
680.287	-9.69
680.318	7.31
680.348	-7.69
680.379	4.31
680.409	-5.69
680.439	-17.69
680.47	-7.69
680.5	-15.69
680.531	0.31
680.561	9.31
680.592	1.31
680.622	10.31
680.652	-1.69
680.683	24.31
680.713	3.31
680.744	-11.69
680.774	2.31
680.804	17.31
680.835	-3.69
680.865	-1.69
680.896	27.31
680.926	21.31
680.956	4.31
680.987	7.31
681.017	7.31
681.047	7.31
681.078	-2.69
681.108	-4.69
681.139	11.31
681.169	1.31
681.199	-0.69
681.23	5.31
681.26	-4.69
681.29	-4.69
681.321	-9.69
681.351	7.31
681.381	3.31
681.412	11.31
681.442	5.31
681.472	5.31
681.503	1.31
681.533	2.31
681.563	2.31
681.594	4.31
681.624	19.31
681.654	-0.69
681.685	-3.69
681.715	-1.69
681.745	2.31
681.775	-10.69
681.806	-3.69
681.836	1.31
681.866	9.31
681.897	10.31
681.927	5.31
681.957	-10.69
681.987	2.31
682.018	15.31
682.048	5.31
682.078	-8.69
682.109	33.31
682.139	2.31
682.169	3.31
682.199	5.31
682.23	1.31
682.26	13.31
682.29	-6.69
682.32	-7.69
682.351	-5.69
682.381	4.31
682.411	14.31
682.441	11.31
682.472	-3.69
682.502	0.31
682.532	-3.69
682.562	1.31
682.592	-14.69
682.623	5.31
682.653	12.31
682.683	-6.69
682.713	4.31
682.743	6.31
682.774	5.31
682.804	0.31
682.834	7.31
682.864	-10.69
682.894	-2.69
682.925	-8.69
682.955	5.31
682.985	-14.69
683.015	-3.69
683.045	2.31
683.076	-15.69
683.106	-7.69
683.136	2.31
683.166	-16.69
683.196	-2.69
683.226	-2.69
683.257	-22.69
683.287	-10.69
683.317	-3.69
683.347	-16.69
683.377	-13.69
683.407	7.31
683.437	9.31
683.468	18.31
683.498	-1.69
683.528	3.31
683.558	10.31
683.588	-3.69
683.618	0.31
683.648	-4.69
683.678	12.31
683.708	10.31
683.739	8.31
683.769	3.31
683.799	-4.69
683.829	-0.69
683.859	14.31
683.889	19.31
683.919	-6.69
683.949	-4.69
683.979	-28.69
684.009	-5.69
684.039	-4.69
684.07	-4.69
684.1	24.31
684.13	12.31
684.16	1.31
684.19	11.31
684.22	3.31
684.25	1.31
684.28	-2.69
684.31	30.31
684.34	23.31
684.37	1.31
684.4	-5.69
684.43	-0.69
684.46	4.31
684.49	14.31
684.52	7.31
684.55	7.31
684.58	-10.69
684.61	2.31
684.64	5.31
684.67	15.31
684.7	2.31
684.73	6.31
684.76	14.31
684.79	6.31
684.82	3.31
684.85	0.31
684.88	20.31
684.91	10.31
684.94	-9.69
684.97	-24.69
685	0.31
685.03	6.31
685.06	7.31
685.09	-6.69
685.12	23.31
685.15	-12.69
685.18	5.31
685.21	-3.69
685.24	11.31
685.27	12.31
685.3	1.31
685.33	9.31
685.36	-7.69
685.39	0.31
685.42	-10.69
685.45	-1.69
685.48	-2.69
685.51	-9.69
685.54	-6.69
685.569	-5.69
685.599	-5.69
685.629	-6.69
685.659	8.31
685.689	-18.69
685.719	-7.69
685.749	-6.69
685.779	9.31
685.809	11.31
685.839	-11.69
685.869	0.31
685.898	9.31
685.928	7.31
685.958	-2.69
685.988	1.31
686.018	-4.69
686.048	2.31
686.078	23.31
686.108	17.31
686.137	3.31
686.167	21.31
686.197	-4.69
686.227	10.31
686.257	26.31
686.287	11.31
686.317	-2.69
686.346	-0.69
686.376	-10.69
686.406	-6.69
686.436	5.31
686.466	5.31
686.496	14.31
686.525	9.31
686.555	-2.69
686.585	18.31
686.615	27.31
686.645	31.31
686.675	9.31
686.704	4.31
686.734	5.31
686.764	-24.69
686.794	7.31
686.824	9.31
686.853	20.31
686.883	12.31
686.913	9.31
686.943	-2.69
686.973	1.31
687.002	0.31
687.032	7.31
687.062	0.31
687.092	7.31
687.121	0.31
687.151	-3.69
687.181	4.31
687.211	5.31
687.24	-5.69
687.27	11.31
687.3	-5.69
687.33	11.31
687.359	-19.69
687.389	4.31
687.419	5.31
687.449	0.31
687.478	4.31
687.508	-0.69
687.538	11.31
687.568	8.31
687.597	-1.69
687.627	5.31
687.657	5.31
687.686	18.31
687.716	33.31
687.746	3.31
687.776	5.31
687.805	1.31
687.835	0.31
687.865	31.31
687.894	-0.69
687.924	2.31
687.954	9.31
687.983	-1.69
688.013	15.31
688.043	10.31
688.072	13.31
688.102	9.31
688.132	4.31
688.161	5.31
688.191	7.31
688.221	22.31
688.25	-9.69
688.28	0.31
688.31	9.31
688.339	12.31
688.369	2.31
688.399	-9.69
688.428	-0.69
688.458	14.31
688.488	1.31
688.517	16.31
688.547	-4.69
688.576	22.31
688.606	10.31
688.636	-11.69
688.665	5.31
688.695	5.31
688.725	9.31
688.754	0.31
688.784	5.31
688.813	22.31
688.843	11.31
688.873	-1.69
688.902	-7.69
688.932	4.31
688.961	14.31
688.991	26.31
689.02	13.31
689.05	-5.69
689.08	17.31
689.109	15.31
689.139	-0.69
689.168	17.31
689.198	15.31
689.227	6.31
689.257	-8.69
689.287	-0.69
689.316	12.31
689.346	-2.69
689.375	-7.69
689.405	16.31
689.434	5.31
689.464	11.31
689.493	-1.69
689.523	4.31
689.552	-4.69
689.582	4.31
689.611	-7.69
689.641	19.31
689.67	2.31
689.7	13.31
689.73	19.31
689.759	23.31
689.789	20.31
689.818	-1.69
689.848	-5.69
689.877	4.31
689.906	-1.69
689.936	-5.69
689.965	7.31
689.995	13.31
690.024	5.31
690.054	-1.69
690.083	4.31
690.113	6.31
690.142	-3.69
690.172	-3.69
690.201	3.31
690.231	3.31
690.26	5.31
690.29	3.31
690.319	14.31
690.348	-3.69
690.378	4.31
690.407	14.31
690.437	10.31
690.466	-3.69
690.496	6.31
690.525	-7.69
690.555	-5.69
690.584	1.31
690.613	-15.69
690.643	0.31
690.672	14.31
690.702	14.31
690.731	1.31
690.76	-5.69
690.79	12.31
690.819	-2.69
690.849	6.31
690.878	-1.69
690.907	9.31
690.937	9.31
690.966	8.31
690.996	6.31
691.025	10.31
691.054	2.31
691.084	0.31
691.113	3.31
691.142	18.31
691.172	7.31
691.201	9.31
691.23	-5.69
691.26	0.31
691.289	7.31
691.319	-3.69
691.348	-3.69
691.377	17.31
691.407	2.31
691.436	7.31
691.465	-4.69
691.495	-5.69
691.524	-5.69
691.553	12.31
691.583	0.31
691.612	21.31
691.641	1.31
691.67	-0.69
691.7	5.31
691.729	2.31
691.758	-5.69
691.788	9.31
691.817	2.31
691.846	-2.69
691.876	3.31
691.905	3.31
691.934	2.31
691.963	-0.69
691.993	2.31
692.022	-12.69
692.051	-8.69
692.081	7.31
692.11	16.31
692.139	7.31
692.168	4.31
692.198	20.31
692.227	14.31
692.256	-1.69
692.285	-27.69
692.315	4.31
692.344	19.31
692.373	17.31
692.402	-18.69
692.432	-5.69
692.461	-0.69
692.49	-2.69
692.519	-4.69
692.548	8.31
692.578	7.31
692.607	-7.69
692.636	-11.69
692.665	8.31
692.694	0.31
692.724	3.31
692.753	-0.69
692.782	5.31
692.811	4.31
692.84	-4.69
692.87	-4.69
692.899	-10.69
692.928	-8.69
692.957	9.31
692.986	15.31
693.016	12.31
693.045	10.31
693.074	15.31
693.103	4.31
693.132	4.31
693.161	2.31
693.191	7.31
693.22	-2.69
693.249	4.31
693.278	4.31
693.307	23.31
693.336	-14.69
693.365	-8.69
693.395	-1.69
693.424	5.31
693.453	16.31
693.482	17.31
693.511	10.31
693.54	20.31
693.569	4.31
693.598	1.31
693.628	14.31
693.657	5.31
693.686	29.31
693.715	14.31
693.744	7.31
693.773	14.31
693.802	23.31
693.831	-7.69
693.86	20.31
693.889	-5.69
693.919	2.31
693.948	12.31
693.977	16.31
694.006	-7.69
694.035	-11.69
694.064	-4.69
694.093	-7.69
694.122	0.31
694.151	-1.69
694.18	-1.69
694.209	29.31
694.238	9.31
694.267	24.31
694.296	12.31
694.325	13.31
694.354	-1.69
694.383	11.31
694.412	0.31
694.441	-4.69
694.471	-16.69
694.5	-14.69
694.529	1.31
694.558	16.31
694.587	2.31
694.616	-1.69
694.645	6.31
694.674	29.31
694.703	4.31
694.732	-3.69
694.761	15.31
694.79	16.31
694.819	1.31
694.848	3.31
694.877	15.31
694.906	38.31
694.935	6.31
694.963	24.31
694.992	-8.69
695.021	15.31
695.05	23.31
695.079	6.31
695.108	9.31
695.137	21.31
695.166	14.31
695.195	4.31
695.224	15.31
695.253	4.31
695.282	4.31
695.311	10.31
695.34	-7.69
695.369	5.31
695.398	22.31
695.427	35.31
695.456	12.31
695.485	22.31
695.513	20.31
695.542	5.31
695.571	11.31
695.6	12.31
695.629	20.31
695.658	12.31
695.687	5.31
695.716	7.31
695.745	19.31
695.774	7.31
695.802	2.31
695.831	17.31
695.86	-1.69
695.889	11.31
695.918	11.31
695.947	9.31
695.976	7.31
696.005	7.31
696.033	9.31
696.062	22.31
696.091	11.31
696.12	7.31
696.149	33.31
696.178	0.31
696.207	-0.69
696.235	-6.69
696.264	9.31
696.293	12.31
696.322	-3.69
696.351	1.31
696.38	7.31
696.408	8.31
696.437	12.31
696.466	16.31
696.495	10.31
696.524	26.31
696.553	1.31
696.581	11.31
696.61	13.31
696.639	-5.69
696.668	7.31
696.697	4.31
696.725	14.31
696.754	4.31
696.783	-4.69
696.812	0.31
696.84	11.31
696.869	11.31
696.898	7.31
696.927	5.31
696.956	16.31
696.984	1.31
697.013	4.31
697.042	-2.69
697.071	11.31
697.099	12.31
697.128	8.31
697.157	8.31
697.186	-4.69
697.214	5.31
697.243	-2.69
697.272	-4.69
697.301	-2.69
697.329	0.31
697.358	1.31
697.387	11.31
697.415	3.31
697.444	-1.69
697.473	-11.69
697.502	-10.69
697.53	19.31
697.559	-6.69
697.588	13.31
697.616	13.31
697.645	14.31
697.674	5.31
697.703	-6.69
697.731	0.31
697.76	23.31
697.789	8.31
697.817	9.31
697.846	29.31
697.875	3.31
697.903	5.31
697.932	18.31
697.961	14.31
697.989	10.31
698.018	17.31
698.047	5.31
698.075	21.31
698.104	3.31
698.133	14.31
698.161	8.31
698.19	1.31
698.218	6.31
698.247	12.31
698.276	5.31
698.304	7.31
698.333	6.31
698.362	15.31
698.39	1.31
698.419	14.31
698.447	8.31
698.476	8.31
698.505	14.31
698.533	5.31
698.562	-3.69
698.591	6.31
698.619	9.31
698.648	0.31
698.676	9.31
698.705	1.31
698.733	-10.69
698.762	12.31
698.791	10.31
698.819	7.31
698.848	4.31
698.876	19.31
698.905	11.31
698.933	15.31
698.962	22.31
698.991	-6.69
699.019	25.31
699.048	13.31
699.076	11.31
699.105	-4.69
699.133	1.31
699.162	8.31
699.19	13.31
699.219	11.31
699.248	1.31
699.276	-9.69
699.305	-1.69
699.333	4.31
699.362	-6.69
699.39	3.31
699.419	7.31
699.447	2.31
699.476	0.31
699.504	-8.69
699.533	-14.69
699.561	-17.69
699.59	11.31
699.618	-1.69
699.647	21.31
699.675	13.31
699.704	23.31
699.732	0.31
699.761	9.31
699.789	-7.69
699.818	-2.69
699.846	-2.69
699.874	-5.69
699.903	-1.69
699.931	-2.69
699.96	7.31
699.988	-3.69
700.017	2.31
700.045	4.31
700.074	0.31
700.102	-1.69
700.13	3.31
700.159	10.31
700.187	7.31
700.216	8.31
700.244	-7.69
700.273	11.31
700.301	20.31
700.329	19.31
700.358	6.31
700.386	15.31
700.415	2.31
700.443	13.31
700.472	-4.69
700.5	9.31
700.528	9.31
700.557	9.31
700.585	-6.69
700.614	-2.69
700.642	-0.69
700.67	11.31
700.699	2.31
700.727	-0.69
700.755	-0.69
700.784	-1.69
700.812	-9.69
700.841	13.31
700.869	1.31
700.897	-0.69
700.926	-3.69
700.954	13.31
700.982	3.31
701.011	-5.69
701.039	2.31
701.067	3.31
701.096	8.31
701.124	-12.69
701.152	-3.69
701.181	-2.69
701.209	-20.69
701.237	-1.69
701.266	-15.69
701.294	-0.69
701.322	6.31
701.351	5.31
701.379	1.31
701.407	-0.69
701.435	2.31
701.464	11.31
701.492	24.31
701.52	7.31
701.549	10.31
701.577	-15.69
701.605	-2.69
701.634	-2.69
701.662	17.31
701.69	-8.69
701.718	-6.69
701.747	17.31
701.775	-5.69
701.803	9.31
701.831	23.31
701.86	20.31
701.888	6.31
701.916	1.31
701.944	10.31
701.973	5.31
702.001	-14.69
702.029	1.31
702.057	-1.69
702.086	-12.69
702.114	-2.69
702.142	9.31
702.17	-9.69
702.199	1.31
702.227	0.31
702.255	-9.69
702.283	-18.69
702.311	15.31
702.34	0.31
702.368	-17.69
702.396	14.31
702.424	-0.69
702.452	0.31
702.481	-3.69
702.509	18.31
702.537	4.31
702.565	8.31
702.593	-9.69
702.621	-4.69
702.65	4.31
702.678	20.31
702.706	22.31
702.734	6.31
702.762	14.31
702.79	3.31
702.819	10.31
702.847	18.31
702.875	17.31
702.903	16.31
702.931	-0.69
702.959	1.31
702.988	5.31
703.016	-5.69
703.044	8.31
703.072	15.31
703.1	8.31
703.128	3.31
703.156	20.31
703.184	-3.69
703.212	17.31
703.241	-6.69
703.269	13.31
703.297	4.31
703.325	8.31
703.353	-9.69
703.381	-4.69
703.409	-3.69
703.437	-10.69
703.465	7.31
703.493	-11.69
703.522	11.31
703.55	14.31
703.578	0.31
703.606	7.31
703.634	-7.69
703.662	-3.69
703.69	-2.69
703.718	18.31
703.746	26.31
703.774	-1.69
703.802	24.31
703.83	14.31
703.858	15.31
703.886	-4.69
703.914	-7.69
703.942	3.31
703.97	5.31
703.998	-1.69
704.027	12.31
704.055	8.31
704.083	0.31
704.111	-19.69
704.139	10.31
704.167	1.31
704.195	9.31
704.223	-3.69
704.251	-5.69
704.279	9.31
704.307	3.31
704.335	-9.69
704.363	11.31
704.391	8.31
704.419	1.31
704.447	-10.69
704.475	10.31
704.503	-0.69
704.531	14.31
704.558	10.31
704.586	11.31
704.614	10.31
704.642	0.31
704.67	-8.69
704.698	-13.69
704.726	9.31
704.754	0.31
704.782	6.31
704.81	2.31
704.838	32.31
704.866	17.31
704.894	-8.69
704.922	-8.69
704.95	8.31
704.978	2.31
705.006	15.31
705.034	8.31
705.061	-3.69
705.089	10.31
705.117	-2.69
705.145	-19.69
705.173	-3.69
705.201	3.31
705.229	13.31
705.257	-4.69
705.285	5.31
705.313	2.31
705.34	1.31
705.368	0.31
705.396	-2.69
705.424	1.31
705.452	1.31
705.48	-0.69
705.508	1.31
705.536	-8.69
705.563	-5.69
705.591	-2.69
705.619	4.31
705.647	-9.69
705.675	2.31
705.703	13.31
705.731	12.31
705.758	9.31
705.786	9.31
705.814	10.31
705.842	-2.69
705.87	9.31
705.898	16.31
705.925	0.31
705.953	7.31
705.981	0.31
706.009	7.31
706.037	-2.69
706.065	-0.69
706.092	4.31
706.12	7.31
706.148	4.31
706.176	1.31
706.204	7.31
706.231	2.31
706.259	-0.69
706.287	-8.69
706.315	3.31
706.342	0.31
706.37	7.31
706.398	8.31
706.426	-1.69
706.454	4.31
706.481	9.31
706.509	5.31
706.537	12.31
706.565	7.31
706.592	0.31
706.62	-9.69
706.648	14.31
706.676	-8.69
706.703	13.31
706.731	8.31
706.759	3.31
706.787	12.31
706.814	1.31
706.842	3.31
706.87	-4.69
706.897	-1.69
706.925	-3.69
706.953	14.31
706.981	21.31
707.008	4.31
707.036	1.31
707.064	-5.69
707.091	-19.69
707.119	13.31
707.147	-5.69
707.174	-1.69
707.202	11.31
707.23	-11.69
707.258	5.31
707.285	1.31
707.313	-7.69
707.341	-10.69
707.368	5.31
707.396	-1.69
707.424	6.31
707.451	11.31
707.479	11.31
707.507	1.31
707.534	-0.69
707.562	9.31
707.59	-18.69
707.617	-10.69
707.645	6.31
707.672	-5.69
707.7	18.31
707.728	9.31
707.755	8.31
707.783	-5.69
707.811	13.31
707.838	11.31
707.866	2.31
707.893	-7.69
707.921	-5.69
707.949	12.31
707.976	4.31
708.004	17.31
708.031	-1.69
708.059	-2.69
708.087	14.31
708.114	5.31
708.142	12.31
708.169	-13.69
708.197	-3.69
708.225	-3.69
708.252	-15.69
708.28	-2.69
708.307	-13.69
708.335	7.31
708.362	-3.69
708.39	-7.69
708.418	-13.69
708.445	-13.69
708.473	-3.69
708.5	-12.69
708.528	19.31
708.555	-1.69
708.583	11.31
708.61	12.31
708.638	7.31
708.665	-23.69
708.693	-6.69
708.72	-4.69
708.748	-5.69
708.776	8.31
708.803	14.31
708.831	14.31
708.858	11.31
708.886	-7.69
708.913	-5.69
708.941	4.31
708.968	3.31
708.996	-10.69
709.023	34.31
709.051	-1.69
709.078	-5.69
709.105	12.31
709.133	0.31
709.16	11.31
709.188	14.31
709.215	-3.69
709.243	-1.69
709.27	6.31
709.298	-2.69
709.325	2.31
709.353	2.31
709.38	-6.69
709.408	5.31
709.435	1.31
709.462	4.31
709.49	0.31
709.517	7.31
709.545	-4.69
709.572	2.31
709.6	-8.69
709.627	-1.69
709.655	-0.69
709.682	4.31
709.709	7.31
709.737	-9.69
709.764	-11.69
709.792	-3.69
709.819	4.31
709.846	-6.69
709.874	1.31
709.901	13.31
709.929	8.31
709.956	11.31
709.983	-1.69
710.011	0.31
710.038	-15.69
710.066	3.31
710.093	-2.69
710.12	-6.69
710.148	-2.69
710.175	-8.69
710.202	-1.69
710.23	6.31
710.257	5.31
710.284	11.31
710.312	-6.69
710.339	8.31
710.366	4.31
710.394	-1.69
710.421	-1.69
710.448	-2.69
710.476	-5.69
710.503	-1.69
710.53	5.31
710.558	0.31
710.585	5.31
710.612	-5.69
710.64	-0.69
710.667	-7.69
710.694	8.31
710.722	3.31
710.749	-3.69
710.776	-2.69
710.804	22.31
710.831	7.31
710.858	-6.69
710.885	-2.69
710.913	-7.69
710.94	16.31
710.967	17.31
710.995	4.31
711.022	-1.69
711.049	10.31
711.076	-8.69
711.104	3.31
711.131	-10.69
711.158	0.31
711.185	6.31
711.213	-5.69
711.24	-15.69
711.267	4.31
711.294	-0.69
711.322	0.31
711.349	-19.69
711.376	-0.69
711.403	14.31
711.431	-5.69
711.458	0.31
711.485	4.31
711.512	5.31
711.54	5.31
711.567	1.31
711.594	-13.69
711.621	10.31
711.648	-2.69
711.676	6.31
711.703	0.31
711.73	-18.69
711.757	-9.69
711.784	-1.69
711.812	0.31
711.839	1.31
711.866	-14.69
711.893	-17.69
711.92	-5.69
711.947	3.31
711.975	9.31
712.002	-9.69
712.029	8.31
712.056	-14.69
712.083	2.31
712.11	-12.69
712.138	5.31
712.165	9.31
712.192	-9.69
712.219	-14.69
712.246	-6.69
712.273	3.31
712.3	-1.69
712.328	0.31
712.355	-3.69
712.382	2.31
712.409	9.31
712.436	-26.69
712.463	6.31
712.49	13.31
712.517	-4.69
712.544	-5.69
712.572	4.31
712.599	0.31
712.626	8.31
712.653	-19.69
712.68	-10.69
712.707	5.31
712.734	8.31
712.761	0.31
712.788	9.31
712.815	0.31
712.842	15.31
712.87	-3.69
712.897	0.31
712.924	-17.69
712.951	5.31
712.978	0.31
713.005	18.31
713.032	19.31
713.059	-5.69
713.086	-7.69
713.113	-8.69
713.14	-12.69
713.167	9.31
713.194	18.31
713.221	13.31
713.248	4.31
713.275	-4.69
713.302	-8.69
713.329	17.31
713.356	11.31
713.383	13.31
713.41	19.31
713.437	-7.69
713.464	1.31
713.491	4.31
713.518	4.31
713.545	3.31
713.572	7.31
713.599	13.31
713.626	9.31
713.653	-2.69
713.68	13.31
713.707	-6.69
713.734	2.31
713.761	-18.69
713.788	-4.69
713.815	7.31
713.842	-9.69
713.869	18.31
713.896	8.31
713.923	-3.69
713.95	4.31
713.977	0.31
714.004	3.31
714.031	-8.69
714.058	-1.69
714.085	-2.69
714.112	27.31
714.139	-3.69
714.165	-5.69
714.192	0.31
714.219	11.31
714.246	9.31
714.273	-5.69
714.3	-6.69
714.327	-5.69
714.354	16.31
714.381	8.31
714.408	11.31
714.435	8.31
714.461	2.31
714.488	8.31
714.515	-6.69
714.542	-7.69
714.569	1.31
714.596	-10.69
714.623	-1.69
714.65	-10.69
714.677	10.31
714.703	-0.69
714.73	4.31
714.757	17.31
714.784	0.31
714.811	-5.69
714.838	7.31
714.865	13.31
714.891	2.31
714.918	-3.69
714.945	-4.69
714.972	-1.69
714.999	8.31
715.026	-3.69
715.052	3.31
715.079	-3.69
715.106	-0.69
715.133	2.31
715.16	-1.69
715.187	8.31
715.213	8.31
715.24	-5.69
715.267	-10.69
715.294	-3.69
715.321	-2.69
715.347	0.31
715.374	-12.69
715.401	4.31
715.428	-2.69
715.455	-7.69
715.481	1.31
715.508	9.31
715.535	-18.69
715.562	19.31
715.588	8.31
715.615	4.31
715.642	8.31
715.669	14.31
715.695	-7.69
715.722	-4.69
715.749	-0.69
715.776	7.31
715.802	14.31
715.829	-9.69
715.856	-10.69
715.883	2.31
715.909	-4.69
715.936	-0.69
715.963	6.31
715.99	-9.69
716.016	-6.69
716.043	1.31
716.07	-5.69
716.096	-2.69
716.123	5.31
716.15	-5.69
716.177	19.31
716.203	8.31
716.23	7.31
716.257	13.31
716.283	3.31
716.31	5.31
716.337	8.31
716.363	-9.69
716.39	3.31
716.417	10.31
716.443	2.31
716.47	17.31
716.497	20.31
716.523	12.31
716.55	-6.69
716.577	29.31
716.603	22.31
716.63	0.31
716.657	9.31
716.683	-3.69
716.71	-5.69
716.737	-1.69
716.763	9.31
716.79	10.31
716.817	0.31
716.843	-1.69
716.87	-5.69
716.897	-3.69
716.923	28.31
716.95	-18.69
716.976	0.31
717.003	-3.69
717.03	14.31
717.056	4.31
717.083	6.31
717.109	17.31
717.136	6.31
717.163	-6.69
717.189	17.31
717.216	5.31
717.242	-6.69
717.269	8.31
717.296	0.31
717.322	4.31
717.349	22.31
717.375	13.31
717.402	3.31
717.428	5.31
717.455	-8.69
717.481	6.31
717.508	5.31
717.535	9.31
717.561	11.31
717.588	1.31
717.614	6.31
717.641	14.31
717.667	5.31
717.694	12.31
717.72	4.31
717.747	-5.69
717.773	-10.69
717.8	11.31
717.826	12.31
717.853	11.31
717.88	10.31
717.906	14.31
717.933	17.31
717.959	20.31
717.986	5.31
718.012	4.31
718.039	25.31
718.065	21.31
718.092	10.31
718.118	-12.69
718.144	-17.69
718.171	8.31
718.197	9.31
718.224	6.31
718.25	19.31
718.277	3.31
718.303	2.31
718.33	-3.69
718.356	-11.69
718.383	-11.69
718.409	-1.69
718.436	0.31
718.462	-2.69
718.489	-8.69
718.515	0.31
718.541	16.31
718.568	-3.69
718.594	9.31
718.621	12.31
718.647	-5.69
718.674	16.31
718.7	3.31
718.726	5.31
718.753	6.31
718.779	4.31
718.806	-9.69
718.832	-9.69
718.858	12.31
718.885	8.31
718.911	-1.69
718.938	8.31
718.964	-18.69
718.99	10.31
719.017	-5.69
719.043	-0.69
719.07	14.31
719.096	-3.69
719.122	2.31
719.149	6.31
719.175	-5.69
719.201	6.31
719.228	-1.69
719.254	-2.69
719.281	-10.69
719.307	0.31
719.333	0.31
719.36	9.31
719.386	3.31
719.412	-2.69
719.439	-11.69
719.465	0.31
719.491	-3.69
719.518	-5.69
719.544	1.31
719.57	12.31
719.597	12.31
719.623	-8.69
719.649	-2.69
719.675	-11.69
719.702	12.31
719.728	1.31
719.754	-6.69
719.781	-7.69
719.807	13.31
719.833	1.31
719.86	0.31
719.886	0.31
719.912	-5.69
719.938	-5.69
719.965	4.31
719.991	9.31
720.017	-5.69
720.044	-7.69
720.07	3.31
720.096	8.31
720.122	11.31
720.149	21.31
720.175	20.31
720.201	6.31
720.227	-5.69
720.254	0.31
720.28	5.31
720.306	-7.69
720.332	6.31
720.359	-5.69
720.385	10.31
720.411	-1.69
720.437	2.31
720.463	10.31
720.49	20.31
720.516	6.31
720.542	-0.69
720.568	-7.69
720.595	14.31
720.621	3.31
720.647	-0.69
720.673	9.31
720.699	-7.69
720.725	4.31
720.752	2.31
720.778	3.31
720.804	16.31
720.83	26.31
720.856	-6.69
720.883	-25.69
720.909	1.31
720.935	7.31
720.961	20.31
720.987	-1.69
721.013	18.31
721.04	2.31
721.066	2.31
721.092	9.31
721.118	4.31
721.144	0.31
721.17	-17.69
721.196	-1.69
721.223	-4.69
721.249	2.31
721.275	6.31
721.301	2.31
721.327	5.31
721.353	5.31
721.379	-8.69
721.405	-4.69
721.432	5.31
721.458	3.31
721.484	7.31
721.51	-17.69
721.536	-7.69
721.562	-2.69
721.588	-2.69
721.614	4.31
721.64	1.31
721.666	-4.69
721.693	0.31
721.719	-6.69
721.745	-10.69
721.771	-2.69
721.797	-3.69
721.823	5.31
721.849	32.31
721.875	3.31
721.901	4.31
721.927	4.31
721.953	8.31
721.979	9.31
722.005	6.31
722.031	-2.69
722.057	6.31
722.083	-0.69
722.109	-6.69
722.135	21.31
722.161	7.31
722.187	-5.69
722.214	-2.69
722.24	2.31
722.266	1.31
722.292	15.31
722.318	8.31
722.344	-7.69
722.37	6.31
722.396	1.31
722.422	4.31
722.448	-3.69
722.474	-9.69
722.5	15.31
722.526	4.31
722.552	-1.69
722.578	-4.69
722.603	1.31
722.629	-23.69
722.655	-12.69
722.681	-0.69
722.707	5.31
722.733	1.31
722.759	7.31
722.785	-0.69
722.811	5.31
722.837	-2.69
722.863	11.31
722.889	15.31
722.915	5.31
722.941	1.31
722.967	4.31
722.993	-0.69
723.019	5.31
723.045	-1.69
723.071	0.31
723.097	13.31
723.122	-5.69
723.148	-18.69
723.174	3.31
723.2	1.31
723.226	-3.69
723.252	18.31
723.278	-2.69
723.304	-9.69
723.33	3.31
723.356	-8.69
723.381	-2.69
723.407	-11.69
723.433	1.31
723.459	-4.69
723.485	-0.69
723.511	-2.69
723.537	0.31
723.563	-3.69
723.588	-4.69
723.614	9.31
723.64	-7.69
723.666	-3.69
723.692	9.31
723.718	-0.69
723.744	7.31
723.769	0.31
723.795	-6.69
723.821	-1.69
723.847	5.31
723.873	-5.69
723.899	12.31
723.924	14.31
723.95	12.31
723.976	-14.69
724.002	4.31
724.028	0.31
724.053	3.31
724.079	10.31
724.105	-2.69
724.131	13.31
724.157	20.31
724.182	12.31
724.208	0.31
724.234	5.31
724.26	0.31
724.286	13.31
724.311	-4.69
724.337	-20.69
724.363	-5.69
724.389	0.31
724.415	-8.69
724.44	14.31
724.466	2.31
724.492	1.31
724.518	5.31
724.543	0.31
724.569	1.31
724.595	-1.69
724.621	-10.69
724.646	-15.69
724.672	-6.69
724.698	-6.69
724.723	9.31
724.749	-2.69
724.775	-1.69
724.801	2.31
724.826	2.31
724.852	4.31
724.878	-16.69
724.904	-24.69
724.929	0.31
724.955	-10.69
724.981	5.31
725.006	1.31
725.032	-9.69
725.058	3.31
725.083	-0.69
725.109	-4.69
725.135	2.31
725.161	-0.69
725.186	2.31
725.212	-18.69
725.238	9.31
725.263	8.31
725.289	-10.69
725.315	-12.69
725.34	-2.69
725.366	-2.69
725.392	-10.69
725.417	5.31
725.443	1.31
725.468	-5.69
725.494	10.31
725.52	24.31
725.545	9.31
725.571	2.31
725.597	9.31
725.622	22.31
725.648	0.31
725.674	0.31
725.699	4.31
725.725	6.31
725.75	28.31
725.776	1.31
725.802	4.31
725.827	-15.69
725.853	3.31
725.878	-4.69
725.904	-4.69
725.93	1.31
725.955	-7.69
725.981	-22.69
726.006	-10.69
726.032	4.31
726.057	-3.69
726.083	-2.69
726.109	-8.69
726.134	-3.69
726.16	-2.69
726.185	1.31
726.211	6.31
726.236	11.31
726.262	7.31
726.288	16.31
726.313	5.31
726.339	4.31
726.364	-10.69
726.39	4.31
726.415	-4.69
726.441	-9.69
726.466	-3.69
726.492	-2.69
726.517	8.31
726.543	-3.69
726.568	-13.69
726.594	9.31
726.619	4.31
726.645	6.31
726.67	9.31
726.696	2.31
726.721	-4.69
726.747	-17.69
726.772	0.31
726.798	-2.69
726.823	-0.69
726.849	1.31
726.874	5.31
726.9	30.31
726.925	21.31
726.951	4.31
726.976	6.31
727.002	3.31
727.027	10.31
727.053	16.31
727.078	1.31
727.104	8.31
727.129	-13.69
727.155	8.31
727.18	16.31
727.205	9.31
727.231	-11.69
727.256	0.31
727.282	7.31
727.307	14.31
727.333	-3.69
727.358	-3.69
727.383	-6.69
727.409	-7.69
727.434	19.31
727.46	8.31
727.485	-10.69
727.511	-6.69
727.536	-10.69
727.561	-19.69
727.587	-0.69
727.612	5.31
727.637	-8.69
727.663	-14.69
727.688	11.31
727.714	2.31
727.739	1.31
727.764	5.31
727.79	11.31
727.815	12.31
727.841	15.31
727.866	7.31
727.891	0.31
727.917	-12.69
727.942	5.31
727.967	6.31
727.993	-11.69
728.018	-3.69
728.043	-4.69
728.069	9.31
728.094	14.31
728.119	-15.69
728.145	25.31
728.17	4.31
728.195	12.31
728.221	10.31
728.246	3.31
728.271	-17.69
728.297	-3.69
728.322	-12.69
728.347	-2.69
728.373	-12.69
728.398	3.31
728.423	-6.69
728.448	9.31
728.474	0.31
728.499	8.31
728.524	-17.69
728.55	-1.69
728.575	2.31
728.6	0.31
728.625	-3.69
728.651	4.31
728.676	-3.69
728.701	-2.69
728.727	5.31
728.752	-11.69
728.777	2.31
728.802	11.31
728.828	-1.69
728.853	1.31
728.878	-8.69
728.903	-11.69
728.929	-9.69
728.954	-4.69
728.979	-0.69
729.004	5.31
729.03	1.31
729.055	14.31
729.08	-10.69
729.105	-2.69
729.13	20.31
729.156	11.31
729.181	-2.69
729.206	-14.69
729.231	-7.69
729.256	1.31
729.282	12.31
729.307	-10.69
729.332	11.31
729.357	-5.69
729.382	3.31
729.408	16.31
729.433	1.31
729.458	14.31
729.483	4.31
729.508	5.31
729.533	17.31
729.559	8.31
729.584	-6.69
729.609	20.31
729.634	0.31
729.659	-5.69
729.684	-3.69
729.71	13.31
729.735	-3.69
729.76	-0.69
729.785	-13.69
729.81	1.31
729.835	-2.69
729.86	-9.69
729.886	5.31
729.911	0.31
729.936	-5.69
729.961	3.31
729.986	-30.69
730.011	-16.69
730.036	20.31
730.061	-3.69
730.086	5.31
730.112	-1.69
730.137	13.31
730.162	-5.69
730.187	-5.69
730.212	2.31
730.237	-6.69
730.262	-3.69
730.287	-10.69
730.312	16.31
730.337	-1.69
730.362	24.31
730.387	1.31
730.413	-19.69
730.438	-11.69
730.463	2.31
730.488	-14.69
730.513	-6.69
730.538	0.31
730.563	6.31
730.588	-6.69
730.613	15.31
730.638	6.31
730.663	-2.69
730.688	13.31
730.713	14.31
730.738	8.31
730.763	15.31
730.788	-11.69
730.813	10.31
730.838	8.31
730.863	2.31
730.888	-7.69
730.913	-13.69
730.938	-2.69
730.963	6.31
730.988	7.31
731.013	27.31
731.038	-2.69
731.063	-12.69
731.088	-2.69
731.113	-1.69
731.138	0.31
731.163	0.31
731.188	-5.69
731.213	5.31
731.238	14.31
731.263	-11.69
731.288	-4.69
731.313	-1.69
731.338	14.31
731.363	-1.69
731.388	6.31
731.413	3.31
731.438	20.31
731.463	14.31
731.487	12.31
731.512	-1.69
731.537	-5.69
731.562	12.31
731.587	9.31
731.612	-7.69
731.637	-4.69
731.662	18.31
731.687	5.31
731.712	-18.69
731.737	0.31
731.762	-6.69
731.786	2.31
731.811	5.31
731.836	8.31
731.861	7.31
731.886	-2.69
731.911	0.31
731.936	14.31
731.961	7.31
731.986	-7.69
732.01	-2.69
732.035	9.31
732.06	2.31
732.085	-0.69
732.11	1.31
732.135	-11.69
732.16	-4.69
732.184	-5.69
732.209	-0.69
732.234	22.31
732.259	-9.69
732.284	16.31
732.309	-2.69
732.334	13.31
732.358	-7.69
732.383	-6.69
732.408	-1.69
732.433	4.31
732.458	0.31
732.482	18.31
732.507	-5.69
732.532	-3.69
732.557	8.31
732.582	10.31
732.607	3.31
732.631	-6.69
732.656	4.31
732.681	-4.69
732.706	-2.69
732.73	9.31
732.755	4.31
732.78	15.31
732.805	1.31
732.83	4.31
732.854	10.31
732.879	16.31
732.904	0.31
732.929	-6.69
732.953	-7.69
732.978	-6.69
733.003	-2.69
733.028	-5.69
733.052	8.31
733.077	-8.69
733.102	4.31
733.127	-5.69
733.151	4.31
733.176	2.31
733.201	-1.69
733.226	-7.69
733.25	8.31
733.275	-1.69
733.3	0.31
733.324	13.31
733.349	-3.69
733.374	-3.69
733.399	-1.69
733.423	10.31
733.448	-11.69
733.473	-6.69
733.497	3.31
733.522	-5.69
733.547	16.31
733.571	13.31
733.596	-3.69
733.621	13.31
733.646	2.31
733.67	2.31
733.695	-6.69
733.72	11.31
733.744	10.31
733.769	16.31
733.794	7.31
733.818	-3.69
733.843	-9.69
733.867	-22.69
733.892	11.31
733.917	0.31
733.941	2.31
733.966	-21.69
733.991	-8.69
734.015	18.31
734.04	-4.69
734.065	-1.69
734.089	21.31
734.114	-1.69
734.138	12.31
734.163	-5.69
734.188	13.31
734.212	18.31
734.237	6.31
734.261	-7.69
734.286	-3.69
734.311	4.31
734.335	-3.69
734.36	10.31
734.384	-15.69
734.409	5.31
734.434	-7.69
734.458	1.31
734.483	-9.69
734.507	-14.69
734.532	-3.69
734.556	2.31
734.581	-0.69
734.606	13.31
734.63	7.31
734.655	7.31
734.679	-1.69
734.704	-11.69
734.728	-5.69
734.753	-13.69
734.777	-5.69
734.802	-2.69
734.826	9.31
734.851	-4.69
734.876	-0.69
734.9	13.31
734.925	5.31
734.949	3.31
734.974	0.31
734.998	10.31
735.023	-8.69
735.047	-11.69
735.072	25.31
735.096	-7.69
735.121	-6.69
735.145	-3.69
735.17	-8.69
735.194	-5.69
735.219	1.31
735.243	12.31
735.268	12.31
735.292	12.31
735.317	6.31
735.341	-4.69
735.365	-9.69
735.39	6.31
735.414	16.31
735.439	3.31
735.463	8.31
735.488	20.31
735.512	11.31
735.537	-5.69
735.561	-11.69
735.586	8.31
735.61	19.31
735.634	-2.69
735.659	5.31
735.683	25.31
735.708	5.31
735.732	-10.69
735.757	1.31
735.781	5.31
735.805	20.31
735.83	8.31
735.854	4.31
735.879	5.31
735.903	12.31
735.927	5.31
735.952	3.31
735.976	-3.69
736.001	0.31
736.025	-5.69
736.049	-1.69
736.074	-1.69
736.098	-3.69
736.123	3.31
736.147	-0.69
736.171	12.31
736.196	8.31
736.22	-11.69
736.244	-6.69
736.269	-2.69
736.293	-9.69
736.317	-7.69
736.342	-10.69
736.366	16.31
736.39	4.31
736.415	0.31
736.439	7.31
736.463	12.31
736.488	2.31
736.512	0.31
736.536	-11.69
736.561	17.31
736.585	6.31
736.609	8.31
736.634	-9.69
736.658	-4.69
736.682	-2.69
736.707	-11.69
736.731	-19.69
736.755	12.31
736.78	27.31
736.804	28.31
736.828	5.31
736.852	-6.69
736.877	-5.69
736.901	2.31
736.925	2.31
736.949	12.31
736.974	0.31
736.998	-5.69
737.022	7.31
737.047	4.31
737.071	-11.69
737.095	12.31
737.119	10.31
737.144	13.31
737.168	-4.69
737.192	-6.69
737.216	7.31
737.241	7.31
737.265	0.31
737.289	4.31
737.313	1.31
737.337	15.31
737.362	13.31
737.386	-14.69
737.41	-7.69
737.434	8.31
737.459	1.31
737.483	12.31
737.507	15.31
737.531	24.31
737.555	7.31
737.58	9.31
737.604	3.31
737.628	-9.69
737.652	-9.69
737.676	-5.69
737.701	20.31
737.725	-4.69
737.749	6.31
737.773	8.31
737.797	-14.69
737.821	-2.69
737.846	-2.69
737.87	14.31
737.894	-1.69
737.918	1.31
737.942	10.31
737.966	25.31
737.99	13.31
738.015	7.31
738.039	20.31
738.063	-8.69
738.087	2.31
738.111	4.31
738.135	10.31
738.159	-11.69
738.184	11.31
738.208	6.31
738.232	1.31
738.256	11.31
738.28	32.31
738.304	21.31
738.328	-4.69
738.352	0.31
738.376	-10.69
738.4	20.31
738.425	15.31
738.449	-5.69
738.473	17.31
738.497	16.31
738.521	-0.69
738.545	-6.69
738.569	3.31
738.593	26.31
738.617	0.31
738.641	0.31
738.665	12.31
738.689	6.31
738.713	6.31
738.737	4.31
738.762	28.31
738.786	7.31
738.81	-9.69
738.834	19.31
738.858	4.31
738.882	13.31
738.906	1.31
738.93	10.31
738.954	0.31
738.978	0.31
739.002	-12.69
739.026	13.31
739.05	8.31
739.074	-7.69
739.098	23.31
739.122	26.31
739.146	9.31
739.17	0.31
739.194	11.31
739.218	0.31
739.242	-2.69
739.266	0.31
739.29	7.31
739.314	9.31
739.338	7.31
739.362	-5.69
739.386	-0.69
739.41	-6.69
739.434	-1.69
739.458	0.31
739.482	17.31
739.506	11.31
739.53	6.31
739.554	11.31
739.577	-7.69
739.601	-3.69
739.625	-4.69
739.649	-3.69
739.673	8.31
739.697	8.31
739.721	1.31
739.745	16.31
739.769	-2.69
739.793	18.31
739.817	11.31
739.841	5.31
739.865	6.31
739.889	-14.69
739.912	8.31
739.936	3.31
739.96	2.31
739.984	21.31
740.008	0.31
740.032	-5.69
740.056	9.31
740.08	-3.69
740.104	-4.69
740.127	12.31
740.151	14.31
740.175	7.31
740.199	7.31
740.223	56.31
740.247	14.31
740.271	1.31
740.295	-3.69
740.318	-14.69
740.342	9.31
740.366	9.31
740.39	21.31
740.414	5.31
740.438	-2.69
740.461	11.31
740.485	1.31
740.509	-6.69
740.533	-5.69
740.557	4.31
740.581	7.31
740.604	-3.69
740.628	1.31
740.652	5.31
740.676	-3.69
740.7	13.31
740.723	2.31
740.747	11.31
740.771	10.31
740.795	7.31
740.819	-11.69
740.842	13.31
740.866	11.31
740.89	12.31
740.914	-11.69
740.938	-0.69
740.961	2.31
740.985	6.31
741.009	-5.69
741.033	7.31
741.056	16.31
741.08	6.31
741.104	4.31
741.128	-8.69
741.151	9.31
741.175	-3.69
741.199	7.31
741.223	20.31
741.246	-10.69
741.27	6.31
741.294	-6.69
741.318	-0.69
741.341	-2.69
741.365	-3.69
741.389	-0.69
741.413	17.31
741.436	4.31
741.46	3.31
741.484	22.31
741.507	0.31
741.531	30.31
741.555	13.31
741.579	4.31
741.602	-7.69
741.626	6.31
741.65	12.31
741.673	-4.69
741.697	4.31
741.721	5.31
741.744	-23.69
741.768	-7.69
741.792	5.31
741.815	5.31
741.839	13.31
741.863	18.31
741.886	11.31
741.91	9.31
741.934	-6.69
741.957	-1.69
741.981	1.31
742.005	4.31
742.028	5.31
742.052	-5.69
742.075	10.31
742.099	11.31
742.123	3.31
742.146	13.31
742.17	8.31
742.194	-18.69
742.217	-5.69
742.241	-6.69
742.264	1.31
742.288	15.31
742.312	0.31
742.335	9.31
742.359	5.31
742.382	12.31
742.406	15.31
742.43	-1.69
742.453	-3.69
742.477	-15.69
742.5	24.31
742.524	21.31
742.548	-4.69
742.571	-10.69
742.595	9.31
742.618	-3.69
742.642	-2.69
742.665	19.31
742.689	-14.69
742.712	17.31
742.736	-2.69
742.76	-10.69
742.783	4.31
742.807	-3.69
742.83	9.31
742.854	8.31
742.877	1.31
742.901	-5.69
742.924	-6.69
742.948	8.31
742.971	6.31
742.995	2.31
743.018	-5.69
743.042	-3.69
743.065	-8.69
743.089	-3.69
743.112	8.31
743.136	-18.69
743.159	-6.69
743.183	-2.69
743.206	1.31
743.23	8.31
743.253	2.31
743.277	0.31
743.3	4.31
743.324	4.31
743.347	8.31
743.371	21.31
743.394	14.31
743.418	10.31
743.441	10.31
743.465	4.31
743.488	-2.69
743.512	-22.69
743.535	9.31
743.558	9.31
743.582	-2.69
743.605	1.31
743.629	20.31
743.652	6.31
743.676	4.31
743.699	7.31
743.723	15.31
743.746	6.31
743.769	-3.69
743.793	8.31
743.816	-0.69
743.84	10.31
743.863	0.31
743.886	-3.69
743.91	10.31
743.933	15.31
743.957	-0.69
743.98	9.31
744.003	10.31
744.027	-10.69
744.05	-4.69
744.074	-9.69
744.097	-12.69
744.12	-3.69
744.144	-3.69
744.167	4.31
744.19	-6.69
744.214	5.31
744.237	-6.69
744.26	13.31
744.284	-1.69
744.307	-1.69
744.331	4.31
744.354	10.31
744.377	-5.69
744.401	-2.69
744.424	-0.69
744.447	0.31
744.471	-1.69
