Data from HighRes_H2_15_09_11_07_2024_HR4C61891__86__15-11-05-002.txt Node

Date: Thu Nov 07 15:11:05 EST 2024
User: crc00042
Spectrometer: HR4C6189
Trigger mode: 4
Integration Time (sec): 1.000000E-1
Scans to average: 1
Electric dark correction enabled: true
Nonlinearity correction enabled: false
Boxcar width: 0
XAxis mode: Wavelengths
Number of Pixels in Spectrum: 3648
>>>>>Begin Spectral Data<<<<<
639.567	-25.92
639.602	-25.92
639.636	-25.92
639.67	-46.92
639.704	-16.92
639.738	-9.92
639.773	13.08
639.807	-23.92
639.841	-6.92
639.875	13.08
639.909	-1.92
639.943	-6.92
639.978	-1.92
640.012	17.08
640.046	7.08
640.08	11.08
640.114	4.08
640.148	-13.92
640.182	-9.92
640.217	12.08
640.251	12.08
640.285	12.08
640.319	-8.92
640.353	-2.92
640.387	-0.92
640.421	-2.92
640.455	-1.92
640.49	10.08
640.524	-0.92
640.558	32.08
640.592	9.08
640.626	-7.92
640.66	0.08
640.694	2.08
640.728	4.08
640.762	11.08
640.796	12.08
640.83	15.08
640.865	-13.92
640.899	1.08
640.933	0.08
640.967	1.08
641.001	16.08
641.035	23.08
641.069	1.08
641.103	9.08
641.137	2.08
641.171	-14.92
641.205	10.08
641.239	-0.92
641.273	12.08
641.307	17.08
641.341	19.08
641.375	14.08
641.409	12.08
641.443	8.08
641.477	14.08
641.511	10.08
641.545	14.08
641.579	-7.92
641.614	7.08
641.648	26.08
641.682	-14.92
641.716	10.08
641.75	22.08
641.784	17.08
641.818	1.08
641.852	3.08
641.886	3.08
641.919	34.08
641.953	4.08
641.987	-3.92
642.021	9.08
642.055	0.08
642.089	2.08
642.123	3.08
642.157	-11.92
642.191	5.08
642.225	14.08
642.259	4.08
642.293	-1.92
642.327	-2.92
642.361	-6.92
642.395	-2.92
642.429	27.08
642.463	13.08
642.497	19.08
642.531	11.08
642.565	10.08
642.599	15.08
642.633	-10.92
642.666	15.08
642.7	10.08
642.734	11.08
642.768	1.08
642.802	13.08
642.836	11.08
642.87	-12.92
642.904	16.08
642.938	13.08
642.972	12.08
643.005	0.08
643.039	14.08
643.073	-10.92
643.107	3.08
643.141	8.08
643.175	14.08
643.209	0.08
643.243	-0.92
643.276	8.08
643.31	4.08
643.344	-2.92
643.378	8.08
643.412	14.08
643.446	-2.92
643.48	-0.92
643.513	5.08
643.547	5.08
643.581	-1.92
643.615	16.08
643.649	4.08
643.683	-0.92
643.716	25.08
643.75	6.08
643.784	-10.92
643.818	21.08
643.852	-2.92
643.886	8.08
643.919	10.08
643.953	11.08
643.987	1.08
644.021	21.08
644.055	26.08
644.088	1.08
644.122	3.08
644.156	0.08
644.19	4.08
644.224	4.08
644.257	0.08
644.291	17.08
644.325	18.08
644.359	9.08
644.392	32.08
644.426	23.08
644.46	21.08
644.494	13.08
644.527	-8.92
644.561	13.08
644.595	17.08
644.629	-3.92
644.662	6.08
644.696	24.08
644.73	8.08
644.764	-3.92
644.797	-16.92
644.831	6.08
644.865	18.08
644.899	-3.92
644.932	12.08
644.966	2.08
645	29.08
645.033	12.08
645.067	5.08
645.101	18.08
645.135	-5.92
645.168	-7.92
645.202	8.08
645.236	-3.92
645.269	10.08
645.303	7.08
645.337	-5.92
645.37	-7.92
645.404	13.08
645.438	6.08
645.471	10.08
645.505	15.08
645.539	20.08
645.572	-2.92
645.606	7.08
645.64	1.08
645.673	22.08
645.707	15.08
645.741	2.08
645.774	9.08
645.808	11.08
645.842	5.08
645.875	9.08
645.909	8.08
645.943	4.08
645.976	6.08
646.01	6.08
646.043	20.08
646.077	16.08
646.111	21.08
646.144	24.08
646.178	6.08
646.212	-30.92
646.245	-6.92
646.279	12.08
646.312	15.08
646.346	1.08
646.38	-8.92
646.413	25.08
646.447	7.08
646.48	-11.92
646.514	7.08
646.547	-0.92
646.581	-0.92
646.615	0.08
646.648	-9.92
646.682	-2.92
646.715	5.08
646.749	12.08
646.782	1.08
646.816	-2.92
646.85	19.08
646.883	6.08
646.917	1.08
646.95	25.08
646.984	7.08
647.017	3.08
647.051	11.08
647.084	14.08
647.118	0.08
647.151	11.08
647.185	4.08
647.218	-9.92
647.252	16.08
647.285	-8.92
647.319	-8.92
647.353	6.08
647.386	31.08
647.42	4.08
647.453	-3.92
647.487	2.08
647.52	1.08
647.553	13.08
647.587	4.08
647.62	-3.92
647.654	1.08
647.687	6.08
647.721	7.08
647.754	11.08
647.788	15.08
647.821	-3.92
647.855	3.08
647.888	9.08
647.922	21.08
647.955	9.08
647.989	0.08
648.022	5.08
648.055	5.08
648.089	15.08
648.122	29.08
648.156	-0.92
648.189	5.08
648.223	9.08
648.256	8.08
648.29	5.08
648.323	2.08
648.356	12.08
648.39	17.08
648.423	11.08
648.457	2.08
648.49	12.08
648.523	15.08
648.557	-8.92
648.59	5.08
648.624	2.08
648.657	10.08
648.69	21.08
648.724	16.08
648.757	14.08
648.791	10.08
648.824	28.08
648.857	26.08
648.891	6.08
648.924	5.08
648.957	7.08
648.991	-4.92
649.024	24.08
649.057	7.08
649.091	-3.92
649.124	19.08
649.158	8.08
649.191	34.08
649.224	2.08
649.258	21.08
649.291	16.08
649.324	-5.92
649.358	-5.92
649.391	4.08
649.424	-5.92
649.458	-10.92
649.491	-3.92
649.524	0.08
649.557	1.08
649.591	-2.92
649.624	10.08
649.657	-4.92
649.691	4.08
649.724	8.08
649.757	-5.92
649.791	-10.92
649.824	32.08
649.857	21.08
649.89	16.08
649.924	-1.92
649.957	1.08
649.99	-1.92
650.023	3.08
650.057	18.08
650.09	12.08
650.123	1.08
650.157	23.08
650.19	20.08
650.223	5.08
650.256	-1.92
650.29	-2.92
650.323	4.08
650.356	22.08
650.389	7.08
650.423	-5.92
650.456	17.08
650.489	2.08
650.522	5.08
650.555	8.08
650.589	10.08
650.622	4.08
650.655	16.08
650.688	10.08
650.721	9.08
650.755	20.08
650.788	28.08
650.821	5.08
650.854	-2.92
650.887	13.08
650.921	8.08
650.954	2.08
650.987	0.08
651.02	-8.92
651.053	2.08
651.087	-5.92
651.12	21.08
651.153	14.08
651.186	-3.92
651.219	-0.92
651.252	7.08
651.286	4.08
651.319	-3.92
651.352	-4.92
651.385	-4.92
651.418	5.08
651.451	23.08
651.484	19.08
651.518	7.08
651.551	23.08
651.584	0.08
651.617	24.08
651.65	-1.92
651.683	19.08
651.716	11.08
651.749	6.08
651.783	-0.92
651.816	12.08
651.849	21.08
651.882	12.08
651.915	4.08
651.948	7.08
651.981	-0.92
652.014	0.08
652.047	-10.92
652.08	-4.92
652.114	8.08
652.147	4.08
652.18	16.08
652.213	29.08
652.246	-9.92
652.279	8.08
652.312	13.08
652.345	13.08
652.378	9.08
652.411	4.08
652.444	6.08
652.477	-2.92
652.51	15.08
652.543	-17.92
652.576	2.08
652.609	2.08
652.642	25.08
652.675	18.08
652.709	2.08
652.742	1.08
652.775	-1.92
652.808	9.08
652.841	-1.92
652.874	5.08
652.907	-7.92
652.94	6.08
652.973	9.08
653.006	5.08
653.039	7.08
653.072	1.08
653.105	-0.92
653.138	-3.92
653.171	3.08
653.204	-3.92
653.237	14.08
653.27	3.08
653.303	26.08
653.336	11.08
653.368	3.08
653.401	12.08
653.434	6.08
653.467	14.08
653.5	-7.92
653.533	0.08
653.566	24.08
653.599	16.08
653.632	7.08
653.665	11.08
653.698	-15.92
653.731	6.08
653.764	0.08
653.797	10.08
653.83	18.08
653.863	-6.92
653.896	1.08
653.929	-5.92
653.961	-5.92
653.994	-10.92
654.027	-5.92
654.06	8.08
654.093	-6.92
654.126	9.08
654.159	4.08
654.192	15.08
654.225	1.08
654.258	-3.92
654.29	-6.92
654.323	12.08
654.356	9.08
654.389	15.08
654.422	12.08
654.455	21.08
654.488	11.08
654.521	-6.92
654.553	15.08
654.586	11.08
654.619	2.08
654.652	-8.92
654.685	12.08
654.718	19.08
654.751	7.08
654.783	6.08
654.816	23.08
654.849	5.08
654.882	-14.92
654.915	8.08
654.948	11.08
654.98	7.08
655.013	-3.92
655.046	8.08
655.079	0.08
655.112	5.08
655.144	7.08
655.177	22.08
655.21	22.08
655.243	15.08
655.276	22.08
655.308	6.08
655.341	7.08
655.374	-0.92
655.407	12.08
655.44	19.08
655.472	3.08
655.505	18.08
655.538	14.08
655.571	19.08
655.603	2.08
655.636	6.08
655.669	25.08
655.702	42.08
655.734	16.08
655.767	33.08
655.8	18.08
655.833	39.08
655.865	30.08
655.898	23.08
655.931	34.08
655.964	36.08
655.996	68.08
656.029	72.08
656.062	64.08
656.095	67.08
656.127	59.08
656.16	103.08
656.193	128.08
656.225	183.08
656.258	279.08
656.291	497.08
656.324	1104.08
656.356	3305.08
656.389	7435.08
656.422	5908.08
656.454	2031.08
656.487	667.08
656.52	264.08
656.552	134.08
656.585	87.08
656.618	65.08
656.65	36.08
656.683	12.08
656.716	38.08
656.748	10.08
656.781	8.08
656.814	-7.92
656.846	13.08
656.879	2.08
656.912	16.08
656.944	-10.92
656.977	-4.92
657.01	7.08
657.042	13.08
657.075	9.08
657.108	4.08
657.14	20.08
657.173	12.08
657.205	26.08
657.238	16.08
657.271	-0.92
657.303	-5.92
657.336	-6.92
657.369	11.08
657.401	-0.92
657.434	6.08
657.466	10.08
657.499	18.08
657.532	-0.92
657.564	13.08
657.597	13.08
657.629	6.08
657.662	8.08
657.694	12.08
657.727	-0.92
657.76	33.08
657.792	9.08
657.825	-5.92
657.857	10.08
657.89	-3.92
657.922	10.08
657.955	-8.92
657.987	6.08
658.02	16.08
658.053	8.08
658.085	9.08
658.118	7.08
658.15	22.08
658.183	12.08
658.215	3.08
658.248	8.08
658.28	-5.92
658.313	22.08
658.345	9.08
658.378	6.08
658.41	-7.92
658.443	16.08
658.475	5.08
658.508	-1.92
658.54	0.08
658.573	-15.92
658.605	5.08
658.638	7.08
658.67	9.08
658.703	13.08
658.735	-4.92
658.768	3.08
658.8	-3.92
658.833	30.08
658.865	13.08
658.898	-3.92
658.93	1.08
658.963	7.08
658.995	-22.92
659.028	8.08
659.06	3.08
659.092	-2.92
659.125	5.08
659.157	23.08
659.19	15.08
659.222	10.08
659.255	-1.92
659.287	4.08
659.32	9.08
659.352	9.08
659.384	8.08
659.417	11.08
659.449	12.08
659.482	4.08
659.514	13.08
659.546	16.08
659.579	6.08
659.611	14.08
659.644	8.08
659.676	0.08
659.708	-2.92
659.741	7.08
659.773	12.08
659.806	10.08
659.838	8.08
659.87	17.08
659.903	5.08
659.935	10.08
659.967	12.08
660	9.08
660.032	-2.92
660.065	17.08
660.097	17.08
660.129	6.08
660.162	2.08
660.194	25.08
660.226	21.08
660.259	9.08
660.291	9.08
660.323	1.08
660.356	4.08
660.388	0.08
660.42	-1.92
660.453	-1.92
660.485	16.08
660.517	26.08
660.55	27.08
660.582	0.08
660.614	4.08
660.647	4.08
660.679	-10.92
660.711	7.08
660.743	-12.92
660.776	-2.92
660.808	-0.92
660.84	-7.92
660.873	-9.92
660.905	1.08
660.937	6.08
660.969	-3.92
661.002	5.08
661.034	22.08
661.066	12.08
661.099	18.08
661.131	17.08
661.163	1.08
661.195	14.08
661.228	11.08
661.26	-2.92
661.292	4.08
661.324	8.08
661.357	15.08
661.389	1.08
661.421	-8.92
661.453	15.08
661.485	7.08
661.518	15.08
661.55	-14.92
661.582	-9.92
661.614	8.08
661.647	8.08
661.679	25.08
661.711	17.08
661.743	5.08
661.775	11.08
661.808	20.08
661.84	-14.92
661.872	12.08
661.904	0.08
661.936	15.08
661.969	-2.92
662.001	-2.92
662.033	8.08
662.065	1.08
662.097	3.08
662.129	17.08
662.162	-16.92
662.194	10.08
662.226	10.08
662.258	11.08
662.29	2.08
662.322	1.08
662.355	0.08
662.387	22.08
662.419	16.08
662.451	14.08
662.483	13.08
662.515	-10.92
662.547	5.08
662.58	6.08
662.612	13.08
662.644	10.08
662.676	-2.92
662.708	17.08
662.74	3.08
662.772	2.08
662.804	7.08
662.836	5.08
662.869	-0.92
662.901	10.08
662.933	4.08
662.965	32.08
662.997	26.08
663.029	-7.92
663.061	15.08
663.093	1.08
663.125	18.08
663.157	18.08
663.189	3.08
663.221	9.08
663.254	14.08
663.286	8.08
663.318	-8.92
663.35	-11.92
663.382	-1.92
663.414	0.08
663.446	20.08
663.478	2.08
663.51	28.08
663.542	-1.92
663.574	3.08
663.606	4.08
663.638	-17.92
663.67	-8.92
663.702	-7.92
663.734	-2.92
663.766	0.08
663.798	-1.92
663.83	28.08
663.862	7.08
663.894	8.08
663.926	15.08
663.958	13.08
663.99	9.08
664.022	-12.92
664.054	12.08
664.086	-17.92
664.118	-14.92
664.15	-0.92
664.182	-0.92
664.214	-2.92
664.246	24.08
664.278	15.08
664.31	16.08
664.342	7.08
664.374	8.08
664.406	-2.92
664.438	1.08
664.47	24.08
664.502	-7.92
664.534	2.08
664.566	6.08
664.598	7.08
664.63	12.08
664.662	14.08
664.693	-1.92
664.725	-11.92
664.757	0.08
664.789	-15.92
664.821	10.08
664.853	4.08
664.885	0.08
664.917	-8.92
664.949	16.08
664.981	23.08
665.013	2.08
665.045	-8.92
665.076	-0.92
665.108	-1.92
665.14	14.08
665.172	5.08
665.204	-2.92
665.236	-11.92
665.268	20.08
665.3	-0.92
665.331	-7.92
665.363	-4.92
665.395	-3.92
665.427	-2.92
665.459	-3.92
665.491	7.08
665.523	14.08
665.555	9.08
665.586	6.08
665.618	-3.92
665.65	1.08
665.682	9.08
665.714	22.08
665.746	-0.92
665.777	2.08
665.809	-3.92
665.841	8.08
665.873	4.08
665.905	-1.92
665.937	17.08
665.968	6.08
666	-7.92
666.032	1.08
666.064	0.08
666.096	-0.92
666.127	2.08
666.159	17.08
666.191	13.08
666.223	-0.92
666.255	4.08
666.286	-8.92
666.318	1.08
666.35	31.08
666.382	13.08
666.413	8.08
666.445	-8.92
666.477	-18.92
666.509	-7.92
666.54	-1.92
666.572	9.08
666.604	8.08
666.636	5.08
666.667	3.08
666.699	21.08
666.731	8.08
666.763	0.08
666.794	10.08
666.826	19.08
666.858	12.08
666.89	21.08
666.921	-8.92
666.953	5.08
666.985	8.08
667.017	26.08
667.048	13.08
667.08	-3.92
667.112	4.08
667.143	0.08
667.175	-0.92
667.207	6.08
667.238	15.08
667.27	8.08
667.302	11.08
667.334	3.08
667.365	31.08
667.397	3.08
667.429	-1.92
667.46	24.08
667.492	14.08
667.524	5.08
667.555	-3.92
667.587	12.08
667.619	-6.92
667.65	3.08
667.682	5.08
667.714	15.08
667.745	-3.92
667.777	-6.92
667.808	17.08
667.84	10.08
667.872	-14.92
667.903	22.08
667.935	0.08
667.967	4.08
667.998	12.08
668.03	20.08
668.061	16.08
668.093	-9.92
668.125	9.08
668.156	11.08
668.188	18.08
668.22	9.08
668.251	14.08
668.283	15.08
668.314	26.08
668.346	-6.92
668.377	7.08
668.409	-1.92
668.441	17.08
668.472	13.08
668.504	9.08
668.535	-3.92
668.567	1.08
668.599	13.08
668.63	1.08
668.662	0.08
668.693	17.08
668.725	24.08
668.756	16.08
668.788	12.08
668.819	5.08
668.851	-8.92
668.882	8.08
668.914	9.08
668.946	4.08
668.977	0.08
669.009	2.08
669.04	-15.92
669.072	3.08
669.103	-1.92
669.135	17.08
669.166	8.08
669.198	12.08
669.229	13.08
669.261	4.08
669.292	-3.92
669.324	5.08
669.355	22.08
669.387	-13.92
669.418	2.08
669.45	-4.92
669.481	32.08
669.513	19.08
669.544	15.08
669.576	-0.92
669.607	0.08
669.639	12.08
669.67	7.08
669.701	12.08
669.733	-14.92
669.764	-17.92
669.796	-3.92
669.827	-11.92
669.859	-7.92
669.89	10.08
669.922	8.08
669.953	13.08
669.985	10.08
670.016	17.08
670.047	0.08
670.079	15.08
670.11	28.08
670.142	13.08
670.173	8.08
670.204	15.08
670.236	2.08
670.267	-5.92
670.299	-5.92
670.33	6.08
670.362	5.08
670.393	-14.92
670.424	5.08
670.456	-3.92
670.487	1.08
670.518	16.08
670.55	10.08
670.581	11.08
670.613	5.08
670.644	-10.92
670.675	-23.92
670.707	-8.92
670.738	-11.92
670.769	13.08
670.801	-2.92
670.832	-1.92
670.864	-17.92
670.895	7.08
670.926	-7.92
670.958	8.08
670.989	11.08
671.02	23.08
671.052	7.08
671.083	8.08
671.114	4.08
671.146	14.08
671.177	-1.92
671.208	0.08
671.24	-10.92
671.271	12.08
671.302	23.08
671.333	6.08
671.365	-1.92
671.396	1.08
671.427	16.08
671.459	8.08
671.49	6.08
671.521	14.08
671.553	9.08
671.584	32.08
671.615	-4.92
671.646	10.08
671.678	-1.92
671.709	-6.92
671.74	-12.92
671.771	-6.92
671.803	-5.92
671.834	8.08
671.865	14.08
671.896	32.08
671.928	-5.92
671.959	5.08
671.99	-10.92
672.021	12.08
672.053	1.08
672.084	20.08
672.115	30.08
672.146	4.08
672.178	-15.92
672.209	2.08
672.24	3.08
672.271	20.08
672.303	20.08
672.334	3.08
672.365	0.08
672.396	-1.92
672.427	2.08
672.459	21.08
672.49	31.08
672.521	10.08
672.552	4.08
672.583	23.08
672.615	5.08
672.646	21.08
672.677	-6.92
672.708	-5.92
672.739	2.08
672.77	7.08
672.802	18.08
672.833	1.08
672.864	16.08
672.895	5.08
672.926	5.08
672.957	-11.92
672.989	12.08
673.02	13.08
673.051	1.08
673.082	11.08
673.113	5.08
673.144	15.08
673.175	2.08
673.206	4.08
673.238	6.08
673.269	0.08
673.3	-9.92
673.331	21.08
673.362	5.08
673.393	2.08
673.424	12.08
673.455	21.08
673.487	19.08
673.518	26.08
673.549	8.08
673.58	2.08
673.611	14.08
673.642	23.08
673.673	-19.92
673.704	3.08
673.735	-3.92
673.766	-20.92
673.797	2.08
673.828	4.08
673.86	-14.92
673.891	0.08
673.922	-1.92
673.953	-1.92
673.984	11.08
674.015	5.08
674.046	7.08
674.077	21.08
674.108	-5.92
674.139	5.08
674.17	-14.92
674.201	-16.92
674.232	5.08
674.263	-13.92
674.294	-10.92
674.325	-1.92
674.356	9.08
674.387	17.08
674.418	24.08
674.449	5.08
674.48	4.08
674.511	8.08
674.542	17.08
674.573	1.08
674.604	16.08
674.635	6.08
674.666	14.08
674.697	-0.92
674.728	-3.92
674.759	-13.92
674.79	-0.92
674.821	-9.92
674.852	7.08
674.883	-9.92
674.914	11.08
674.945	0.08
674.976	12.08
675.007	8.08
675.038	-6.92
675.069	-3.92
675.1	17.08
675.131	-4.92
675.162	0.08
675.193	5.08
675.224	5.08
675.254	4.08
675.285	18.08
675.316	8.08
675.347	-5.92
675.378	4.08
675.409	-7.92
675.44	11.08
675.471	0.08
675.502	-4.92
675.533	4.08
675.564	1.08
675.595	7.08
675.625	16.08
675.656	-3.92
675.687	11.08
675.718	4.08
675.749	13.08
675.78	6.08
675.811	-4.92
675.842	20.08
675.873	2.08
675.903	8.08
675.934	-4.92
675.965	-5.92
675.996	-17.92
676.027	20.08
676.058	-7.92
676.089	0.08
676.119	10.08
676.15	21.08
676.181	-2.92
676.212	-5.92
676.243	6.08
676.274	-7.92
676.304	7.08
676.335	-14.92
676.366	0.08
676.397	9.08
676.428	8.08
676.459	19.08
676.489	10.08
676.52	10.08
676.551	20.08
676.582	7.08
676.613	0.08
676.643	-2.92
676.674	11.08
676.705	12.08
676.736	13.08
676.767	25.08
676.797	30.08
676.828	15.08
676.859	10.08
676.89	9.08
676.92	17.08
676.951	9.08
676.982	11.08
677.013	18.08
677.044	29.08
677.074	10.08
677.105	-9.92
677.136	9.08
677.167	-5.92
677.197	10.08
677.228	8.08
677.259	-5.92
677.289	9.08
677.32	-15.92
677.351	10.08
677.382	0.08
677.412	-3.92
677.443	1.08
677.474	-3.92
677.505	7.08
677.535	1.08
677.566	14.08
677.597	6.08
677.627	13.08
677.658	6.08
677.689	-14.92
677.72	13.08
677.75	20.08
677.781	9.08
677.812	3.08
677.842	11.08
677.873	20.08
677.904	-1.92
677.934	1.08
677.965	-6.92
677.996	-17.92
678.026	-1.92
678.057	10.08
678.088	1.08
678.118	-4.92
678.149	-4.92
678.18	3.08
678.21	0.08
678.241	13.08
678.272	10.08
678.302	4.08
678.333	-0.92
678.363	9.08
678.394	-2.92
678.425	-4.92
678.455	7.08
678.486	20.08
678.517	2.08
678.547	-3.92
678.578	7.08
678.608	0.08
678.639	9.08
678.67	5.08
678.7	-10.92
678.731	-22.92
678.761	-5.92
678.792	11.08
678.823	5.08
678.853	1.08
678.884	-5.92
678.914	16.08
678.945	6.08
678.975	-4.92
679.006	18.08
679.037	5.08
679.067	7.08
679.098	-2.92
679.128	-0.92
679.159	15.08
679.189	18.08
679.22	11.08
679.25	6.08
679.281	-0.92
679.312	-2.92
679.342	5.08
679.373	31.08
679.403	21.08
679.434	5.08
679.464	0.08
679.495	12.08
679.525	17.08
679.556	6.08
679.586	17.08
679.617	7.08
679.647	6.08
679.678	15.08
679.708	18.08
679.739	6.08
679.769	-1.92
679.8	1.08
679.83	8.08
679.861	13.08
679.891	6.08
679.922	-11.92
679.952	12.08
679.983	-6.92
680.013	-2.92
680.044	-12.92
680.074	17.08
680.105	27.08
680.135	16.08
680.165	2.08
680.196	-0.92
680.226	10.08
680.257	22.08
680.287	10.08
680.318	7.08
680.348	-8.92
680.379	5.08
680.409	2.08
680.439	9.08
680.47	-0.92
680.5	2.08
680.531	4.08
680.561	15.08
680.592	20.08
680.622	7.08
680.652	3.08
680.683	1.08
680.713	-1.92
680.744	-26.92
680.774	-4.92
680.804	11.08
680.835	-7.92
680.865	-4.92
680.896	10.08
680.926	28.08
680.956	20.08
680.987	8.08
681.017	1.08
681.047	9.08
681.078	-6.92
681.108	1.08
681.139	7.08
681.169	4.08
681.199	11.08
681.23	0.08
681.26	2.08
681.29	17.08
681.321	-9.92
681.351	-3.92
681.381	3.08
681.412	8.08
681.442	-3.92
681.472	10.08
681.503	8.08
681.533	18.08
681.563	20.08
681.594	-13.92
681.624	20.08
681.654	-7.92
681.685	8.08
681.715	9.08
681.745	-1.92
681.775	-18.92
681.806	6.08
681.836	5.08
681.866	12.08
681.897	2.08
681.927	12.08
681.957	-11.92
681.987	16.08
682.018	-1.92
682.048	10.08
682.078	2.08
682.109	34.08
682.139	18.08
682.169	7.08
682.199	-7.92
682.23	4.08
682.26	13.08
682.29	-1.92
682.32	-12.92
682.351	-8.92
682.381	-10.92
682.411	3.08
682.441	-6.92
682.472	-11.92
682.502	6.08
682.532	3.08
682.562	2.08
682.592	5.08
682.623	13.08
682.653	4.08
682.683	-7.92
682.713	14.08
682.743	11.08
682.774	1.08
682.804	7.08
682.834	27.08
682.864	6.08
682.894	6.08
682.925	1.08
682.955	-4.92
682.985	-12.92
683.015	0.08
683.045	16.08
683.076	-13.92
683.106	1.08
683.136	-8.92
683.166	3.08
683.196	0.08
683.226	2.08
683.257	-10.92
683.287	1.08
683.317	9.08
683.347	-19.92
683.377	2.08
683.407	17.08
683.437	28.08
683.468	24.08
683.498	5.08
683.528	3.08
683.558	8.08
683.588	8.08
683.618	8.08
683.648	-0.92
683.678	11.08
683.708	16.08
683.739	3.08
683.769	7.08
683.799	0.08
683.829	-8.92
683.859	25.08
683.889	8.08
683.919	-1.92
683.949	20.08
683.979	8.08
684.009	-2.92
684.039	-7.92
684.07	-8.92
684.1	19.08
684.13	-0.92
684.16	5.08
684.19	3.08
684.22	3.08
684.25	0.08
684.28	-4.92
684.31	38.08
684.34	15.08
684.37	23.08
684.4	-2.92
684.43	12.08
684.46	7.08
684.49	10.08
684.52	15.08
684.55	17.08
684.58	-0.92
684.61	11.08
684.64	13.08
684.67	30.08
684.7	13.08
684.73	29.08
684.76	-2.92
684.79	17.08
684.82	4.08
684.85	-8.92
684.88	4.08
684.91	2.08
684.94	1.08
684.97	2.08
685	10.08
685.03	7.08
685.06	-9.92
685.09	0.08
685.12	25.08
685.15	3.08
685.18	4.08
685.21	0.08
685.24	4.08
685.27	16.08
685.3	-2.92
685.33	24.08
685.36	3.08
685.39	0.08
685.42	0.08
685.45	-2.92
685.48	0.08
685.51	6.08
685.54	21.08
685.569	25.08
685.599	21.08
685.629	13.08
685.659	-1.92
685.689	14.08
685.719	12.08
685.749	-1.92
685.779	12.08
685.809	10.08
685.839	4.08
685.869	8.08
685.898	16.08
685.928	20.08
685.958	-0.92
685.988	10.08
686.018	-10.92
686.048	7.08
686.078	21.08
686.108	5.08
686.137	10.08
686.167	27.08
686.197	-23.92
686.227	6.08
686.257	14.08
686.287	11.08
686.317	24.08
686.346	7.08
686.376	-3.92
686.406	2.08
686.436	13.08
686.466	8.08
686.496	7.08
686.525	20.08
686.555	-0.92
686.585	24.08
686.615	28.08
686.645	0.08
686.675	-0.92
686.704	15.08
686.734	14.08
686.764	1.08
686.794	6.08
686.824	3.08
686.853	12.08
686.883	13.08
686.913	6.08
686.943	4.08
686.973	-6.92
687.002	4.08
687.032	6.08
687.062	1.08
687.092	24.08
687.121	17.08
687.151	3.08
687.181	11.08
687.211	20.08
687.24	11.08
687.27	15.08
687.3	6.08
687.33	7.08
687.359	-2.92
687.389	22.08
687.419	-0.92
687.449	8.08
687.478	10.08
687.508	-0.92
687.538	16.08
687.568	8.08
687.597	1.08
687.627	6.08
687.657	12.08
687.686	12.08
687.716	25.08
687.746	-7.92
687.776	-4.92
687.805	1.08
687.835	1.08
687.865	24.08
687.894	6.08
687.924	-8.92
687.954	1.08
687.983	3.08
688.013	15.08
688.043	25.08
688.072	4.08
688.102	20.08
688.132	12.08
688.161	-2.92
688.191	6.08
688.221	10.08
688.25	-9.92
688.28	-1.92
688.31	1.08
688.339	11.08
688.369	2.08
688.399	-4.92
688.428	5.08
688.458	17.08
688.488	-13.92
688.517	11.08
688.547	4.08
688.576	39.08
688.606	18.08
688.636	-5.92
688.665	-0.92
688.695	14.08
688.725	16.08
688.754	17.08
688.784	11.08
688.813	9.08
688.843	3.08
688.873	14.08
688.902	16.08
688.932	9.08
688.961	23.08
688.991	18.08
689.02	21.08
689.05	1.08
689.08	16.08
689.109	12.08
689.139	-1.92
689.168	15.08
689.198	6.08
689.227	6.08
689.257	7.08
689.287	12.08
689.316	16.08
689.346	5.08
689.375	-4.92
689.405	6.08
689.434	17.08
689.464	29.08
689.493	15.08
689.523	12.08
689.552	10.08
689.582	27.08
689.611	8.08
689.641	19.08
689.67	-1.92
689.7	12.08
689.73	8.08
689.759	26.08
689.789	18.08
689.818	7.08
689.848	-9.92
689.877	28.08
689.906	1.08
689.936	5.08
689.965	-0.92
689.995	7.08
690.024	15.08
690.054	-4.92
690.083	-3.92
690.113	3.08
690.142	13.08
690.172	12.08
690.201	4.08
690.231	16.08
690.26	19.08
690.29	7.08
690.319	16.08
690.348	6.08
690.378	7.08
690.407	22.08
690.437	8.08
690.466	1.08
690.496	8.08
690.525	0.08
690.555	-8.92
690.584	4.08
690.613	11.08
690.643	16.08
690.672	13.08
690.702	-4.92
690.731	-1.92
690.76	0.08
690.79	-2.92
690.819	0.08
690.849	1.08
690.878	-6.92
690.907	1.08
690.937	17.08
690.966	24.08
690.996	13.08
691.025	4.08
691.054	6.08
691.084	6.08
691.113	4.08
691.142	5.08
691.172	24.08
691.201	22.08
691.23	9.08
691.26	6.08
691.289	4.08
691.319	-2.92
691.348	26.08
691.377	20.08
691.407	4.08
691.436	-3.92
691.465	7.08
691.495	8.08
691.524	5.08
691.553	7.08
691.583	7.08
691.612	19.08
691.641	18.08
691.67	17.08
691.7	0.08
691.729	8.08
691.758	17.08
691.788	6.08
691.817	14.08
691.846	-7.92
691.876	-5.92
691.905	9.08
691.934	15.08
691.963	25.08
691.993	20.08
692.022	-7.92
692.051	-14.92
692.081	4.08
692.11	27.08
692.139	20.08
692.168	12.08
692.198	20.08
692.227	3.08
692.256	-15.92
692.285	-7.92
692.315	-0.92
692.344	7.08
692.373	7.08
692.402	-4.92
692.432	3.08
692.461	-0.92
692.49	4.08
692.519	9.08
692.548	29.08
692.578	26.08
692.607	4.08
692.636	-3.92
692.665	11.08
692.694	12.08
692.724	9.08
692.753	17.08
692.782	12.08
692.811	-4.92
692.84	-1.92
692.87	4.08
692.899	12.08
692.928	1.08
692.957	10.08
692.986	11.08
693.016	7.08
693.045	12.08
693.074	4.08
693.103	13.08
693.132	6.08
693.161	19.08
693.191	4.08
693.22	-3.92
693.249	5.08
693.278	0.08
693.307	12.08
693.336	-12.92
693.365	-2.92
693.395	20.08
693.424	11.08
693.453	9.08
693.482	13.08
693.511	9.08
693.54	14.08
693.569	5.08
693.598	14.08
693.628	18.08
693.657	15.08
693.686	27.08
693.715	18.08
693.744	20.08
693.773	10.08
693.802	4.08
693.831	6.08
693.86	29.08
693.889	-11.92
693.919	5.08
693.948	-7.92
693.977	1.08
694.006	-1.92
694.035	-6.92
694.064	10.08
694.093	18.08
694.122	9.08
694.151	2.08
694.18	11.08
694.209	38.08
694.238	5.08
694.267	16.08
694.296	3.08
694.325	2.08
694.354	5.08
694.383	19.08
694.412	3.08
694.441	5.08
694.471	5.08
694.5	-6.92
694.529	9.08
694.558	4.08
694.587	2.08
694.616	-5.92
694.645	0.08
694.674	31.08
694.703	13.08
694.732	4.08
694.761	22.08
694.79	23.08
694.819	-1.92
694.848	1.08
694.877	29.08
694.906	23.08
694.935	3.08
694.963	21.08
694.992	16.08
695.021	8.08
695.05	32.08
695.079	14.08
695.108	7.08
695.137	37.08
695.166	19.08
695.195	12.08
695.224	31.08
695.253	3.08
695.282	-5.92
695.311	1.08
695.34	5.08
695.369	10.08
695.398	0.08
695.427	27.08
695.456	8.08
695.485	9.08
695.513	-6.92
695.542	0.08
695.571	12.08
695.6	18.08
695.629	-1.92
695.658	5.08
695.687	-0.92
695.716	7.08
695.745	30.08
695.774	5.08
695.802	10.08
695.831	16.08
695.86	14.08
695.889	27.08
695.918	8.08
695.947	9.08
695.976	5.08
696.005	-6.92
696.033	-4.92
696.062	7.08
696.091	24.08
696.12	9.08
696.149	9.08
696.178	6.08
696.207	16.08
696.235	-6.92
696.264	13.08
696.293	10.08
696.322	7.08
696.351	8.08
696.38	10.08
696.408	6.08
696.437	6.08
696.466	8.08
696.495	14.08
696.524	13.08
696.553	23.08
696.581	12.08
696.61	4.08
696.639	16.08
696.668	23.08
696.697	8.08
696.725	17.08
696.754	9.08
696.783	-1.92
696.812	0.08
696.84	23.08
696.869	4.08
696.898	-21.92
696.927	2.08
696.956	27.08
696.984	-2.92
697.013	9.08
697.042	-0.92
697.071	10.08
697.099	4.08
697.128	7.08
697.157	-0.92
697.186	-10.92
697.214	2.08
697.243	4.08
697.272	-8.92
697.301	4.08
697.329	12.08
697.358	7.08
697.387	28.08
697.415	8.08
697.444	14.08
697.473	15.08
697.502	0.08
697.53	13.08
697.559	10.08
697.588	4.08
697.616	6.08
697.645	5.08
697.674	5.08
697.703	17.08
697.731	18.08
697.76	18.08
697.789	6.08
697.817	11.08
697.846	23.08
697.875	9.08
697.903	19.08
697.932	29.08
697.961	10.08
697.989	10.08
698.018	6.08
698.047	-3.92
698.075	10.08
698.104	8.08
698.133	8.08
698.161	2.08
698.19	-11.92
698.218	-8.92
698.247	7.08
698.276	1.08
698.304	-3.92
698.333	-2.92
698.362	6.08
698.39	-2.92
698.419	15.08
698.447	14.08
698.476	7.08
698.505	11.08
698.533	19.08
698.562	9.08
698.591	1.08
698.619	5.08
698.648	-8.92
698.676	3.08
698.705	9.08
698.733	6.08
698.762	6.08
698.791	14.08
698.819	22.08
698.848	-3.92
698.876	12.08
698.905	15.08
698.933	19.08
698.962	8.08
698.991	21.08
699.019	32.08
699.048	9.08
699.076	19.08
699.105	1.08
699.133	-3.92
699.162	0.08
699.19	21.08
699.219	0.08
699.248	3.08
699.276	1.08
699.305	-6.92
699.333	9.08
699.362	-0.92
699.39	4.08
699.419	1.08
699.447	16.08
699.476	34.08
699.504	2.08
699.533	21.08
699.561	-2.92
699.59	14.08
699.618	0.08
699.647	21.08
699.675	9.08
699.704	10.08
699.732	-0.92
699.761	3.08
699.789	-5.92
699.818	0.08
699.846	2.08
699.874	4.08
699.903	-1.92
699.931	-2.92
699.96	12.08
699.988	4.08
700.017	11.08
700.045	4.08
700.074	-9.92
700.102	17.08
700.13	5.08
700.159	10.08
700.187	7.08
700.216	-3.92
700.244	7.08
700.273	25.08
700.301	0.08
700.329	13.08
700.358	13.08
700.386	-5.92
700.415	3.08
700.443	16.08
700.472	18.08
700.5	2.08
700.528	12.08
700.557	-10.92
700.585	-6.92
700.614	-9.92
700.642	6.08
700.67	19.08
700.699	10.08
700.727	6.08
700.755	16.08
700.784	-2.92
700.812	-2.92
700.841	5.08
700.869	4.08
700.897	5.08
700.926	8.08
700.954	1.08
700.982	-2.92
701.011	8.08
701.039	22.08
701.067	12.08
701.096	2.08
701.124	-3.92
701.152	4.08
701.181	3.08
701.209	-6.92
701.237	14.08
701.266	-1.92
701.294	0.08
701.322	15.08
701.351	13.08
701.379	2.08
701.407	-18.92
701.435	-10.92
701.464	4.08
701.492	18.08
701.52	7.08
701.549	19.08
701.577	2.08
701.605	3.08
701.634	12.08
701.662	17.08
701.69	-7.92
701.718	1.08
701.747	23.08
701.775	4.08
701.803	-3.92
701.831	16.08
701.86	-2.92
701.888	8.08
701.916	8.08
701.944	-10.92
701.973	-0.92
702.001	-16.92
702.029	-3.92
702.057	6.08
702.086	-15.92
702.114	-3.92
702.142	7.08
702.17	-2.92
702.199	-4.92
702.227	3.08
702.255	-8.92
702.283	-2.92
702.311	13.08
702.34	7.08
702.368	-3.92
702.396	5.08
702.424	8.08
702.452	5.08
702.481	10.08
702.509	5.08
702.537	11.08
702.565	3.08
702.593	-12.92
702.621	-0.92
702.65	6.08
702.678	14.08
702.706	2.08
702.734	3.08
702.762	-0.92
702.79	5.08
702.819	25.08
702.847	9.08
702.875	17.08
702.903	13.08
702.931	-4.92
702.959	7.08
702.988	29.08
703.016	1.08
703.044	12.08
703.072	-3.92
703.1	3.08
703.128	18.08
703.156	11.08
703.184	4.08
703.212	28.08
703.241	9.08
703.269	1.08
703.297	-1.92
703.325	5.08
703.353	-1.92
703.381	2.08
703.409	18.08
703.437	11.08
703.465	-5.92
703.493	-8.92
703.522	31.08
703.55	12.08
703.578	19.08
703.606	7.08
703.634	-7.92
703.662	7.08
703.69	-5.92
703.718	13.08
703.746	21.08
703.774	21.08
703.802	29.08
703.83	21.08
703.858	2.08
703.886	-5.92
703.914	0.08
703.942	8.08
703.97	-0.92
703.998	11.08
704.027	20.08
704.055	11.08
704.083	9.08
704.111	-0.92
704.139	-2.92
704.167	-3.92
704.195	12.08
704.223	2.08
704.251	-12.92
704.279	18.08
704.307	4.08
704.335	1.08
704.363	-10.92
704.391	1.08
704.419	5.08
704.447	-1.92
704.475	-2.92
704.503	-18.92
704.531	10.08
704.558	8.08
704.586	15.08
704.614	15.08
704.642	3.08
704.67	0.08
704.698	3.08
704.726	4.08
704.754	2.08
704.782	-5.92
704.81	-3.92
704.838	26.08
704.866	12.08
704.894	0.08
704.922	0.08
704.95	4.08
704.978	19.08
705.006	-2.92
705.034	15.08
705.061	9.08
705.089	11.08
705.117	4.08
705.145	0.08
705.173	6.08
705.201	17.08
705.229	16.08
705.257	13.08
705.285	12.08
705.313	8.08
705.34	2.08
705.368	-1.92
705.396	0.08
705.424	-1.92
705.452	2.08
705.48	15.08
705.508	2.08
705.536	3.08
705.563	7.08
705.591	3.08
705.619	16.08
705.647	12.08
705.675	-3.92
705.703	8.08
705.731	-6.92
705.758	-4.92
705.786	12.08
705.814	20.08
705.842	15.08
705.87	30.08
705.898	11.08
705.925	7.08
705.953	13.08
705.981	-10.92
706.009	-0.92
706.037	28.08
706.065	3.08
706.092	-4.92
706.12	13.08
706.148	14.08
706.176	12.08
706.204	24.08
706.231	16.08
706.259	8.08
706.287	-2.92
706.315	13.08
706.342	0.08
706.37	8.08
706.398	10.08
706.426	9.08
706.454	3.08
706.481	10.08
706.509	21.08
706.537	9.08
706.565	-2.92
706.592	15.08
706.62	4.08
706.648	11.08
706.676	0.08
706.703	0.08
706.731	16.08
706.759	-3.92
706.787	6.08
706.814	-4.92
706.842	-12.92
706.87	5.08
706.897	12.08
706.925	5.08
706.953	12.08
706.981	15.08
707.008	23.08
707.036	-17.92
707.064	-2.92
707.091	-15.92
707.119	14.08
707.147	11.08
707.174	-5.92
707.202	4.08
707.23	-1.92
707.258	-4.92
707.285	4.08
707.313	8.08
707.341	7.08
707.368	-6.92
707.396	8.08
707.424	21.08
707.451	-1.92
707.479	17.08
707.507	-2.92
707.534	5.08
707.562	6.08
707.59	6.08
707.617	13.08
707.645	7.08
707.672	9.08
707.7	5.08
707.728	11.08
707.755	21.08
707.783	2.08
707.811	5.08
707.838	7.08
707.866	12.08
707.893	-4.92
707.921	1.08
707.949	-6.92
707.976	4.08
708.004	16.08
708.031	5.08
708.059	15.08
708.087	14.08
708.114	-0.92
708.142	3.08
708.169	15.08
708.197	-3.92
708.225	2.08
708.252	-0.92
708.28	2.08
708.307	-6.92
708.335	-10.92
708.362	-5.92
708.39	-7.92
708.418	-4.92
708.445	11.08
708.473	15.08
708.5	9.08
708.528	11.08
708.555	5.08
708.583	-2.92
708.61	3.08
708.638	9.08
708.665	4.08
708.693	3.08
708.72	10.08
708.748	2.08
708.776	-4.92
708.803	22.08
708.831	22.08
708.858	10.08
708.886	6.08
708.913	6.08
708.941	13.08
708.968	19.08
708.996	1.08
709.023	43.08
709.051	4.08
709.078	10.08
709.105	5.08
709.133	7.08
709.16	14.08
709.188	3.08
709.215	7.08
709.243	1.08
709.27	-8.92
709.298	1.08
709.325	8.08
709.353	-3.92
709.38	11.08
709.408	17.08
709.435	17.08
709.462	8.08
709.49	4.08
709.517	13.08
709.545	11.08
709.572	4.08
709.6	7.08
709.627	-3.92
709.655	-9.92
709.682	3.08
709.709	-1.92
709.737	4.08
709.764	-0.92
709.792	-3.92
709.819	16.08
709.846	-3.92
709.874	1.08
709.901	10.08
709.929	31.08
709.956	21.08
709.983	1.08
710.011	3.08
710.038	-0.92
710.066	17.08
710.093	12.08
710.12	14.08
710.148	9.08
710.175	5.08
710.202	-16.92
710.23	10.08
710.257	4.08
710.284	17.08
710.312	8.08
710.339	9.08
710.366	-5.92
710.394	11.08
710.421	7.08
710.448	10.08
710.476	4.08
710.503	4.08
710.53	0.08
710.558	23.08
710.585	10.08
710.612	1.08
710.64	-1.92
710.667	22.08
710.694	-1.92
710.722	0.08
710.749	-3.92
710.776	13.08
710.804	16.08
710.831	11.08
710.858	4.08
710.885	2.08
710.913	3.08
710.94	18.08
710.967	13.08
710.995	-1.92
711.022	11.08
711.049	13.08
711.076	6.08
711.104	-1.92
711.131	-8.92
711.158	17.08
711.185	30.08
711.213	-11.92
711.24	-3.92
711.267	-3.92
711.294	1.08
711.322	11.08
711.349	-7.92
711.376	9.08
711.403	5.08
711.431	-0.92
711.458	17.08
711.485	16.08
711.512	8.08
711.54	-4.92
711.567	3.08
711.594	-5.92
711.621	9.08
711.648	0.08
711.676	3.08
711.703	3.08
711.73	0.08
711.757	12.08
711.784	3.08
711.812	1.08
711.839	2.08
711.866	3.08
711.893	0.08
711.92	7.08
711.947	11.08
711.975	5.08
712.002	-16.92
712.029	8.08
712.056	3.08
712.083	13.08
712.11	-1.92
712.138	11.08
712.165	5.08
712.192	-1.92
712.219	0.08
712.246	-14.92
712.273	-9.92
712.3	-0.92
712.328	10.08
712.355	4.08
712.382	-0.92
712.409	20.08
712.436	-2.92
712.463	9.08
712.49	12.08
712.517	0.08
712.544	4.08
712.572	13.08
712.599	2.08
712.626	17.08
712.653	8.08
712.68	0.08
712.707	22.08
712.734	-3.92
712.761	-3.92
712.788	6.08
712.815	3.08
712.842	7.08
712.87	-7.92
712.897	-3.92
712.924	-4.92
712.951	2.08
712.978	15.08
713.005	28.08
713.032	18.08
713.059	0.08
713.086	-3.92
713.113	-12.92
713.14	-6.92
713.167	0.08
713.194	18.08
713.221	8.08
713.248	7.08
713.275	3.08
713.302	-3.92
713.329	9.08
713.356	18.08
713.383	2.08
713.41	25.08
713.437	-9.92
713.464	-0.92
713.491	14.08
713.518	4.08
713.545	12.08
713.572	11.08
713.599	3.08
713.626	9.08
713.653	20.08
713.68	0.08
713.707	8.08
713.734	20.08
713.761	4.08
713.788	1.08
713.815	7.08
713.842	4.08
713.869	-4.92
713.896	0.08
713.923	7.08
713.95	2.08
713.977	1.08
714.004	1.08
714.031	11.08
714.058	-2.92
714.085	16.08
714.112	21.08
714.139	14.08
714.165	-16.92
714.192	-2.92
714.219	13.08
714.246	9.08
714.273	7.08
714.3	-5.92
714.327	-3.92
714.354	7.08
714.381	-0.92
714.408	4.08
714.435	8.08
714.461	13.08
714.488	3.08
714.515	-11.92
714.542	-1.92
714.569	-5.92
714.596	-0.92
714.623	0.08
714.65	-4.92
714.677	9.08
714.703	14.08
714.73	9.08
714.757	6.08
714.784	-2.92
714.811	-9.92
714.838	1.08
714.865	-10.92
714.891	23.08
714.918	3.08
714.945	-4.92
714.972	10.08
714.999	12.08
715.026	6.08
715.052	19.08
715.079	4.08
715.106	7.08
715.133	4.08
715.16	-4.92
715.187	14.08
715.213	14.08
715.24	3.08
715.267	3.08
715.294	6.08
715.321	0.08
715.347	-0.92
715.374	-14.92
715.401	3.08
715.428	4.08
715.455	11.08
715.481	-8.92
715.508	19.08
715.535	8.08
715.562	18.08
715.588	3.08
715.615	-0.92
715.642	7.08
715.669	21.08
715.695	-9.92
715.722	-5.92
715.749	7.08
715.776	8.08
715.802	13.08
715.829	19.08
715.856	-8.92
715.883	15.08
715.909	-12.92
715.936	4.08
715.963	-2.92
715.99	-3.92
716.016	12.08
716.043	5.08
716.07	1.08
716.096	-11.92
716.123	11.08
716.15	19.08
716.177	5.08
716.203	20.08
716.23	3.08
716.257	13.08
716.283	17.08
716.31	22.08
716.337	4.08
716.363	8.08
716.39	1.08
716.417	3.08
716.443	5.08
716.47	13.08
716.497	4.08
716.523	20.08
716.55	10.08
716.577	17.08
716.603	7.08
716.63	7.08
716.657	27.08
716.683	3.08
716.71	-6.92
716.737	-5.92
716.763	5.08
716.79	4.08
716.817	14.08
716.843	17.08
716.87	6.08
716.897	12.08
716.923	17.08
716.95	3.08
716.976	-1.92
717.003	11.08
717.03	13.08
717.056	15.08
717.083	6.08
717.109	18.08
717.136	21.08
717.163	14.08
717.189	17.08
717.216	-0.92
717.242	-6.92
717.269	-0.92
717.296	0.08
717.322	20.08
717.349	20.08
717.375	17.08
717.402	4.08
717.428	3.08
717.455	25.08
717.481	10.08
717.508	17.08
717.535	9.08
717.561	13.08
717.588	3.08
717.614	7.08
717.641	24.08
717.667	12.08
717.694	4.08
717.72	13.08
717.747	8.08
717.773	-0.92
717.8	23.08
717.826	14.08
717.853	9.08
717.88	14.08
717.906	-0.92
717.933	18.08
717.959	15.08
717.986	24.08
718.012	-3.92
718.039	4.08
718.065	6.08
718.092	28.08
718.118	4.08
718.144	2.08
718.171	18.08
718.197	22.08
718.224	5.08
718.25	11.08
718.277	11.08
718.303	15.08
718.33	-0.92
718.356	8.08
718.383	3.08
718.409	-6.92
718.436	-0.92
718.462	12.08
718.489	-0.92
718.515	17.08
718.541	20.08
718.568	17.08
718.594	10.08
718.621	7.08
718.647	0.08
718.674	17.08
718.7	6.08
718.726	-9.92
718.753	1.08
718.779	20.08
718.806	1.08
718.832	-3.92
718.858	13.08
718.885	5.08
718.911	2.08
718.938	14.08
718.964	0.08
718.99	8.08
719.017	10.08
719.043	9.08
719.07	10.08
719.096	2.08
719.122	11.08
719.149	3.08
719.175	6.08
719.201	11.08
719.228	-9.92
719.254	5.08
719.281	-5.92
719.307	10.08
719.333	-0.92
719.36	6.08
719.386	4.08
719.412	2.08
719.439	-12.92
719.465	10.08
719.491	-3.92
719.518	21.08
719.544	6.08
719.57	12.08
719.597	8.08
719.623	-0.92
719.649	18.08
719.675	15.08
719.702	5.08
719.728	13.08
719.754	-3.92
719.781	9.08
719.807	16.08
719.833	-2.92
719.86	8.08
719.886	1.08
719.912	23.08
719.938	1.08
719.965	11.08
719.991	31.08
720.017	11.08
720.044	-8.92
720.07	0.08
720.096	2.08
720.122	13.08
720.149	12.08
720.175	9.08
720.201	11.08
720.227	14.08
720.254	12.08
720.28	-4.92
720.306	-3.92
720.332	-3.92
720.359	15.08
720.385	3.08
720.411	8.08
720.437	14.08
720.463	2.08
720.49	0.08
720.516	-10.92
720.542	-5.92
720.568	-1.92
720.595	21.08
720.621	14.08
720.647	4.08
720.673	14.08
720.699	9.08
720.725	8.08
720.752	14.08
720.778	10.08
720.804	13.08
720.83	-0.92
720.856	5.08
720.883	-12.92
720.909	12.08
720.935	6.08
720.961	23.08
720.987	17.08
721.013	3.08
721.04	9.08
721.066	9.08
721.092	20.08
721.118	13.08
721.144	3.08
721.17	-0.92
721.196	8.08
721.223	-10.92
721.249	15.08
721.275	32.08
721.301	2.08
721.327	21.08
721.353	4.08
721.379	-3.92
721.405	-6.92
721.432	23.08
721.458	4.08
721.484	11.08
721.51	-1.92
721.536	8.08
721.562	7.08
721.588	5.08
721.614	1.08
721.64	-3.92
721.666	0.08
721.693	16.08
721.719	8.08
721.745	-10.92
721.771	-7.92
721.797	4.08
721.823	-1.92
721.849	15.08
721.875	9.08
721.901	14.08
721.927	1.08
721.953	20.08
721.979	29.08
722.005	1.08
722.031	-5.92
722.057	13.08
722.083	-0.92
722.109	0.08
722.135	22.08
722.161	12.08
722.187	-0.92
722.214	-1.92
722.24	3.08
722.266	-8.92
722.292	0.08
722.318	16.08
722.344	5.08
722.37	2.08
722.396	6.08
722.422	6.08
722.448	4.08
722.474	-0.92
722.5	9.08
722.526	9.08
722.552	20.08
722.578	3.08
722.603	19.08
722.629	0.08
722.655	1.08
722.681	1.08
722.707	7.08
722.733	0.08
722.759	-0.92
722.785	5.08
722.811	-4.92
722.837	6.08
722.863	14.08
722.889	26.08
722.915	12.08
722.941	7.08
722.967	8.08
722.993	17.08
723.019	10.08
723.045	19.08
723.071	-0.92
723.097	20.08
723.122	21.08
723.148	-4.92
723.174	-5.92
723.2	3.08
723.226	3.08
723.252	19.08
723.278	7.08
723.304	13.08
723.33	4.08
723.356	-7.92
723.381	-8.92
723.407	-1.92
723.433	15.08
723.459	-18.92
723.485	-1.92
723.511	10.08
723.537	1.08
723.563	4.08
723.588	11.08
723.614	7.08
723.64	0.08
723.666	0.08
723.692	9.08
723.718	-6.92
723.744	1.08
723.769	-0.92
723.795	-6.92
723.821	4.08
723.847	-3.92
723.873	29.08
723.899	1.08
723.924	7.08
723.95	23.08
723.976	-6.92
724.002	2.08
724.028	15.08
724.053	16.08
724.079	-3.92
724.105	-2.92
724.131	9.08
724.157	0.08
724.182	-1.92
724.208	11.08
724.234	10.08
724.26	2.08
724.286	10.08
724.311	20.08
724.337	1.08
724.363	-15.92
724.389	-15.92
724.415	-0.92
724.44	20.08
724.466	-0.92
724.492	5.08
724.518	6.08
724.543	0.08
724.569	-0.92
724.595	14.08
724.621	3.08
724.646	-10.92
724.672	-3.92
724.698	7.08
724.723	-3.92
724.749	-0.92
724.775	17.08
724.801	10.08
724.826	9.08
724.852	4.08
724.878	-2.92
724.904	-22.92
724.929	6.08
724.955	-2.92
724.981	23.08
725.006	0.08
725.032	0.08
725.058	11.08
725.083	-0.92
725.109	-5.92
725.135	6.08
725.161	12.08
725.186	13.08
725.212	5.08
725.238	7.08
725.263	11.08
725.289	-6.92
725.315	-11.92
725.34	-2.92
725.366	0.08
725.392	-2.92
725.417	10.08
725.443	12.08
725.468	27.08
725.494	26.08
725.52	26.08
725.545	11.08
725.571	15.08
725.597	7.08
725.622	15.08
725.648	-6.92
725.674	14.08
725.699	19.08
725.725	1.08
725.75	21.08
725.776	0.08
725.802	4.08
725.827	13.08
725.853	3.08
725.878	13.08
725.904	-4.92
725.93	18.08
725.955	-11.92
725.981	-6.92
726.006	6.08
726.032	5.08
726.057	4.08
726.083	-6.92
726.109	-3.92
726.134	5.08
726.16	0.08
726.185	4.08
726.211	-4.92
726.236	0.08
726.262	1.08
726.288	19.08
726.313	1.08
726.339	13.08
726.364	3.08
726.39	14.08
726.415	-2.92
726.441	-0.92
726.466	6.08
726.492	-2.92
726.517	7.08
726.543	-0.92
726.568	0.08
726.594	-2.92
726.619	12.08
726.645	11.08
726.67	6.08
726.696	15.08
726.721	-1.92
726.747	-15.92
726.772	7.08
726.798	-12.92
726.823	4.08
726.849	9.08
726.874	0.08
726.9	20.08
726.925	5.08
726.951	4.08
726.976	10.08
727.002	3.08
727.027	8.08
727.053	29.08
727.078	-3.92
727.104	3.08
727.129	-9.92
727.155	2.08
727.18	2.08
727.205	-1.92
727.231	3.08
727.256	10.08
727.282	14.08
727.307	12.08
727.333	3.08
727.358	9.08
727.383	5.08
727.409	-7.92
727.434	7.08
727.46	-1.92
727.485	3.08
727.511	10.08
727.536	-16.92
727.561	-5.92
727.587	6.08
727.612	9.08
727.637	5.08
727.663	-3.92
727.688	7.08
727.714	-4.92
727.739	-1.92
727.764	0.08
727.79	13.08
727.815	4.08
727.841	9.08
727.866	-18.92
727.891	0.08
727.917	-7.92
727.942	-2.92
727.967	-2.92
727.993	-8.92
728.018	5.08
728.043	8.08
728.069	-3.92
728.094	15.08
728.119	5.08
728.145	27.08
728.17	-6.92
728.195	3.08
728.221	22.08
728.246	3.08
728.271	-9.92
728.297	4.08
728.322	13.08
728.347	-4.92
728.373	-6.92
728.398	12.08
728.423	10.08
728.448	3.08
728.474	10.08
728.499	12.08
728.524	3.08
728.55	4.08
728.575	3.08
728.6	13.08
728.625	12.08
728.651	5.08
728.676	-7.92
728.701	11.08
728.727	1.08
728.752	-3.92
728.777	-1.92
728.802	2.08
728.828	12.08
728.853	-1.92
728.878	-4.92
728.903	-7.92
728.929	-8.92
728.954	-1.92
728.979	23.08
729.004	-1.92
729.03	-3.92
729.055	3.08
729.08	-12.92
729.105	-13.92
729.13	8.08
729.156	10.08
729.181	5.08
729.206	-8.92
729.231	-0.92
729.256	10.08
729.282	8.08
729.307	-9.92
729.332	-15.92
729.357	3.08
729.382	2.08
729.408	15.08
729.433	10.08
729.458	13.08
729.483	8.08
729.508	16.08
729.533	20.08
729.559	18.08
729.584	5.08
729.609	15.08
729.634	16.08
729.659	-0.92
729.684	3.08
729.71	27.08
729.735	1.08
729.76	-1.92
729.785	3.08
729.81	18.08
729.835	0.08
729.86	-6.92
729.886	18.08
729.911	0.08
729.936	-6.92
729.961	23.08
729.986	-11.92
730.011	5.08
730.036	19.08
730.061	5.08
730.086	11.08
730.112	-0.92
730.137	23.08
730.162	8.08
730.187	-1.92
730.212	8.08
730.237	1.08
730.262	6.08
730.287	-2.92
730.312	15.08
730.337	-10.92
730.362	5.08
730.387	6.08
730.413	-9.92
730.438	0.08
730.463	4.08
730.488	-12.92
730.513	6.08
730.538	-2.92
730.563	12.08
730.588	3.08
730.613	23.08
730.638	12.08
730.663	15.08
730.688	17.08
730.713	8.08
730.738	-0.92
730.763	13.08
730.788	-3.92
730.813	1.08
730.838	-6.92
730.863	2.08
730.888	-12.92
730.913	0.08
730.938	3.08
730.963	17.08
730.988	3.08
731.013	19.08
731.038	3.08
731.063	-0.92
731.088	11.08
731.113	-0.92
731.138	-2.92
731.163	-3.92
731.188	-4.92
731.213	2.08
731.238	23.08
731.263	-3.92
731.288	10.08
731.313	9.08
731.338	-3.92
731.363	3.08
731.388	-0.92
731.413	2.08
731.438	6.08
731.463	13.08
731.487	12.08
731.512	-7.92
731.537	4.08
731.562	5.08
731.587	4.08
731.612	-11.92
731.637	9.08
731.662	8.08
731.687	7.08
731.712	-4.92
731.737	0.08
731.762	7.08
731.786	10.08
731.811	16.08
731.836	0.08
731.861	-5.92
731.886	-9.92
731.911	-0.92
731.936	12.08
731.961	0.08
731.986	-10.92
732.01	4.08
732.035	11.08
732.06	24.08
732.085	0.08
732.11	4.08
732.135	0.08
732.16	9.08
732.184	-6.92
732.209	6.08
732.234	14.08
732.259	-14.92
732.284	5.08
732.309	12.08
732.334	-1.92
732.358	-16.92
732.383	-8.92
732.408	-1.92
732.433	8.08
732.458	-0.92
732.482	12.08
732.507	10.08
732.532	7.08
732.557	11.08
732.582	8.08
732.607	4.08
732.631	-2.92
732.656	-8.92
732.681	-1.92
732.706	-3.92
732.73	-4.92
732.755	5.08
732.78	7.08
732.805	10.08
732.83	-6.92
732.854	9.08
732.879	24.08
732.904	-3.92
732.929	4.08
732.953	0.08
732.978	-2.92
733.003	-7.92
733.028	-5.92
733.052	-2.92
733.077	8.08
733.102	19.08
733.127	3.08
733.151	11.08
733.176	7.08
733.201	6.08
733.226	0.08
733.25	21.08
733.275	1.08
733.3	20.08
733.324	33.08
733.349	2.08
733.374	17.08
733.399	3.08
733.423	5.08
733.448	-10.92
733.473	-8.92
733.497	0.08
733.522	13.08
733.547	7.08
733.571	12.08
733.596	1.08
733.621	11.08
733.646	-3.92
733.67	15.08
733.695	5.08
733.72	8.08
733.744	24.08
733.769	15.08
733.794	13.08
733.818	-7.92
733.843	-5.92
733.867	-1.92
733.892	0.08
733.917	-2.92
733.941	-0.92
733.966	-2.92
733.991	-7.92
734.015	6.08
734.04	4.08
734.065	4.08
734.089	18.08
734.114	11.08
734.138	2.08
734.163	7.08
734.188	8.08
734.212	4.08
734.237	6.08
734.261	14.08
734.286	5.08
734.311	20.08
734.335	-10.92
734.36	3.08
734.384	8.08
734.409	15.08
734.434	7.08
734.458	-2.92
734.483	11.08
734.507	-15.92
734.532	-1.92
734.556	14.08
734.581	8.08
734.606	-2.92
734.63	2.08
734.655	20.08
734.679	8.08
734.704	15.08
734.728	7.08
734.753	-11.92
734.777	10.08
734.802	-1.92
734.826	14.08
734.851	9.08
734.876	28.08
734.9	1.08
734.925	3.08
734.949	13.08
734.974	5.08
734.998	34.08
735.023	-1.92
735.047	-16.92
735.072	26.08
735.096	15.08
735.121	0.08
735.145	7.08
735.17	-1.92
735.194	12.08
735.219	-5.92
735.243	-6.92
735.268	7.08
735.292	11.08
735.317	6.08
735.341	12.08
735.365	1.08
735.39	12.08
735.414	24.08
735.439	16.08
735.463	4.08
735.488	8.08
735.512	-2.92
735.537	10.08
735.561	9.08
735.586	4.08
735.61	1.08
735.634	-12.92
735.659	4.08
735.683	26.08
735.708	-1.92
735.732	4.08
735.757	8.08
735.781	13.08
735.805	-1.92
735.83	3.08
735.854	-12.92
735.879	-12.92
735.903	7.08
735.927	7.08
735.952	6.08
735.976	-4.92
736.001	-4.92
736.025	-0.92
736.049	7.08
736.074	-2.92
736.098	3.08
736.123	16.08
736.147	0.08
736.171	15.08
736.196	23.08
736.22	-1.92
736.244	4.08
736.269	9.08
736.293	21.08
736.317	11.08
736.342	21.08
736.366	9.08
736.39	4.08
736.415	16.08
736.439	11.08
736.463	15.08
736.488	17.08
736.512	6.08
736.536	-2.92
736.561	8.08
736.585	11.08
736.609	6.08
736.634	1.08
736.658	8.08
736.682	12.08
736.707	-1.92
736.731	8.08
736.755	4.08
736.78	12.08
736.804	26.08
736.828	10.08
736.852	10.08
736.877	14.08
736.901	11.08
736.925	7.08
736.949	17.08
736.974	0.08
736.998	-6.92
737.022	4.08
737.047	3.08
737.071	4.08
737.095	24.08
737.119	35.08
737.144	13.08
737.168	7.08
737.192	-5.92
737.216	7.08
737.241	-0.92
737.265	16.08
737.289	4.08
737.313	-2.92
737.337	-0.92
737.362	5.08
737.386	-0.92
737.41	3.08
737.434	7.08
737.459	11.08
737.483	13.08
737.507	13.08
737.531	24.08
737.555	4.08
737.58	5.08
737.604	11.08
737.628	12.08
737.652	-10.92
737.676	0.08
737.701	10.08
737.725	6.08
737.749	6.08
737.773	2.08
737.797	3.08
737.821	16.08
737.846	1.08
737.87	28.08
737.894	0.08
737.918	8.08
737.942	1.08
737.966	20.08
737.99	7.08
738.015	15.08
738.039	13.08
738.063	6.08
738.087	17.08
738.111	-1.92
738.135	8.08
738.159	-9.92
738.184	9.08
738.208	13.08
738.232	17.08
738.256	24.08
738.28	5.08
738.304	11.08
738.328	14.08
738.352	20.08
738.376	7.08
738.4	16.08
738.425	27.08
738.449	7.08
738.473	7.08
738.497	6.08
738.521	12.08
738.545	26.08
738.569	18.08
738.593	22.08
738.617	16.08
738.641	14.08
738.665	3.08
738.689	25.08
738.713	3.08
738.737	11.08
738.762	11.08
738.786	14.08
738.81	-8.92
738.834	3.08
738.858	11.08
738.882	13.08
738.906	-8.92
738.93	19.08
738.954	22.08
738.978	14.08
739.002	-14.92
739.026	3.08
739.05	10.08
739.074	-8.92
739.098	25.08
739.122	11.08
739.146	15.08
739.17	1.08
739.194	17.08
739.218	-0.92
739.242	-3.92
739.266	14.08
739.29	9.08
739.314	17.08
739.338	8.08
739.362	12.08
739.386	-2.92
739.41	4.08
739.434	-4.92
739.458	19.08
739.482	4.08
739.506	19.08
739.53	-0.92
739.554	5.08
739.577	5.08
739.601	5.08
739.625	-1.92
739.649	3.08
739.673	-0.92
739.697	-0.92
739.721	-0.92
739.745	12.08
739.769	26.08
739.793	22.08
739.817	15.08
739.841	-6.92
739.865	-4.92
739.889	-17.92
739.912	11.08
739.936	-0.92
739.96	7.08
739.984	14.08
740.008	2.08
740.032	-0.92
740.056	12.08
740.08	10.08
740.104	0.08
740.127	11.08
740.151	11.08
740.175	9.08
740.199	9.08
740.223	32.08
740.247	21.08
740.271	9.08
740.295	-3.92
740.318	-13.92
740.342	-14.92
740.366	18.08
740.39	45.08
740.414	9.08
740.438	-2.92
740.461	1.08
740.485	12.08
740.509	4.08
740.533	6.08
740.557	7.08
740.581	-9.92
740.604	-17.92
740.628	3.08
740.652	15.08
740.676	5.08
740.7	8.08
740.723	7.08
740.747	3.08
740.771	3.08
740.795	2.08
740.819	25.08
740.842	3.08
740.866	3.08
740.89	-1.92
740.914	-1.92
740.938	-10.92
740.961	8.08
740.985	19.08
741.009	-0.92
741.033	21.08
741.056	5.08
741.08	1.08
741.104	-15.92
741.128	-4.92
741.151	6.08
741.175	12.08
741.199	3.08
741.223	31.08
741.246	-2.92
741.27	6.08
741.294	15.08
741.318	10.08
741.341	12.08
741.365	14.08
741.389	-2.92
741.413	21.08
741.436	28.08
741.46	28.08
741.484	11.08
741.507	7.08
741.531	21.08
741.555	22.08
741.579	4.08
741.602	18.08
741.626	13.08
741.65	7.08
741.673	28.08
741.697	9.08
741.721	5.08
741.744	7.08
741.768	-3.92
741.792	0.08
741.815	9.08
741.839	31.08
741.863	21.08
741.886	24.08
741.91	27.08
741.934	10.08
741.957	-21.92
741.981	6.08
742.005	8.08
742.028	7.08
742.052	-4.92
742.075	13.08
742.099	9.08
742.123	4.08
742.146	-1.92
742.17	5.08
742.194	-3.92
742.217	-2.92
742.241	11.08
742.264	10.08
742.288	12.08
742.312	6.08
742.335	8.08
742.359	6.08
742.382	16.08
742.406	9.08
742.43	-16.92
742.453	1.08
742.477	1.08
742.5	32.08
742.524	13.08
742.548	9.08
742.571	-3.92
742.595	3.08
742.618	-3.92
742.642	-15.92
742.665	17.08
742.689	-5.92
742.712	11.08
742.736	15.08
742.76	12.08
742.783	7.08
742.807	14.08
742.83	6.08
742.854	-1.92
742.877	0.08
742.901	-6.92
742.924	1.08
742.948	2.08
742.971	31.08
742.995	1.08
743.018	-8.92
743.042	-15.92
743.065	7.08
743.089	-11.92
743.112	-11.92
743.136	-9.92
743.159	-4.92
743.183	4.08
743.206	-4.92
743.23	-7.92
743.253	17.08
743.277	16.08
743.3	7.08
743.324	4.08
743.347	-3.92
743.371	20.08
743.394	14.08
743.418	13.08
743.441	16.08
743.465	10.08
743.488	7.08
743.512	-10.92
743.535	16.08
743.558	9.08
743.582	8.08
743.605	9.08
743.629	9.08
743.652	16.08
743.676	11.08
743.699	9.08
743.723	7.08
743.746	9.08
743.769	5.08
743.793	20.08
743.816	0.08
743.84	8.08
743.863	-6.92
743.886	12.08
743.91	21.08
743.933	16.08
743.957	2.08
743.98	10.08
744.003	11.08
744.027	19.08
744.05	5.08
744.074	6.08
744.097	-8.92
744.12	18.08
744.144	-0.92
744.167	6.08
744.19	-2.92
744.214	0.08
744.237	-2.92
744.26	0.08
744.284	0.08
744.307	-2.92
744.331	7.08
744.354	3.08
744.377	-0.92
744.401	-2.92
744.424	7.08
744.447	6.08
744.471	-4.92
