Data from HighRes_H2_15_09_11_07_2024_HR4C61891__163__15-11-12-701.txt Node

Date: Thu Nov 07 15:11:12 EST 2024
User: crc00042
Spectrometer: HR4C6189
Trigger mode: 4
Integration Time (sec): 1.000000E-1
Scans to average: 1
Electric dark correction enabled: true
Nonlinearity correction enabled: false
Boxcar width: 0
XAxis mode: Wavelengths
Number of Pixels in Spectrum: 3648
>>>>>Begin Spectral Data<<<<<
639.567	-46.62
639.602	-46.62
639.636	-46.62
639.67	-50.62
639.704	-23.62
639.738	-0.62
639.773	7.38
639.807	-15.62
639.841	-2.62
639.875	13.38
639.909	-11.62
639.943	-9.62
639.978	-4.62
640.012	7.38
640.046	3.38
640.08	11.38
640.114	7.38
640.148	-5.62
640.182	3.38
640.217	-11.62
640.251	10.38
640.285	18.38
640.319	-10.62
640.353	-18.62
640.387	-3.62
640.421	-13.62
640.455	-2.62
640.49	12.38
640.524	12.38
640.558	8.38
640.592	7.38
640.626	12.38
640.66	10.38
640.694	-19.62
640.728	11.38
640.762	3.38
640.796	5.38
640.83	16.38
640.865	-15.62
640.899	-3.62
640.933	-1.62
640.967	10.38
641.001	-0.62
641.035	-2.62
641.069	2.38
641.103	-17.62
641.137	-17.62
641.171	-20.62
641.205	6.38
641.239	-3.62
641.273	19.38
641.307	12.38
641.341	13.38
641.375	5.38
641.409	-14.62
641.443	-5.62
641.477	10.38
641.511	15.38
641.545	5.38
641.579	-8.62
641.614	2.38
641.648	16.38
641.682	-4.62
641.716	-2.62
641.75	27.38
641.784	5.38
641.818	-1.62
641.852	14.38
641.886	-8.62
641.919	27.38
641.953	-5.62
641.987	-2.62
642.021	5.38
642.055	-0.62
642.089	12.38
642.123	-11.62
642.157	-8.62
642.191	-8.62
642.225	8.38
642.259	-10.62
642.293	9.38
642.327	13.38
642.361	3.38
642.395	13.38
642.429	9.38
642.463	8.38
642.497	15.38
642.531	-0.62
642.565	-5.62
642.599	12.38
642.633	-4.62
642.666	10.38
642.7	13.38
642.734	14.38
642.768	-10.62
642.802	-9.62
642.836	2.38
642.87	9.38
642.904	17.38
642.938	19.38
642.972	0.38
643.005	-3.62
643.039	11.38
643.073	-2.62
643.107	6.38
643.141	11.38
643.175	14.38
643.209	4.38
643.243	-0.62
643.276	12.38
643.31	0.38
643.344	-5.62
643.378	-9.62
643.412	0.38
643.446	3.38
643.48	-13.62
643.513	1.38
643.547	5.38
643.581	-3.62
643.615	12.38
643.649	-11.62
643.683	-16.62
643.716	1.38
643.75	11.38
643.784	-25.62
643.818	-11.62
643.852	-7.62
643.886	5.38
643.919	18.38
643.953	8.38
643.987	3.38
644.021	20.38
644.055	13.38
644.088	-19.62
644.122	-7.62
644.156	3.38
644.19	-1.62
644.224	-9.62
644.257	5.38
644.291	12.38
644.325	26.38
644.359	-2.62
644.392	16.38
644.426	4.38
644.46	-9.62
644.494	-3.62
644.527	-8.62
644.561	-6.62
644.595	-2.62
644.629	8.38
644.662	-10.62
644.696	5.38
644.73	10.38
644.764	-1.62
644.797	-0.62
644.831	3.38
644.865	6.38
644.899	-2.62
644.932	25.38
644.966	18.38
645	10.38
645.033	24.38
645.067	8.38
645.101	8.38
645.135	-2.62
645.168	-4.62
645.202	12.38
645.236	-2.62
645.269	-4.62
645.303	-7.62
645.337	-5.62
645.37	-3.62
645.404	9.38
645.438	-6.62
645.471	0.38
645.505	2.38
645.539	-6.62
645.572	-12.62
645.606	3.38
645.64	5.38
645.673	5.38
645.707	21.38
645.741	-0.62
645.774	-12.62
645.808	-14.62
645.842	-9.62
645.875	-6.62
645.909	3.38
645.943	-10.62
645.976	9.38
646.01	-1.62
646.043	-4.62
646.077	8.38
646.111	13.38
646.144	22.38
646.178	25.38
646.212	4.38
646.245	6.38
646.279	13.38
646.312	-0.62
646.346	18.38
646.38	-0.62
646.413	4.38
646.447	8.38
646.48	-7.62
646.514	10.38
646.547	-11.62
646.581	-7.62
646.615	0.38
646.648	1.38
646.682	-13.62
646.715	-3.62
646.749	0.38
646.782	-1.62
646.816	-3.62
646.85	4.38
646.883	2.38
646.917	12.38
646.95	8.38
646.984	1.38
647.017	-0.62
647.051	10.38
647.084	5.38
647.118	-2.62
647.151	-3.62
647.185	-1.62
647.218	-16.62
647.252	2.38
647.285	-12.62
647.319	-11.62
647.353	12.38
647.386	36.38
647.42	14.38
647.453	4.38
647.487	-11.62
647.52	5.38
647.553	7.38
647.587	9.38
647.62	-6.62
647.654	9.38
647.687	-10.62
647.721	7.38
647.754	9.38
647.788	4.38
647.821	-5.62
647.855	9.38
647.888	14.38
647.922	-8.62
647.955	-5.62
647.989	0.38
648.022	-5.62
648.055	9.38
648.089	-10.62
648.122	34.38
648.156	1.38
648.189	2.38
648.223	4.38
648.256	6.38
648.29	20.38
648.323	-0.62
648.356	24.38
648.39	11.38
648.423	26.38
648.457	13.38
648.49	11.38
648.523	18.38
648.557	-2.62
648.59	-8.62
648.624	-7.62
648.657	-0.62
648.69	19.38
648.724	11.38
648.757	19.38
648.791	12.38
648.824	7.38
648.857	11.38
648.891	8.38
648.924	-4.62
648.957	27.38
648.991	-6.62
649.024	-3.62
649.057	8.38
649.091	-5.62
649.124	9.38
649.158	-4.62
649.191	25.38
649.224	-4.62
649.258	4.38
649.291	3.38
649.324	2.38
649.358	6.38
649.391	-3.62
649.424	-8.62
649.458	7.38
649.491	6.38
649.524	-23.62
649.557	4.38
649.591	-0.62
649.624	12.38
649.657	-17.62
649.691	-14.62
649.724	3.38
649.757	1.38
649.791	-1.62
649.824	4.38
649.857	15.38
649.89	-3.62
649.924	-12.62
649.957	-13.62
649.99	3.38
650.023	4.38
650.057	-24.62
650.09	8.38
650.123	2.38
650.157	7.38
650.19	14.38
650.223	-1.62
650.256	-13.62
650.29	-14.62
650.323	-15.62
650.356	6.38
650.389	2.38
650.423	-15.62
650.456	-4.62
650.489	15.38
650.522	5.38
650.555	20.38
650.589	-0.62
650.622	-7.62
650.655	12.38
650.688	6.38
650.721	11.38
650.755	3.38
650.788	-4.62
650.821	-0.62
650.854	6.38
650.887	7.38
650.921	-8.62
650.954	-3.62
650.987	-15.62
651.02	-2.62
651.053	-19.62
651.087	-0.62
651.12	22.38
651.153	0.38
651.186	7.38
651.219	-1.62
651.252	0.38
651.286	5.38
651.319	2.38
651.352	3.38
651.385	7.38
651.418	14.38
651.451	13.38
651.484	11.38
651.518	-8.62
651.551	18.38
651.584	-0.62
651.617	23.38
651.65	-4.62
651.683	15.38
651.716	6.38
651.749	-25.62
651.783	10.38
651.816	6.38
651.849	7.38
651.882	4.38
651.915	-14.62
651.948	-8.62
651.981	-16.62
652.014	-14.62
652.047	0.38
652.08	-8.62
652.114	-12.62
652.147	0.38
652.18	-16.62
652.213	25.38
652.246	1.38
652.279	-4.62
652.312	6.38
652.345	-1.62
652.378	5.38
652.411	10.38
652.444	3.38
652.477	2.38
652.51	-7.62
652.543	-16.62
652.576	6.38
652.609	-7.62
652.642	2.38
652.675	23.38
652.709	-3.62
652.742	1.38
652.775	7.38
652.808	13.38
652.841	4.38
652.874	-0.62
652.907	9.38
652.94	-2.62
652.973	-26.62
653.006	-7.62
653.039	-3.62
653.072	-12.62
653.105	-1.62
653.138	-9.62
653.171	-2.62
653.204	5.38
653.237	4.38
653.27	-3.62
653.303	-14.62
653.336	9.38
653.368	3.38
653.401	5.38
653.434	3.38
653.467	-1.62
653.5	-6.62
653.533	-7.62
653.566	-7.62
653.599	4.38
653.632	8.38
653.665	16.38
653.698	-18.62
653.731	-9.62
653.764	15.38
653.797	-8.62
653.83	-2.62
653.863	7.38
653.896	2.38
653.929	3.38
653.961	11.38
653.994	-1.62
654.027	-15.62
654.06	-4.62
654.093	-6.62
654.126	5.38
654.159	9.38
654.192	0.38
654.225	-10.62
654.258	1.38
654.29	-4.62
654.323	4.38
654.356	10.38
654.389	8.38
654.422	3.38
654.455	-12.62
654.488	8.38
654.521	-2.62
654.553	0.38
654.586	-0.62
654.619	-5.62
654.652	-7.62
654.685	-0.62
654.718	11.38
654.751	14.38
654.783	1.38
654.816	35.38
654.849	-6.62
654.882	-10.62
654.915	-22.62
654.948	-0.62
654.98	5.38
655.013	13.38
655.046	-11.62
655.079	-16.62
655.112	4.38
655.144	-8.62
655.177	-7.62
655.21	3.38
655.243	6.38
655.276	7.38
655.308	-0.62
655.341	0.38
655.374	7.38
655.407	-1.62
655.44	10.38
655.472	12.38
655.505	10.38
655.538	12.38
655.571	25.38
655.603	-5.62
655.636	8.38
655.669	16.38
655.702	9.38
655.734	-6.62
655.767	7.38
655.8	26.38
655.833	1.38
655.865	25.38
655.898	36.38
655.931	42.38
655.964	37.38
655.996	65.38
656.029	65.38
656.062	60.38
656.095	68.38
656.127	61.38
656.16	117.38
656.193	123.38
656.225	178.38
656.258	283.38
656.291	520.38
656.324	1122.38
656.356	3392.38
656.389	7651.38
656.422	6120.38
656.454	2106.38
656.487	687.38
656.52	266.38
656.552	117.38
656.585	65.38
656.618	58.38
656.65	58.38
656.683	26.38
656.716	30.38
656.748	19.38
656.781	9.38
656.814	7.38
656.846	17.38
656.879	3.38
656.912	-1.62
656.944	-13.62
656.977	18.38
657.01	-7.62
657.042	16.38
657.075	7.38
657.108	-5.62
657.14	-8.62
657.173	12.38
657.205	23.38
657.238	20.38
657.271	-2.62
657.303	8.38
657.336	11.38
657.369	7.38
657.401	5.38
657.434	12.38
657.466	23.38
657.499	-5.62
657.532	15.38
657.564	-2.62
657.597	-12.62
657.629	22.38
657.662	-12.62
657.694	3.38
657.727	-14.62
657.76	7.38
657.792	-8.62
657.825	-0.62
657.857	-2.62
657.89	2.38
657.922	11.38
657.955	-21.62
657.987	-7.62
658.02	1.38
658.053	27.38
658.085	-14.62
658.118	11.38
658.15	26.38
658.183	28.38
658.215	4.38
658.248	3.38
658.28	0.38
658.313	19.38
658.345	15.38
658.378	-4.62
658.41	10.38
658.443	14.38
658.475	3.38
658.508	11.38
658.54	1.38
658.573	-12.62
658.605	-6.62
658.638	-5.62
658.67	-8.62
658.703	16.38
658.735	-11.62
658.768	5.38
658.8	-5.62
658.833	22.38
658.865	7.38
658.898	3.38
658.93	-11.62
658.963	-8.62
658.995	-10.62
659.028	11.38
659.06	1.38
659.092	6.38
659.125	-1.62
659.157	4.38
659.19	-15.62
659.222	4.38
659.255	12.38
659.287	-1.62
659.32	8.38
659.352	5.38
659.384	8.38
659.417	5.38
659.449	9.38
659.482	14.38
659.514	-5.62
659.546	-13.62
659.579	-6.62
659.611	-4.62
659.644	-5.62
659.676	9.38
659.708	1.38
659.741	-11.62
659.773	2.38
659.806	7.38
659.838	2.38
659.87	7.38
659.903	6.38
659.935	20.38
659.967	-2.62
660	1.38
660.032	-22.62
660.065	7.38
660.097	-4.62
660.129	-2.62
660.162	0.38
660.194	10.38
660.226	23.38
660.259	-1.62
660.291	2.38
660.323	-16.62
660.356	0.38
660.388	-9.62
660.42	-3.62
660.453	2.38
660.485	8.38
660.517	0.38
660.55	21.38
660.582	9.38
660.614	6.38
660.647	1.38
660.679	-24.62
660.711	-10.62
660.743	-20.62
660.776	-12.62
660.808	-6.62
660.84	-26.62
660.873	-13.62
660.905	-7.62
660.937	-12.62
660.969	0.38
661.002	9.38
661.034	14.38
661.066	6.38
661.099	5.38
661.131	10.38
661.163	-4.62
661.195	0.38
661.228	16.38
661.26	-13.62
661.292	-3.62
661.324	2.38
661.357	-0.62
661.389	12.38
661.421	4.38
661.453	-4.62
661.485	-3.62
661.518	-3.62
661.55	-21.62
661.582	-13.62
661.614	-0.62
661.647	17.38
661.679	18.38
661.711	7.38
661.743	1.38
661.775	1.38
661.808	26.38
661.84	-10.62
661.872	2.38
661.904	-2.62
661.936	2.38
661.969	-8.62
662.001	1.38
662.033	23.38
662.065	1.38
662.097	7.38
662.129	4.38
662.162	1.38
662.194	4.38
662.226	7.38
662.258	15.38
662.29	10.38
662.322	-3.62
662.355	-13.62
662.387	30.38
662.419	10.38
662.451	11.38
662.483	9.38
662.515	-7.62
662.547	-14.62
662.58	-14.62
662.612	3.38
662.644	-22.62
662.676	12.38
662.708	20.38
662.74	11.38
662.772	13.38
662.804	11.38
662.836	16.38
662.869	5.38
662.901	11.38
662.933	11.38
662.965	21.38
662.997	-9.62
663.029	-17.62
663.061	-8.62
663.093	-18.62
663.125	-1.62
663.157	17.38
663.189	4.38
663.221	6.38
663.254	-3.62
663.286	3.38
663.318	-3.62
663.35	-3.62
663.382	-8.62
663.414	0.38
663.446	8.38
663.478	-3.62
663.51	20.38
663.542	-1.62
663.574	-8.62
663.606	3.38
663.638	-10.62
663.67	-26.62
663.702	-11.62
663.734	-0.62
663.766	-7.62
663.798	1.38
663.83	-1.62
663.862	-0.62
663.894	8.38
663.926	12.38
663.958	2.38
663.99	-10.62
664.022	-26.62
664.054	8.38
664.086	6.38
664.118	-14.62
664.15	8.38
664.182	-5.62
664.214	4.38
664.246	23.38
664.278	-1.62
664.31	7.38
664.342	-9.62
664.374	-4.62
664.406	2.38
664.438	15.38
664.47	17.38
664.502	2.38
664.534	3.38
664.566	1.38
664.598	16.38
664.63	-2.62
664.662	15.38
664.693	-0.62
664.725	-9.62
664.757	-4.62
664.789	-6.62
664.821	-2.62
664.853	13.38
664.885	-1.62
664.917	-4.62
664.949	6.38
664.981	8.38
665.013	-7.62
665.045	-7.62
665.076	-5.62
665.108	3.38
665.14	3.38
665.172	-7.62
665.204	12.38
665.236	-16.62
665.268	15.38
665.3	17.38
665.331	-15.62
665.363	-1.62
665.395	-21.62
665.427	-2.62
665.459	15.38
665.491	-0.62
665.523	10.38
665.555	-21.62
665.586	4.38
665.618	4.38
665.65	-13.62
665.682	-2.62
665.714	11.38
665.746	5.38
665.777	-17.62
665.809	7.38
665.841	15.38
665.873	0.38
665.905	5.38
665.937	23.38
665.968	11.38
666	3.38
666.032	16.38
666.064	5.38
666.096	-5.62
666.127	6.38
666.159	16.38
666.191	28.38
666.223	0.38
666.255	0.38
666.286	10.38
666.318	-14.62
666.35	24.38
666.382	1.38
666.413	-1.62
666.445	-20.62
666.477	-15.62
666.509	-5.62
666.54	5.38
666.572	-4.62
666.604	11.38
666.636	-0.62
666.667	28.38
666.699	8.38
666.731	-9.62
666.763	-5.62
666.794	-15.62
666.826	3.38
666.858	-16.62
666.89	8.38
666.921	0.38
666.953	0.38
666.985	3.38
667.017	17.38
667.048	7.38
667.08	21.38
667.112	-16.62
667.143	-11.62
667.175	-0.62
667.207	8.38
667.238	13.38
667.27	6.38
667.302	3.38
667.334	5.38
667.365	16.38
667.397	3.38
667.429	-5.62
667.46	3.38
667.492	4.38
667.524	-0.62
667.555	-16.62
667.587	0.38
667.619	2.38
667.65	-9.62
667.682	1.38
667.714	5.38
667.745	1.38
667.777	12.38
667.808	5.38
667.84	-0.62
667.872	-4.62
667.903	24.38
667.935	-3.62
667.967	-4.62
667.998	-0.62
668.03	-9.62
668.061	-4.62
668.093	10.38
668.125	26.38
668.156	4.38
668.188	-0.62
668.22	-4.62
668.251	1.38
668.283	1.38
668.314	13.38
668.346	2.38
668.377	3.38
668.409	14.38
668.441	15.38
668.472	-5.62
668.504	23.38
668.535	6.38
668.567	5.38
668.599	1.38
668.63	-8.62
668.662	5.38
668.693	25.38
668.725	9.38
668.756	6.38
668.788	9.38
668.819	4.38
668.851	1.38
668.882	0.38
668.914	1.38
668.946	6.38
668.977	-7.62
669.009	-0.62
669.04	-21.62
669.072	-5.62
669.103	-6.62
669.135	-9.62
669.166	-3.62
669.198	10.38
669.229	17.38
669.261	12.38
669.292	4.38
669.324	10.38
669.355	20.38
669.387	-31.62
669.418	15.38
669.45	-2.62
669.481	3.38
669.513	5.38
669.544	14.38
669.576	-0.62
669.607	11.38
669.639	20.38
669.67	8.38
669.701	9.38
669.733	-4.62
669.764	-5.62
669.796	-3.62
669.827	-13.62
669.859	-4.62
669.89	8.38
669.922	19.38
669.953	20.38
669.985	0.38
670.016	1.38
670.047	4.38
670.079	-8.62
670.11	-9.62
670.142	0.38
670.173	1.38
670.204	-2.62
670.236	-2.62
670.267	1.38
670.299	6.38
670.33	-0.62
670.362	10.38
670.393	0.38
670.424	11.38
670.456	-5.62
670.487	-1.62
670.518	0.38
670.55	-11.62
670.581	2.38
670.613	3.38
670.644	-11.62
670.675	-26.62
670.707	1.38
670.738	-4.62
670.769	-8.62
670.801	6.38
670.832	8.38
670.864	-7.62
670.895	7.38
670.926	0.38
670.958	-0.62
670.989	7.38
671.02	8.38
671.052	2.38
671.083	-8.62
671.114	-6.62
671.146	17.38
671.177	-1.62
671.208	-10.62
671.24	2.38
671.271	5.38
671.302	13.38
671.333	-2.62
671.365	-21.62
671.396	-10.62
671.427	10.38
671.459	10.38
671.49	3.38
671.521	14.38
671.553	3.38
671.584	24.38
671.615	0.38
671.646	2.38
671.678	-12.62
671.709	-8.62
671.74	-19.62
671.771	-7.62
671.803	-3.62
671.834	4.38
671.865	1.38
671.896	12.38
671.928	3.38
671.959	-17.62
671.99	-3.62
672.021	0.38
672.053	1.38
672.084	-11.62
672.115	15.38
672.146	6.38
672.178	-9.62
672.209	4.38
672.24	17.38
672.271	22.38
672.303	0.38
672.334	-16.62
672.365	-4.62
672.396	-4.62
672.427	7.38
672.459	0.38
672.49	19.38
672.521	9.38
672.552	6.38
672.583	-0.62
672.615	0.38
672.646	8.38
672.677	-2.62
672.708	-7.62
672.739	2.38
672.77	5.38
672.802	17.38
672.833	-5.62
672.864	-1.62
672.895	-2.62
672.926	-5.62
672.957	-3.62
672.989	-3.62
673.02	15.38
673.051	-8.62
673.082	4.38
673.113	2.38
673.144	23.38
673.175	7.38
673.206	-21.62
673.238	-1.62
673.269	-4.62
673.3	-5.62
673.331	3.38
673.362	1.38
673.393	1.38
673.424	-7.62
673.455	10.38
673.487	8.38
673.518	26.38
673.549	4.38
673.58	-1.62
673.611	2.38
673.642	8.38
673.673	-11.62
673.704	-5.62
673.735	1.38
673.766	6.38
673.797	0.38
673.828	-0.62
673.86	-8.62
673.891	-5.62
673.922	-15.62
673.953	-7.62
673.984	-1.62
674.015	7.38
674.046	-16.62
674.077	1.38
674.108	-13.62
674.139	-14.62
674.17	-8.62
674.201	2.38
674.232	4.38
674.263	-0.62
674.294	-7.62
674.325	-9.62
674.356	10.38
674.387	12.38
674.418	18.38
674.449	4.38
674.48	5.38
674.511	4.38
674.542	13.38
674.573	-4.62
674.604	18.38
674.635	-0.62
674.666	12.38
674.697	-0.62
674.728	-3.62
674.759	-1.62
674.79	-6.62
674.821	-15.62
674.852	3.38
674.883	-0.62
674.914	-6.62
674.945	-3.62
674.976	-0.62
675.007	-14.62
675.038	-23.62
675.069	-22.62
675.1	22.38
675.131	11.38
675.162	-32.62
675.193	-16.62
675.224	-9.62
675.254	6.38
675.285	8.38
675.316	21.38
675.347	3.38
675.378	1.38
675.409	-15.62
675.44	10.38
675.471	-5.62
675.502	-4.62
675.533	14.38
675.564	14.38
675.595	3.38
675.625	14.38
675.656	6.38
675.687	-7.62
675.718	-12.62
675.749	11.38
675.78	10.38
675.811	-3.62
675.842	-13.62
675.873	-11.62
675.903	0.38
675.934	5.38
675.965	-5.62
675.996	-27.62
676.027	-12.62
676.058	5.38
676.089	-11.62
676.119	1.38
676.15	7.38
676.181	-5.62
676.212	-5.62
676.243	-0.62
676.274	-23.62
676.304	13.38
676.335	-12.62
676.366	-10.62
676.397	-7.62
676.428	-5.62
676.459	6.38
676.489	13.38
676.52	22.38
676.551	-3.62
676.582	-15.62
676.613	0.38
676.643	-12.62
676.674	7.38
676.705	-8.62
676.736	2.38
676.767	-1.62
676.797	6.38
676.828	8.38
676.859	12.38
676.89	-17.62
676.92	6.38
676.951	-2.62
676.982	-4.62
677.013	9.38
677.044	1.38
677.074	-1.62
677.105	-0.62
677.136	11.38
677.167	9.38
677.197	-0.62
677.228	-8.62
677.259	-9.62
677.289	-6.62
677.32	-15.62
677.351	-6.62
677.382	-6.62
677.412	-8.62
677.443	2.38
677.474	7.38
677.505	-14.62
677.535	-6.62
677.566	-7.62
677.597	-15.62
677.627	-9.62
677.658	0.38
677.689	0.38
677.72	13.38
677.75	-4.62
677.781	-1.62
677.812	-0.62
677.842	-14.62
677.873	1.38
677.904	-21.62
677.934	1.38
677.965	-16.62
677.996	-11.62
678.026	1.38
678.057	-6.62
678.088	-15.62
678.118	0.38
678.149	-0.62
678.18	2.38
678.21	13.38
678.241	-8.62
678.272	-4.62
678.302	0.38
678.333	7.38
678.363	3.38
678.394	-1.62
678.425	7.38
678.455	3.38
678.486	1.38
678.517	-14.62
678.547	4.38
678.578	6.38
678.608	-11.62
678.639	3.38
678.67	4.38
678.7	-22.62
678.731	-12.62
678.761	4.38
678.792	9.38
678.823	8.38
678.853	-3.62
678.884	-16.62
678.914	5.38
678.945	4.38
678.975	7.38
679.006	1.38
679.037	-15.62
679.067	25.38
679.098	11.38
679.128	-3.62
679.159	-0.62
679.189	7.38
679.22	-16.62
679.25	3.38
679.281	12.38
679.312	-3.62
679.342	10.38
679.373	30.38
679.403	7.38
679.434	27.38
679.464	-6.62
679.495	4.38
679.525	7.38
679.556	-13.62
679.586	1.38
679.617	5.38
679.647	13.38
679.678	-1.62
679.708	-0.62
679.739	7.38
679.769	-6.62
679.8	-0.62
679.83	6.38
679.861	-5.62
679.891	-0.62
679.922	-4.62
679.952	4.38
679.983	5.38
680.013	8.38
680.044	0.38
680.074	3.38
680.105	-1.62
680.135	0.38
680.165	17.38
680.196	13.38
680.226	7.38
680.257	13.38
680.287	-4.62
680.318	-1.62
680.348	-4.62
680.379	15.38
680.409	5.38
680.439	11.38
680.47	3.38
680.5	4.38
680.531	5.38
680.561	-3.62
680.592	-8.62
680.622	2.38
680.652	7.38
680.683	20.38
680.713	11.38
680.744	-4.62
680.774	-12.62
680.804	-1.62
680.835	-3.62
680.865	-10.62
680.896	18.38
680.926	22.38
680.956	2.38
680.987	-3.62
681.017	-4.62
681.047	8.38
681.078	-3.62
681.108	-8.62
681.139	16.38
681.169	-1.62
681.199	-7.62
681.23	1.38
681.26	-2.62
681.29	-0.62
681.321	-7.62
681.351	13.38
681.381	-4.62
681.412	2.38
681.442	3.38
681.472	15.38
681.503	8.38
681.533	-7.62
681.563	3.38
681.594	-3.62
681.624	11.38
681.654	-8.62
681.685	12.38
681.715	0.38
681.745	-4.62
681.775	0.38
681.806	-8.62
681.836	-10.62
681.866	-17.62
681.897	-10.62
681.927	-15.62
681.957	-19.62
681.987	-6.62
682.018	9.38
682.048	8.38
682.078	1.38
682.109	10.38
682.139	1.38
682.169	7.38
682.199	-2.62
682.23	-8.62
682.26	11.38
682.29	-0.62
682.32	5.38
682.351	-11.62
682.381	-3.62
682.411	14.38
682.441	-8.62
682.472	-6.62
682.502	-1.62
682.532	-13.62
682.562	-0.62
682.592	5.38
682.623	6.38
682.653	3.38
682.683	-19.62
682.713	-0.62
682.743	-9.62
682.774	-8.62
682.804	2.38
682.834	4.38
682.864	1.38
682.894	7.38
682.925	-11.62
682.955	-14.62
682.985	-28.62
683.015	12.38
683.045	26.38
683.076	-5.62
683.106	-11.62
683.136	-9.62
683.166	-15.62
683.196	6.38
683.226	-0.62
683.257	0.38
683.287	-15.62
683.317	0.38
683.347	-0.62
683.377	-13.62
683.407	4.38
683.437	6.38
683.468	1.38
683.498	-7.62
683.528	0.38
683.558	0.38
683.588	-8.62
683.618	-10.62
683.648	-8.62
683.678	-1.62
683.708	7.38
683.739	-27.62
683.769	1.38
683.799	-0.62
683.829	-0.62
683.859	4.38
683.889	11.38
683.919	-3.62
683.949	-11.62
683.979	4.38
684.009	-6.62
684.039	10.38
684.07	-4.62
684.1	6.38
684.13	-8.62
684.16	6.38
684.19	-0.62
684.22	-7.62
684.25	-1.62
684.28	-13.62
684.31	3.38
684.34	12.38
684.37	7.38
684.4	-13.62
684.43	-8.62
684.46	0.38
684.49	15.38
684.52	10.38
684.55	21.38
684.58	2.38
684.61	3.38
684.64	-0.62
684.67	17.38
684.7	2.38
684.73	0.38
684.76	10.38
684.79	29.38
684.82	-5.62
684.85	2.38
684.88	-5.62
684.91	-9.62
684.94	0.38
684.97	-8.62
685	-9.62
685.03	-5.62
685.06	-17.62
685.09	-8.62
685.12	10.38
685.15	-12.62
685.18	8.38
685.21	-2.62
685.24	11.38
685.27	31.38
685.3	-6.62
685.33	2.38
685.36	-9.62
685.39	-3.62
685.42	-9.62
685.45	-9.62
685.48	-0.62
685.51	2.38
685.54	7.38
685.569	7.38
685.599	16.38
685.629	-3.62
685.659	11.38
685.689	-8.62
685.719	-1.62
685.749	-1.62
685.779	-1.62
685.809	1.38
685.839	-3.62
685.869	-11.62
685.898	19.38
685.928	-0.62
685.958	-7.62
685.988	13.38
686.018	3.38
686.048	16.38
686.078	-1.62
686.108	-1.62
686.137	4.38
686.167	6.38
686.197	-14.62
686.227	-0.62
686.257	29.38
686.287	13.38
686.317	1.38
686.346	4.38
686.376	3.38
686.406	1.38
686.436	13.38
686.466	8.38
686.496	1.38
686.525	-9.62
686.555	-10.62
686.585	23.38
686.615	33.38
686.645	0.38
686.675	-2.62
686.704	-2.62
686.734	4.38
686.764	-3.62
686.794	18.38
686.824	-16.62
686.853	4.38
686.883	3.38
686.913	12.38
686.943	13.38
686.973	-11.62
687.002	-0.62
687.032	-3.62
687.062	-5.62
687.092	16.38
687.121	-11.62
687.151	4.38
687.181	2.38
687.211	9.38
687.24	-2.62
687.27	3.38
687.3	-5.62
687.33	6.38
687.359	-12.62
687.389	-4.62
687.419	1.38
687.449	12.38
687.478	5.38
687.508	2.38
687.538	28.38
687.568	17.38
687.597	3.38
687.627	11.38
687.657	10.38
687.686	3.38
687.716	11.38
687.746	-4.62
687.776	-0.62
687.805	12.38
687.835	-3.62
687.865	23.38
687.894	11.38
687.924	1.38
687.954	-1.62
687.983	-1.62
688.013	13.38
688.043	-2.62
688.072	1.38
688.102	7.38
688.132	-10.62
688.161	0.38
688.191	7.38
688.221	27.38
688.25	-3.62
688.28	4.38
688.31	2.38
688.339	9.38
688.369	-3.62
688.399	-6.62
688.428	-6.62
688.458	-0.62
688.488	-2.62
688.517	16.38
688.547	-17.62
688.576	20.38
688.606	7.38
688.636	-26.62
688.665	-0.62
688.695	18.38
688.725	11.38
688.754	7.38
688.784	1.38
688.813	13.38
688.843	-2.62
688.873	-16.62
688.902	-2.62
688.932	5.38
688.961	4.38
688.991	13.38
689.02	-0.62
689.05	-14.62
689.08	20.38
689.109	14.38
689.139	0.38
689.168	1.38
689.198	-0.62
689.227	-12.62
689.257	-13.62
689.287	3.38
689.316	7.38
689.346	-5.62
689.375	-17.62
689.405	14.38
689.434	-3.62
689.464	-2.62
689.493	1.38
689.523	8.38
689.552	-0.62
689.582	-2.62
689.611	3.38
689.641	22.38
689.67	4.38
689.7	13.38
689.73	13.38
689.759	-9.62
689.789	12.38
689.818	6.38
689.848	-8.62
689.877	23.38
689.906	-9.62
689.936	-5.62
689.965	8.38
689.995	2.38
690.024	25.38
690.054	-1.62
690.083	-1.62
690.113	-9.62
690.142	3.38
690.172	3.38
690.201	3.38
690.231	-6.62
690.26	4.38
690.29	0.38
690.319	1.38
690.348	10.38
690.378	8.38
690.407	-1.62
690.437	3.38
690.466	7.38
690.496	0.38
690.525	7.38
690.555	7.38
690.584	19.38
690.613	3.38
690.643	9.38
690.672	2.38
690.702	12.38
690.731	-10.62
690.76	-0.62
690.79	-9.62
690.819	11.38
690.849	-3.62
690.878	6.38
690.907	8.38
690.937	8.38
690.966	20.38
690.996	-1.62
691.025	-9.62
691.054	-8.62
691.084	1.38
691.113	6.38
691.142	16.38
691.172	12.38
691.201	19.38
691.23	3.38
691.26	12.38
691.289	7.38
691.319	-3.62
691.348	11.38
691.377	17.38
691.407	12.38
691.436	2.38
691.465	2.38
691.495	-21.62
691.524	-19.62
691.553	-6.62
691.583	-3.62
691.612	9.38
691.641	0.38
691.67	-0.62
691.7	-0.62
691.729	-6.62
691.758	1.38
691.788	18.38
691.817	2.38
691.846	8.38
691.876	-13.62
691.905	-2.62
691.934	-1.62
691.963	15.38
691.993	9.38
692.022	4.38
692.051	-12.62
692.081	9.38
692.11	15.38
692.139	-5.62
692.168	7.38
692.198	23.38
692.227	23.38
692.256	-0.62
692.285	-14.62
692.315	-12.62
692.344	-0.62
692.373	18.38
692.402	-20.62
692.432	-14.62
692.461	-2.62
692.49	-2.62
692.519	1.38
692.548	8.38
692.578	12.38
692.607	-12.62
692.636	-4.62
692.665	9.38
692.694	-7.62
692.724	-1.62
692.753	2.38
692.782	25.38
692.811	1.38
692.84	3.38
692.87	7.38
692.899	-1.62
692.928	2.38
692.957	11.38
692.986	1.38
693.016	14.38
693.045	12.38
693.074	9.38
693.103	-5.62
693.132	4.38
693.161	-1.62
693.191	-9.62
693.22	-1.62
693.249	9.38
693.278	2.38
693.307	15.38
693.336	-5.62
693.365	-10.62
693.395	-5.62
693.424	-5.62
693.453	23.38
693.482	0.38
693.511	4.38
693.54	18.38
693.569	4.38
693.598	2.38
693.628	19.38
693.657	15.38
693.686	23.38
693.715	1.38
693.744	6.38
693.773	14.38
693.802	0.38
693.831	-1.62
693.86	17.38
693.889	0.38
693.919	16.38
693.948	-1.62
693.977	2.38
694.006	3.38
694.035	-6.62
694.064	22.38
694.093	-9.62
694.122	-6.62
694.151	-14.62
694.18	8.38
694.209	18.38
694.238	4.38
694.267	9.38
694.296	11.38
694.325	16.38
694.354	14.38
694.383	14.38
694.412	-3.62
694.441	-7.62
694.471	-16.62
694.5	-0.62
694.529	-0.62
694.558	20.38
694.587	27.38
694.616	-3.62
694.645	11.38
694.674	26.38
694.703	6.38
694.732	4.38
694.761	11.38
694.79	4.38
694.819	-15.62
694.848	5.38
694.877	26.38
694.906	12.38
694.935	-5.62
694.963	11.38
694.992	4.38
695.021	2.38
695.05	8.38
695.079	-6.62
695.108	4.38
695.137	7.38
695.166	1.38
695.195	-9.62
695.224	0.38
695.253	1.38
695.282	7.38
695.311	1.38
695.34	5.38
695.369	9.38
695.398	1.38
695.427	14.38
695.456	16.38
695.485	8.38
695.513	9.38
695.542	4.38
695.571	3.38
695.6	22.38
695.629	2.38
695.658	1.38
695.687	-2.62
695.716	15.38
695.745	24.38
695.774	2.38
695.802	6.38
695.831	15.38
695.86	16.38
695.889	15.38
695.918	11.38
695.947	0.38
695.976	-4.62
696.005	8.38
696.033	15.38
696.062	9.38
696.091	2.38
696.12	4.38
696.149	16.38
696.178	10.38
696.207	10.38
696.235	-4.62
696.264	2.38
696.293	9.38
696.322	3.38
696.351	11.38
696.38	1.38
696.408	6.38
696.437	5.38
696.466	5.38
696.495	17.38
696.524	15.38
696.553	3.38
696.581	4.38
696.61	-1.62
696.639	-7.62
696.668	-1.62
696.697	-9.62
696.725	0.38
696.754	16.38
696.783	-12.62
696.812	-20.62
696.84	7.38
696.869	0.38
696.898	11.38
696.927	-6.62
696.956	4.38
696.984	-10.62
697.013	-3.62
697.042	-8.62
697.071	3.38
697.099	10.38
697.128	9.38
697.157	0.38
697.186	-11.62
697.214	1.38
697.243	22.38
697.272	7.38
697.301	3.38
697.329	2.38
697.358	3.38
697.387	-0.62
697.415	2.38
697.444	11.38
697.473	5.38
697.502	-10.62
697.53	17.38
697.559	9.38
697.588	3.38
697.616	-12.62
697.645	-1.62
697.674	9.38
697.703	5.38
697.731	6.38
697.76	13.38
697.789	-2.62
697.817	-8.62
697.846	12.38
697.875	-5.62
697.903	19.38
697.932	19.38
697.961	21.38
697.989	9.38
698.018	11.38
698.047	-0.62
698.075	12.38
698.104	0.38
698.133	-9.62
698.161	-4.62
698.19	5.38
698.218	-2.62
698.247	11.38
698.276	2.38
698.304	8.38
698.333	1.38
698.362	23.38
698.39	12.38
698.419	18.38
698.447	0.38
698.476	-10.62
698.505	15.38
698.533	3.38
698.562	4.38
698.591	-1.62
698.619	-0.62
698.648	5.38
698.676	2.38
698.705	3.38
698.733	-19.62
698.762	-5.62
698.791	0.38
698.819	12.38
698.848	12.38
698.876	5.38
698.905	12.38
698.933	10.38
698.962	-2.62
698.991	-3.62
699.019	5.38
699.048	5.38
699.076	6.38
699.105	-12.62
699.133	-20.62
699.162	-7.62
699.19	20.38
699.219	4.38
699.248	3.38
699.276	-9.62
699.305	-12.62
699.333	11.38
699.362	-4.62
699.39	3.38
699.419	0.38
699.447	16.38
699.476	20.38
699.504	-2.62
699.533	-5.62
699.561	4.38
699.59	4.38
699.618	-1.62
699.647	-1.62
699.675	6.38
699.704	-0.62
699.732	0.38
699.761	6.38
699.789	-6.62
699.818	-0.62
699.846	-9.62
699.874	-11.62
699.903	-6.62
699.931	-1.62
699.96	0.38
699.988	9.38
700.017	2.38
700.045	3.38
700.074	-3.62
700.102	0.38
700.13	-4.62
700.159	7.38
700.187	7.38
700.216	9.38
700.244	0.38
700.273	17.38
700.301	19.38
700.329	2.38
700.358	8.38
700.386	10.38
700.415	13.38
700.443	-1.62
700.472	10.38
700.5	6.38
700.528	11.38
700.557	14.38
700.585	7.38
700.614	5.38
700.642	27.38
700.67	7.38
700.699	3.38
700.727	-13.62
700.755	-5.62
700.784	9.38
700.812	6.38
700.841	3.38
700.869	11.38
700.897	-1.62
700.926	-13.62
700.954	5.38
700.982	4.38
701.011	0.38
701.039	8.38
701.067	-1.62
701.096	-5.62
701.124	-15.62
701.152	-5.62
701.181	4.38
701.209	-7.62
701.237	-7.62
701.266	-11.62
701.294	1.38
701.322	12.38
701.351	11.38
701.379	12.38
701.407	-3.62
701.435	-5.62
701.464	19.38
701.492	23.38
701.52	7.38
701.549	10.38
701.577	0.38
701.605	-1.62
701.634	7.38
701.662	22.38
701.69	-10.62
701.718	3.38
701.747	9.38
701.775	5.38
701.803	-1.62
701.831	10.38
701.86	4.38
701.888	3.38
701.916	8.38
701.944	-12.62
701.973	-1.62
702.001	-3.62
702.029	-11.62
702.057	-15.62
702.086	-13.62
702.114	-8.62
702.142	7.38
702.17	-7.62
702.199	12.38
702.227	7.38
702.255	2.38
702.283	5.38
702.311	14.38
702.34	-7.62
702.368	-14.62
702.396	-1.62
702.424	-4.62
702.452	-7.62
702.481	-8.62
702.509	-0.62
702.537	11.38
702.565	6.38
702.593	-30.62
702.621	-5.62
702.65	-1.62
702.678	0.38
702.706	0.38
702.734	-7.62
702.762	6.38
702.79	-0.62
702.819	5.38
702.847	6.38
702.875	18.38
702.903	5.38
702.931	-1.62
702.959	-0.62
702.988	2.38
703.016	-16.62
703.044	-3.62
703.072	0.38
703.1	4.38
703.128	-4.62
703.156	-3.62
703.184	2.38
703.212	4.38
703.241	12.38
703.269	6.38
703.297	13.38
703.325	20.38
703.353	-2.62
703.381	-15.62
703.409	-16.62
703.437	-5.62
703.465	3.38
703.493	-22.62
703.522	14.38
703.55	1.38
703.578	10.38
703.606	-15.62
703.634	0.38
703.662	-32.62
703.69	-4.62
703.718	1.38
703.746	7.38
703.774	9.38
703.802	13.38
703.83	-4.62
703.858	-7.62
703.886	-14.62
703.914	-7.62
703.942	25.38
703.97	1.38
703.998	6.38
704.027	13.38
704.055	8.38
704.083	-2.62
704.111	-10.62
704.139	8.38
704.167	-14.62
704.195	2.38
704.223	-12.62
704.251	3.38
704.279	0.38
704.307	10.38
704.335	-11.62
704.363	4.38
704.391	9.38
704.419	-6.62
704.447	-5.62
704.475	12.38
704.503	-4.62
704.531	2.38
704.558	13.38
704.586	10.38
704.614	0.38
704.642	-13.62
704.67	-20.62
704.698	-10.62
704.726	16.38
704.754	12.38
704.782	2.38
704.81	6.38
704.838	15.38
704.866	7.38
704.894	-4.62
704.922	-0.62
704.95	21.38
704.978	10.38
705.006	-1.62
705.034	2.38
705.061	-1.62
705.089	0.38
705.117	-14.62
705.145	9.38
705.173	6.38
705.201	1.38
705.229	-4.62
705.257	-5.62
705.285	16.38
705.313	10.38
705.34	3.38
705.368	-15.62
705.396	11.38
705.424	7.38
705.452	3.38
705.48	13.38
705.508	-6.62
705.536	-7.62
705.563	-4.62
705.591	3.38
705.619	3.38
705.647	-12.62
705.675	11.38
705.703	3.38
705.731	-6.62
705.758	-1.62
705.786	0.38
705.814	9.38
705.842	-3.62
705.87	3.38
705.898	6.38
705.925	-10.62
705.953	-5.62
705.981	-13.62
706.009	-15.62
706.037	13.38
706.065	-4.62
706.092	-13.62
706.12	-1.62
706.148	-5.62
706.176	-2.62
706.204	6.38
706.231	8.38
706.259	-12.62
706.287	-11.62
706.315	1.38
706.342	-4.62
706.37	12.38
706.398	-1.62
706.426	-6.62
706.454	3.38
706.481	1.38
706.509	4.38
706.537	-0.62
706.565	-10.62
706.592	15.38
706.62	-16.62
706.648	8.38
706.676	-6.62
706.703	11.38
706.731	3.38
706.759	-14.62
706.787	8.38
706.814	-0.62
706.842	3.38
706.87	-2.62
706.897	-7.62
706.925	-8.62
706.953	9.38
706.981	8.38
707.008	11.38
707.036	9.38
707.064	10.38
707.091	-27.62
707.119	-20.62
707.147	-2.62
707.174	-15.62
707.202	2.38
707.23	9.38
707.258	-2.62
707.285	-8.62
707.313	0.38
707.341	0.38
707.368	-13.62
707.396	-6.62
707.424	13.38
707.451	17.38
707.479	14.38
707.507	11.38
707.534	-5.62
707.562	-1.62
707.59	-12.62
707.617	-9.62
707.645	2.38
707.672	0.38
707.7	-2.62
707.728	15.38
707.755	8.38
707.783	-3.62
707.811	-8.62
707.838	-4.62
707.866	4.38
707.893	-2.62
707.921	-21.62
707.949	2.38
707.976	-3.62
708.004	2.38
708.031	1.38
708.059	1.38
708.087	-0.62
708.114	-14.62
708.142	-0.62
708.169	-13.62
708.197	-18.62
708.225	-2.62
708.252	-16.62
708.28	16.38
708.307	-19.62
708.335	-4.62
708.362	-16.62
708.39	-17.62
708.418	-14.62
708.445	-22.62
708.473	-9.62
708.5	-2.62
708.528	13.38
708.555	-7.62
708.583	-15.62
708.61	1.38
708.638	-1.62
708.665	-6.62
708.693	-5.62
708.72	0.38
708.748	-13.62
708.776	3.38
708.803	14.38
708.831	-6.62
708.858	10.38
708.886	13.38
708.913	-5.62
708.941	-11.62
708.968	5.38
708.996	2.38
709.023	37.38
709.051	10.38
709.078	-6.62
709.105	10.38
709.133	-4.62
709.16	-10.62
709.188	9.38
709.215	1.38
709.243	-4.62
709.27	-13.62
709.298	3.38
709.325	0.38
709.353	-1.62
709.38	-5.62
709.408	-5.62
709.435	17.38
709.462	0.38
709.49	14.38
709.517	-2.62
709.545	-19.62
709.572	-4.62
709.6	-5.62
709.627	-2.62
709.655	-14.62
709.682	-6.62
709.709	-14.62
709.737	3.38
709.764	-6.62
709.792	16.38
709.819	4.38
709.846	-9.62
709.874	2.38
709.901	-0.62
709.929	11.38
709.956	-2.62
709.983	-9.62
710.011	-9.62
710.038	-4.62
710.066	0.38
710.093	-1.62
710.12	1.38
710.148	1.38
710.175	-10.62
710.202	-11.62
710.23	10.38
710.257	7.38
710.284	6.38
710.312	3.38
710.339	-1.62
710.366	-2.62
710.394	4.38
710.421	7.38
710.448	-10.62
710.476	-16.62
710.503	23.38
710.53	20.38
710.558	8.38
710.585	14.38
710.612	8.38
710.64	5.38
710.667	-13.62
710.694	7.38
710.722	18.38
710.749	-3.62
710.776	6.38
710.804	27.38
710.831	0.38
710.858	6.38
710.885	-5.62
710.913	-12.62
710.94	12.38
710.967	2.38
710.995	0.38
711.022	4.38
711.049	12.38
711.076	-8.62
711.104	-0.62
711.131	-4.62
711.158	6.38
711.185	7.38
711.213	-21.62
711.24	-15.62
711.267	-13.62
711.294	-3.62
711.322	11.38
711.349	-10.62
711.376	-13.62
711.403	-1.62
711.431	-6.62
711.458	10.38
711.485	-0.62
711.512	8.38
711.54	4.38
711.567	11.38
711.594	-3.62
711.621	1.38
711.648	2.38
711.676	3.38
711.703	-5.62
711.73	-7.62
711.757	3.38
711.784	-5.62
711.812	5.38
711.839	1.38
711.866	6.38
711.893	3.38
711.92	-0.62
711.947	-0.62
711.975	21.38
712.002	-3.62
712.029	7.38
712.056	15.38
712.083	4.38
712.11	-13.62
712.138	16.38
712.165	3.38
712.192	2.38
712.219	-5.62
712.246	-12.62
712.273	-8.62
712.3	-8.62
712.328	8.38
712.355	6.38
712.382	-8.62
712.409	3.38
712.436	-19.62
712.463	7.38
712.49	7.38
712.517	-2.62
712.544	3.38
712.572	0.38
712.599	4.38
712.626	11.38
712.653	2.38
712.68	-9.62
712.707	5.38
712.734	4.38
712.761	-3.62
712.788	9.38
712.815	2.38
712.842	10.38
712.87	0.38
712.897	-11.62
712.924	-9.62
712.951	7.38
712.978	20.38
713.005	12.38
713.032	2.38
713.059	-6.62
713.086	-10.62
713.113	-15.62
713.14	-15.62
713.167	11.38
713.194	17.38
713.221	-1.62
713.248	4.38
713.275	-11.62
713.302	-19.62
713.329	-15.62
713.356	-3.62
713.383	15.38
713.41	4.38
713.437	-14.62
713.464	9.38
713.491	28.38
713.518	-3.62
713.545	-13.62
713.572	-15.62
713.599	16.38
713.626	-0.62
713.653	3.38
713.68	2.38
713.707	-6.62
713.734	18.38
713.761	7.38
713.788	0.38
713.815	9.38
713.842	-1.62
713.869	-4.62
713.896	-3.62
713.923	-13.62
713.95	-7.62
713.977	-12.62
714.004	-3.62
714.031	3.38
714.058	-9.62
714.085	-2.62
714.112	26.38
714.139	2.38
714.165	6.38
714.192	-0.62
714.219	9.38
714.246	-4.62
714.273	-8.62
714.3	-3.62
714.327	-0.62
714.354	9.38
714.381	-3.62
714.408	6.38
714.435	-1.62
714.461	-0.62
714.488	12.38
714.515	-17.62
714.542	-9.62
714.569	-4.62
714.596	-14.62
714.623	-11.62
714.65	-15.62
714.677	-6.62
714.703	-11.62
714.73	-4.62
714.757	10.38
714.784	-2.62
714.811	-3.62
714.838	-3.62
714.865	-0.62
714.891	6.38
714.918	3.38
714.945	-7.62
714.972	5.38
714.999	14.38
715.026	5.38
715.052	19.38
715.079	-1.62
715.106	-10.62
715.133	-1.62
715.16	-7.62
715.187	-0.62
715.213	-4.62
715.24	-9.62
715.267	-11.62
715.294	10.38
715.321	0.38
715.347	3.38
715.374	-19.62
715.401	-1.62
715.428	-1.62
715.455	-3.62
715.481	9.38
715.508	8.38
715.535	-5.62
715.562	14.38
715.588	-12.62
715.615	1.38
715.642	7.38
715.669	17.38
715.695	-15.62
715.722	8.38
715.749	13.38
715.776	18.38
715.802	8.38
715.829	6.38
715.856	2.38
715.883	20.38
715.909	2.38
715.936	-16.62
715.963	0.38
715.99	-10.62
716.016	-12.62
716.043	4.38
716.07	2.38
716.096	-9.62
716.123	6.38
716.15	-3.62
716.177	-14.62
716.203	10.38
716.23	3.38
716.257	10.38
716.283	9.38
716.31	1.38
716.337	8.38
716.363	3.38
716.39	1.38
716.417	8.38
716.443	1.38
716.47	6.38
716.497	16.38
716.523	22.38
716.55	8.38
716.577	12.38
716.603	-0.62
716.63	0.38
716.657	16.38
716.683	-7.62
716.71	-11.62
716.737	-6.62
716.763	-6.62
716.79	-1.62
716.817	18.38
716.843	15.38
716.87	4.38
716.897	3.38
716.923	15.38
716.95	3.38
716.976	-1.62
717.003	7.38
717.03	-1.62
717.056	9.38
717.083	-0.62
717.109	12.38
717.136	12.38
717.163	3.38
717.189	8.38
717.216	0.38
717.242	7.38
717.269	-1.62
717.296	-3.62
717.322	4.38
717.349	2.38
717.375	-2.62
717.402	3.38
717.428	6.38
717.455	4.38
717.481	-4.62
717.508	13.38
717.535	13.38
717.561	3.38
717.588	0.38
717.614	-5.62
717.641	-15.62
717.667	-11.62
717.694	-9.62
717.72	4.38
717.747	8.38
717.773	-5.62
717.8	-2.62
717.826	1.38
717.853	-0.62
717.88	4.38
717.906	12.38
717.933	-3.62
717.959	5.38
717.986	1.38
718.012	1.38
718.039	7.38
718.065	-1.62
718.092	-3.62
718.118	-6.62
718.144	7.38
718.171	15.38
718.197	13.38
718.224	-3.62
718.25	-1.62
718.277	5.38
718.303	-5.62
718.33	0.38
718.356	-11.62
718.383	-30.62
718.409	1.38
718.436	-1.62
718.462	4.38
718.489	-7.62
718.515	6.38
718.541	11.38
718.568	4.38
718.594	1.38
718.621	4.38
718.647	-6.62
718.674	4.38
718.7	11.38
718.726	-4.62
718.753	12.38
718.779	8.38
718.806	3.38
718.832	-1.62
718.858	-1.62
718.885	-5.62
718.911	0.38
718.938	13.38
718.964	-20.62
718.99	0.38
719.017	-13.62
719.043	-1.62
719.07	-4.62
719.096	-6.62
719.122	4.38
719.149	6.38
719.175	-9.62
719.201	-1.62
719.228	0.38
719.254	7.38
719.281	-2.62
719.307	-17.62
719.333	-4.62
719.36	0.38
719.386	-12.62
719.412	-6.62
719.439	4.38
719.465	1.38
719.491	-5.62
719.518	5.38
719.544	-4.62
719.57	-0.62
719.597	-11.62
719.623	7.38
719.649	1.38
719.675	-8.62
719.702	-5.62
719.728	-3.62
719.754	-5.62
719.781	4.38
719.807	26.38
719.833	1.38
719.86	-5.62
719.886	3.38
719.912	8.38
719.938	-1.62
719.965	2.38
719.991	5.38
720.017	6.38
720.044	-13.62
720.07	14.38
720.096	13.38
720.122	8.38
720.149	-7.62
720.175	28.38
720.201	-0.62
720.227	-4.62
720.254	-7.62
720.28	-4.62
720.306	2.38
720.332	15.38
720.359	8.38
720.385	21.38
720.411	4.38
720.437	-12.62
720.463	6.38
720.49	15.38
720.516	-7.62
720.542	-13.62
720.568	8.38
720.595	-4.62
720.621	4.38
720.647	-8.62
720.673	-8.62
720.699	-0.62
720.725	5.38
720.752	-5.62
720.778	-5.62
720.804	1.38
720.83	1.38
720.856	4.38
720.883	-4.62
720.909	-1.62
720.935	-0.62
720.961	8.38
720.987	2.38
721.013	0.38
721.04	6.38
721.066	10.38
721.092	1.38
721.118	17.38
721.144	16.38
721.17	2.38
721.196	0.38
721.223	-9.62
721.249	-8.62
721.275	17.38
721.301	13.38
721.327	11.38
721.353	10.38
721.379	9.38
721.405	31.38
721.432	11.38
721.458	-0.62
721.484	7.38
721.51	-9.62
721.536	1.38
721.562	7.38
721.588	9.38
721.614	-11.62
721.64	10.38
721.666	0.38
721.693	-9.62
721.719	-4.62
721.745	-9.62
721.771	1.38
721.797	10.38
721.823	20.38
721.849	16.38
721.875	12.38
721.901	7.38
721.927	-3.62
721.953	7.38
721.979	5.38
722.005	6.38
722.031	3.38
722.057	-6.62
722.083	2.38
722.109	-2.62
722.135	4.38
722.161	16.38
722.187	-4.62
722.214	-7.62
722.24	-9.62
722.266	-3.62
722.292	-3.62
722.318	-0.62
722.344	7.38
722.37	3.38
722.396	0.38
722.422	5.38
722.448	8.38
722.474	-13.62
722.5	-0.62
722.526	-8.62
722.552	-0.62
722.578	2.38
722.603	14.38
722.629	-9.62
722.655	-1.62
722.681	2.38
722.707	-4.62
722.733	-8.62
722.759	-17.62
722.785	-18.62
722.811	-9.62
722.837	-4.62
722.863	9.38
722.889	13.38
722.915	-2.62
722.941	-1.62
722.967	-8.62
722.993	3.38
723.019	-5.62
723.045	2.38
723.071	-5.62
723.097	2.38
723.122	6.38
723.148	-8.62
723.174	6.38
723.2	11.38
723.226	-5.62
723.252	-3.62
723.278	-2.62
723.304	-2.62
723.33	1.38
723.356	-12.62
723.381	-10.62
723.407	-19.62
723.433	16.38
723.459	-6.62
723.485	-12.62
723.511	0.38
723.537	0.38
723.563	-5.62
723.588	-1.62
723.614	12.38
723.64	5.38
723.666	-2.62
723.692	10.38
723.718	-1.62
723.744	-8.62
723.769	-15.62
723.795	-11.62
723.821	2.38
723.847	0.38
723.873	-2.62
723.899	3.38
723.924	-1.62
723.95	7.38
723.976	0.38
724.002	-4.62
724.028	-2.62
724.053	7.38
724.079	8.38
724.105	5.38
724.131	-5.62
724.157	-5.62
724.182	13.38
724.208	9.38
724.234	-3.62
724.26	1.38
724.286	18.38
724.311	-7.62
724.337	-1.62
724.363	-6.62
724.389	-5.62
724.415	3.38
724.44	14.38
724.466	-1.62
724.492	-3.62
724.518	12.38
724.543	-5.62
724.569	10.38
724.595	-3.62
724.621	-14.62
724.646	-13.62
724.672	-3.62
724.698	-3.62
724.723	-8.62
724.749	8.38
724.775	-0.62
724.801	-2.62
724.826	-19.62
724.852	-5.62
724.878	-4.62
724.904	-8.62
724.929	4.38
724.955	-4.62
724.981	0.38
725.006	-9.62
725.032	13.38
725.058	7.38
725.083	-6.62
725.109	-2.62
725.135	-4.62
725.161	-5.62
725.186	1.38
725.212	8.38
725.238	-0.62
725.263	3.38
725.289	-23.62
725.315	-4.62
725.34	-7.62
725.366	-0.62
725.392	-1.62
725.417	8.38
725.443	-7.62
725.468	9.38
725.494	5.38
725.52	7.38
725.545	2.38
725.571	-7.62
725.597	-0.62
725.622	2.38
725.648	7.38
725.674	2.38
725.699	-14.62
725.725	11.38
725.75	15.38
725.776	-0.62
725.802	-1.62
725.827	-0.62
725.853	4.38
725.878	3.38
725.904	3.38
725.93	2.38
725.955	-2.62
725.981	-6.62
726.006	-15.62
726.032	-11.62
726.057	-2.62
726.083	7.38
726.109	2.38
726.134	10.38
726.16	3.38
726.185	2.38
726.211	-10.62
726.236	2.38
726.262	15.38
726.288	6.38
726.313	10.38
726.339	1.38
726.364	-7.62
726.39	15.38
726.415	-5.62
726.441	-3.62
726.466	-15.62
726.492	9.38
726.517	5.38
726.543	-4.62
726.568	-7.62
726.594	-0.62
726.619	-1.62
726.645	-0.62
726.67	2.38
726.696	12.38
726.721	2.38
726.747	1.38
726.772	-7.62
726.798	0.38
726.823	-7.62
726.849	-5.62
726.874	13.38
726.9	12.38
726.925	-0.62
726.951	-3.62
726.976	0.38
727.002	3.38
727.027	9.38
727.053	6.38
727.078	11.38
727.104	-9.62
727.129	-20.62
727.155	-0.62
727.18	1.38
727.205	-4.62
727.231	-7.62
727.256	-2.62
727.282	-0.62
727.307	22.38
727.333	7.38
727.358	-2.62
727.383	-8.62
727.409	-5.62
727.434	7.38
727.46	-1.62
727.485	-5.62
727.511	5.38
727.536	-27.62
727.561	9.38
727.587	-13.62
727.612	-1.62
727.637	-12.62
727.663	-11.62
727.688	-5.62
727.714	-4.62
727.739	-8.62
727.764	-6.62
727.79	13.38
727.815	6.38
727.841	14.38
727.866	6.38
727.891	2.38
727.917	-5.62
727.942	12.38
727.967	-6.62
727.993	-5.62
728.018	-0.62
728.043	1.38
728.069	6.38
728.094	1.38
728.119	-1.62
728.145	11.38
728.17	-6.62
728.195	-16.62
728.221	5.38
728.246	-1.62
728.271	-19.62
728.297	-8.62
728.322	-3.62
728.347	-6.62
728.373	0.38
728.398	7.38
728.423	1.38
728.448	-3.62
728.474	-6.62
728.499	14.38
728.524	-7.62
728.55	-1.62
728.575	-3.62
728.6	-2.62
728.625	-1.62
728.651	7.38
728.676	-3.62
728.701	-9.62
728.727	-4.62
728.752	-17.62
728.777	3.38
728.802	2.38
728.828	11.38
728.853	-4.62
728.878	-10.62
728.903	-5.62
728.929	-21.62
728.954	-8.62
728.979	-5.62
729.004	-4.62
729.03	-17.62
729.055	9.38
729.08	-14.62
729.105	-14.62
729.13	7.38
729.156	17.38
729.181	-4.62
729.206	-21.62
729.231	-12.62
729.256	1.38
729.282	-12.62
729.307	-22.62
729.332	-19.62
729.357	-13.62
729.382	1.38
729.408	-11.62
729.433	1.38
729.458	-6.62
729.483	-0.62
729.508	8.38
729.533	7.38
729.559	3.38
729.584	-12.62
729.609	9.38
729.634	-4.62
729.659	4.38
729.684	-11.62
729.71	13.38
729.735	-6.62
729.76	-5.62
729.785	1.38
729.81	7.38
729.835	-6.62
729.86	-1.62
729.886	7.38
729.911	3.38
729.936	-5.62
729.961	6.38
729.986	-6.62
730.011	10.38
730.036	-5.62
730.061	6.38
730.086	4.38
730.112	3.38
730.137	4.38
730.162	4.38
730.187	-12.62
730.212	11.38
730.237	-16.62
730.262	-0.62
730.287	-4.62
730.312	20.38
730.337	-8.62
730.362	15.38
730.387	9.38
730.413	-3.62
730.438	-9.62
730.463	2.38
730.488	2.38
730.513	-9.62
730.538	-13.62
730.563	7.38
730.588	9.38
730.613	16.38
730.638	-3.62
730.663	4.38
730.688	-2.62
730.713	6.38
730.738	-6.62
730.763	5.38
730.788	-1.62
730.813	3.38
730.838	3.38
730.863	-1.62
730.888	0.38
730.913	-7.62
730.938	-21.62
730.963	-4.62
730.988	12.38
731.013	11.38
731.038	6.38
731.063	-5.62
731.088	-2.62
731.113	-14.62
731.138	1.38
731.163	-7.62
731.188	-5.62
731.213	12.38
731.238	15.38
731.263	0.38
731.288	0.38
731.313	-1.62
731.338	2.38
731.363	2.38
731.388	1.38
731.413	-7.62
731.438	10.38
731.463	6.38
731.487	8.38
731.512	5.38
731.537	-3.62
731.562	-11.62
731.587	11.38
731.612	2.38
731.637	-11.62
731.662	-1.62
731.687	-4.62
731.712	-16.62
731.737	-3.62
731.762	-5.62
731.786	-1.62
731.811	-3.62
731.836	7.38
731.861	6.38
731.886	-12.62
731.911	7.38
731.936	4.38
731.961	-7.62
731.986	-3.62
732.01	8.38
732.035	13.38
732.06	11.38
732.085	4.38
732.11	16.38
732.135	4.38
732.16	-15.62
732.184	-8.62
732.209	4.38
732.234	-11.62
732.259	-14.62
732.284	-0.62
732.309	7.38
732.334	-6.62
732.358	-13.62
732.383	-4.62
732.408	17.38
732.433	-0.62
732.458	2.38
732.482	4.38
732.507	6.38
732.532	-3.62
732.557	1.38
732.582	4.38
732.607	-0.62
732.631	-1.62
732.656	-4.62
732.681	4.38
732.706	2.38
732.73	1.38
732.755	-17.62
732.78	-6.62
732.805	-1.62
732.83	-6.62
732.854	-7.62
732.879	15.38
732.904	8.38
732.929	4.38
732.953	-9.62
732.978	-0.62
733.003	-15.62
733.028	-7.62
733.052	-6.62
733.077	-2.62
733.102	-3.62
733.127	-3.62
733.151	-8.62
733.176	12.38
733.201	-4.62
733.226	2.38
733.25	0.38
733.275	3.38
733.3	3.38
733.324	12.38
733.349	-8.62
733.374	19.38
733.399	2.38
733.423	-6.62
733.448	-11.62
733.473	-21.62
733.497	-12.62
733.522	-16.62
733.547	-4.62
733.571	12.38
733.596	3.38
733.621	14.38
733.646	-12.62
733.67	-3.62
733.695	-0.62
733.72	4.38
733.744	7.38
733.769	3.38
733.794	10.38
733.818	6.38
733.843	-12.62
733.867	-5.62
733.892	-0.62
733.917	-7.62
733.941	-2.62
733.966	-4.62
733.991	2.38
734.015	10.38
734.04	10.38
734.065	18.38
734.089	16.38
734.114	2.38
734.138	7.38
734.163	1.38
734.188	1.38
734.212	16.38
734.237	-0.62
734.261	-3.62
734.286	0.38
734.311	-4.62
734.335	-3.62
734.36	4.38
734.384	7.38
734.409	17.38
734.434	2.38
734.458	23.38
734.483	-7.62
734.507	-3.62
734.532	-11.62
734.556	-0.62
734.581	10.38
734.606	0.38
734.63	-0.62
734.655	5.38
734.679	2.38
734.704	-2.62
734.728	-11.62
734.753	-1.62
734.777	-0.62
734.802	-6.62
734.826	-2.62
734.851	-6.62
734.876	19.38
734.9	14.38
734.925	12.38
734.949	10.38
734.974	-4.62
734.998	6.38
735.023	-22.62
735.047	-17.62
735.072	20.38
735.096	-8.62
735.121	-10.62
735.145	-8.62
735.17	-12.62
735.194	1.38
735.219	-6.62
735.243	2.38
735.268	16.38
735.292	3.38
735.317	0.38
735.341	4.38
735.365	-11.62
735.39	0.38
735.414	-1.62
735.439	16.38
735.463	6.38
735.488	-7.62
735.512	2.38
735.537	7.38
735.561	-5.62
735.586	0.38
735.61	8.38
735.634	2.38
735.659	7.38
735.683	8.38
735.708	-13.62
735.732	-9.62
735.757	-11.62
735.781	1.38
735.805	7.38
735.83	-10.62
735.854	-13.62
735.879	5.38
735.903	-0.62
735.927	-8.62
735.952	15.38
735.976	5.38
736.001	-7.62
736.025	-7.62
736.049	5.38
736.074	1.38
736.098	-8.62
736.123	-4.62
736.147	-13.62
736.171	-5.62
736.196	5.38
736.22	-20.62
736.244	-5.62
736.269	-7.62
736.293	-3.62
736.317	3.38
736.342	-2.62
736.366	16.38
736.39	5.38
736.415	-12.62
736.439	-1.62
736.463	11.38
736.488	9.38
736.512	4.38
736.536	10.38
736.561	17.38
736.585	-3.62
736.609	-1.62
736.634	-15.62
736.658	25.38
736.682	-5.62
736.707	-6.62
736.731	-9.62
736.755	-0.62
736.78	24.38
736.804	8.38
736.828	10.38
736.852	1.38
736.877	3.38
736.901	5.38
736.925	-3.62
736.949	6.38
736.974	9.38
736.998	-8.62
737.022	-1.62
737.047	8.38
737.071	4.38
737.095	14.38
737.119	32.38
737.144	2.38
737.168	-1.62
737.192	-8.62
737.216	13.38
737.241	-8.62
737.265	4.38
737.289	-17.62
737.313	16.38
737.337	11.38
737.362	9.38
737.386	6.38
737.41	-0.62
737.434	3.38
737.459	-12.62
737.483	19.38
737.507	0.38
737.531	17.38
737.555	4.38
737.58	12.38
737.604	3.38
737.628	-11.62
737.652	-10.62
737.676	-4.62
737.701	0.38
737.725	4.38
737.749	1.38
737.773	-0.62
737.797	-3.62
737.821	-7.62
737.846	1.38
737.87	33.38
737.894	3.38
737.918	-6.62
737.942	6.38
737.966	13.38
737.99	8.38
738.015	5.38
738.039	9.38
738.063	-6.62
738.087	15.38
738.111	2.38
738.135	23.38
738.159	0.38
738.184	-3.62
738.208	0.38
738.232	9.38
738.256	19.38
738.28	-7.62
738.304	14.38
738.328	-11.62
738.352	7.38
738.376	6.38
738.4	20.38
738.425	19.38
738.449	11.38
738.473	-1.62
738.497	10.38
738.521	3.38
738.545	-1.62
738.569	-0.62
738.593	2.38
738.617	2.38
738.641	0.38
738.665	10.38
738.689	16.38
738.713	6.38
738.737	7.38
738.762	12.38
738.786	6.38
738.81	-9.62
738.834	30.38
738.858	1.38
738.882	17.38
738.906	-2.62
738.93	-3.62
738.954	3.38
738.978	6.38
739.002	2.38
739.026	13.38
739.05	11.38
739.074	1.38
739.098	36.38
739.122	9.38
739.146	-6.62
739.17	12.38
739.194	10.38
739.218	-0.62
739.242	-3.62
739.266	-6.62
739.29	6.38
739.314	14.38
739.338	0.38
739.362	11.38
739.386	2.38
739.41	-12.62
739.434	-0.62
739.458	18.38
739.482	18.38
739.506	8.38
739.53	-5.62
739.554	3.38
739.577	1.38
739.601	7.38
739.625	2.38
739.649	-3.62
739.673	1.38
739.697	10.38
739.721	15.38
739.745	9.38
739.769	22.38
739.793	4.38
739.817	0.38
739.841	-3.62
739.865	8.38
739.889	-15.62
739.912	-0.62
739.936	-28.62
739.96	-1.62
739.984	7.38
740.008	-6.62
740.032	-3.62
740.056	5.38
740.08	5.38
740.104	-8.62
740.127	6.38
740.151	1.38
740.175	6.38
740.199	-1.62
740.223	38.38
740.247	-4.62
740.271	-8.62
740.295	-5.62
740.318	-11.62
740.342	2.38
740.366	-0.62
740.39	10.38
740.414	-4.62
740.438	2.38
740.461	10.38
740.485	-13.62
740.509	-19.62
740.533	8.38
740.557	-9.62
740.581	1.38
740.604	-7.62
740.628	11.38
740.652	0.38
740.676	9.38
740.7	15.38
740.723	-5.62
740.747	-3.62
740.771	5.38
740.795	-13.62
740.819	22.38
740.842	6.38
740.866	-1.62
740.89	-3.62
740.914	-5.62
740.938	-1.62
740.961	8.38
740.985	5.38
741.009	-8.62
741.033	6.38
741.056	-5.62
741.08	-5.62
741.104	-9.62
741.128	0.38
741.151	-1.62
741.175	3.38
741.199	2.38
741.223	-4.62
741.246	-9.62
741.27	5.38
741.294	21.38
741.318	-0.62
741.341	0.38
741.365	-14.62
741.389	8.38
741.413	6.38
741.436	3.38
741.46	3.38
741.484	9.38
741.507	8.38
741.531	25.38
741.555	17.38
741.579	11.38
741.602	25.38
741.626	19.38
741.65	-4.62
741.673	-2.62
741.697	4.38
741.721	0.38
741.744	-11.62
741.768	-17.62
741.792	3.38
741.815	17.38
741.839	3.38
741.863	13.38
741.886	10.38
741.91	6.38
741.934	10.38
741.957	2.38
741.981	6.38
742.005	-0.62
742.028	-14.62
742.052	-0.62
742.075	4.38
742.099	16.38
742.123	10.38
742.146	-0.62
742.17	-2.62
742.194	-14.62
742.217	-2.62
742.241	-5.62
742.264	-16.62
742.288	18.38
742.312	4.38
742.335	-4.62
742.359	4.38
742.382	13.38
742.406	16.38
742.43	-6.62
742.453	-7.62
742.477	-0.62
742.5	15.38
742.524	3.38
742.548	-5.62
742.571	-15.62
742.595	-3.62
742.618	8.38
742.642	-7.62
742.665	6.38
742.689	-12.62
742.712	-9.62
742.736	-11.62
742.76	-6.62
742.783	2.38
742.807	10.38
742.83	4.38
742.854	-3.62
742.877	-8.62
742.901	1.38
742.924	-9.62
742.948	-7.62
742.971	-4.62
742.995	7.38
743.018	-4.62
743.042	-0.62
743.065	1.38
743.089	-8.62
743.112	-4.62
743.136	-21.62
743.159	0.38
743.183	-5.62
743.206	19.38
743.23	-6.62
743.253	9.38
743.277	11.38
743.3	11.38
743.324	6.38
743.347	-7.62
743.371	18.38
743.394	9.38
743.418	19.38
743.441	-6.62
743.465	1.38
743.488	1.38
743.512	-3.62
743.535	-4.62
743.558	2.38
743.582	8.38
743.605	-6.62
743.629	2.38
743.652	11.38
743.676	2.38
743.699	8.38
743.723	5.38
743.746	5.38
743.769	10.38
743.793	-0.62
743.816	-11.62
743.84	2.38
743.863	-12.62
743.886	-13.62
743.91	8.38
743.933	5.38
743.957	4.38
743.98	0.38
744.003	-9.62
744.027	-3.62
744.05	-4.62
744.074	0.38
744.097	-11.62
744.12	-1.62
744.144	-3.62
744.167	13.38
744.19	7.38
744.214	4.38
744.237	-4.62
744.26	27.38
744.284	-7.62
744.307	-1.62
744.331	0.38
744.354	-13.62
744.377	-7.62
744.401	-18.62
744.424	-10.62
744.447	-13.62
744.471	-5.62
