Data from HighRes_H2_15_09_11_07_2024_HR4C61891__87__15-11-05-102.txt Node

Date: Thu Nov 07 15:11:05 EST 2024
User: crc00042
Spectrometer: HR4C6189
Trigger mode: 4
Integration Time (sec): 1.000000E-1
Scans to average: 1
Electric dark correction enabled: true
Nonlinearity correction enabled: false
Boxcar width: 0
XAxis mode: Wavelengths
Number of Pixels in Spectrum: 3648
>>>>>Begin Spectral Data<<<<<
639.567	-66.31
639.602	-66.31
639.636	-66.31
639.67	-58.31
639.704	-18.31
639.738	4.69
639.773	21.69
639.807	-5.31
639.841	-10.31
639.875	2.69
639.909	-7.31
639.943	-29.31
639.978	-5.31
640.012	3.69
640.046	6.69
640.08	15.69
640.114	11.69
640.148	-9.31
640.182	-12.31
640.217	-4.31
640.251	12.69
640.285	15.69
640.319	-13.31
640.353	9.69
640.387	-5.31
640.421	-10.31
640.455	-8.31
640.49	-9.31
640.524	6.69
640.558	5.69
640.592	-11.31
640.626	-6.31
640.66	7.69
640.694	1.69
640.728	-1.31
640.762	-6.31
640.796	11.69
640.83	11.69
640.865	5.69
640.899	3.69
640.933	6.69
640.967	5.69
641.001	9.69
641.035	8.69
641.069	-2.31
641.103	-10.31
641.137	-11.31
641.171	-2.31
641.205	6.69
641.239	-0.31
641.273	4.69
641.307	9.69
641.341	3.69
641.375	-16.31
641.409	-11.31
641.443	-0.31
641.477	-2.31
641.511	-3.31
641.545	-9.31
641.579	-2.31
641.614	7.69
641.648	9.69
641.682	6.69
641.716	7.69
641.75	5.69
641.784	13.69
641.818	-12.31
641.852	-10.31
641.886	-10.31
641.919	9.69
641.953	4.69
641.987	-6.31
642.021	-17.31
642.055	6.69
642.089	-7.31
642.123	-18.31
642.157	1.69
642.191	11.69
642.225	-4.31
642.259	-7.31
642.293	9.69
642.327	5.69
642.361	-8.31
642.395	9.69
642.429	5.69
642.463	-0.31
642.497	4.69
642.531	-3.31
642.565	-13.31
642.599	1.69
642.633	-6.31
642.666	9.69
642.7	3.69
642.734	10.69
642.768	-32.31
642.802	-5.31
642.836	1.69
642.87	2.69
642.904	1.69
642.938	18.69
642.972	-1.31
643.005	-15.31
643.039	1.69
643.073	-10.31
643.107	-7.31
643.141	1.69
643.175	-5.31
643.209	-9.31
643.243	0.69
643.276	0.69
643.31	-0.31
643.344	-9.31
643.378	1.69
643.412	18.69
643.446	5.69
643.48	-13.31
643.513	-0.31
643.547	7.69
643.581	6.69
643.615	2.69
643.649	7.69
643.683	-0.31
643.716	-8.31
643.75	1.69
643.784	7.69
643.818	3.69
643.852	-0.31
643.886	-4.31
643.919	1.69
643.953	6.69
643.987	-12.31
644.021	10.69
644.055	-4.31
644.088	-17.31
644.122	1.69
644.156	-6.31
644.19	7.69
644.224	-19.31
644.257	0.69
644.291	20.69
644.325	6.69
644.359	2.69
644.392	21.69
644.426	15.69
644.46	-4.31
644.494	-11.31
644.527	-18.31
644.561	9.69
644.595	8.69
644.629	-6.31
644.662	11.69
644.696	6.69
644.73	3.69
644.764	-0.31
644.797	-9.31
644.831	14.69
644.865	14.69
644.899	-12.31
644.932	28.69
644.966	-2.31
645	4.69
645.033	18.69
645.067	0.69
645.101	5.69
645.135	-10.31
645.168	-12.31
645.202	3.69
645.236	-5.31
645.269	16.69
645.303	6.69
645.337	-8.31
645.37	4.69
645.404	-5.31
645.438	-2.31
645.471	-10.31
645.505	8.69
645.539	2.69
645.572	-20.31
645.606	-18.31
645.64	8.69
645.673	9.69
645.707	24.69
645.741	8.69
645.774	5.69
645.808	-0.31
645.842	-7.31
645.875	6.69
645.909	-11.31
645.943	-3.31
645.976	1.69
646.01	1.69
646.043	15.69
646.077	9.69
646.111	6.69
646.144	6.69
646.178	4.69
646.212	-22.31
646.245	-1.31
646.279	9.69
646.312	3.69
646.346	8.69
646.38	-13.31
646.413	-3.31
646.447	-15.31
646.48	-11.31
646.514	8.69
646.547	4.69
646.581	5.69
646.615	-14.31
646.648	-10.31
646.682	-15.31
646.715	-2.31
646.749	1.69
646.782	-12.31
646.816	-17.31
646.85	1.69
646.883	-17.31
646.917	4.69
646.95	-13.31
646.984	-8.31
647.017	-14.31
647.051	-5.31
647.084	-0.31
647.118	-18.31
647.151	-2.31
647.185	10.69
647.218	-12.31
647.252	4.69
647.285	-18.31
647.319	-12.31
647.353	5.69
647.386	20.69
647.42	-4.31
647.453	-5.31
647.487	6.69
647.52	5.69
647.553	-6.31
647.587	1.69
647.62	-7.31
647.654	4.69
647.687	6.69
647.721	10.69
647.754	-8.31
647.788	-12.31
647.821	-11.31
647.855	4.69
647.888	6.69
647.922	4.69
647.955	11.69
647.989	-0.31
648.022	1.69
648.055	14.69
648.089	-1.31
648.122	22.69
648.156	1.69
648.189	6.69
648.223	-9.31
648.256	7.69
648.29	-11.31
648.323	-18.31
648.356	-4.31
648.39	-9.31
648.423	-0.31
648.457	1.69
648.49	5.69
648.523	0.69
648.557	-16.31
648.59	-4.31
648.624	-14.31
648.657	3.69
648.69	8.69
648.724	-9.31
648.757	7.69
648.791	10.69
648.824	5.69
648.857	11.69
648.891	4.69
648.924	-7.31
648.957	15.69
648.991	-10.31
649.024	8.69
649.057	0.69
649.091	-18.31
649.124	-11.31
649.158	-0.31
649.191	21.69
649.224	-9.31
649.258	20.69
649.291	10.69
649.324	4.69
649.358	1.69
649.391	5.69
649.424	8.69
649.458	5.69
649.491	7.69
649.524	1.69
649.557	-2.31
649.591	-16.31
649.624	-5.31
649.657	-18.31
649.691	-11.31
649.724	9.69
649.757	-1.31
649.791	-6.31
649.824	2.69
649.857	17.69
649.89	5.69
649.924	-11.31
649.957	-7.31
649.99	-17.31
650.023	-7.31
650.057	-6.31
650.09	12.69
650.123	-6.31
650.157	25.69
650.19	20.69
650.223	-12.31
650.256	-18.31
650.29	1.69
650.323	0.69
650.356	-0.31
650.389	1.69
650.423	-16.31
650.456	-3.31
650.489	3.69
650.522	6.69
650.555	11.69
650.589	10.69
650.622	0.69
650.655	15.69
650.688	-5.31
650.721	-5.31
650.755	9.69
650.788	9.69
650.821	1.69
650.854	1.69
650.887	-5.31
650.921	-12.31
650.954	-6.31
650.987	3.69
651.02	6.69
651.053	-14.31
651.087	-10.31
651.12	34.69
651.153	9.69
651.186	8.69
651.219	-17.31
651.252	1.69
651.286	11.69
651.319	3.69
651.352	0.69
651.385	-10.31
651.418	1.69
651.451	5.69
651.484	8.69
651.518	0.69
651.551	5.69
651.584	-21.31
651.617	9.69
651.65	3.69
651.683	-6.31
651.716	-1.31
651.749	-23.31
651.783	-17.31
651.816	7.69
651.849	3.69
651.882	0.69
651.915	-9.31
651.948	16.69
651.981	-5.31
652.014	-10.31
652.047	-17.31
652.08	0.69
652.114	-5.31
652.147	-19.31
652.18	8.69
652.213	30.69
652.246	8.69
652.279	3.69
652.312	10.69
652.345	2.69
652.378	9.69
652.411	10.69
652.444	-8.31
652.477	10.69
652.51	9.69
652.543	-17.31
652.576	5.69
652.609	-2.31
652.642	0.69
652.675	2.69
652.709	6.69
652.742	-5.31
652.775	7.69
652.808	7.69
652.841	-2.31
652.874	-8.31
652.907	-8.31
652.94	-6.31
652.973	-17.31
653.006	-7.31
653.039	-6.31
653.072	10.69
653.105	-0.31
653.138	-15.31
653.171	0.69
653.204	6.69
653.237	25.69
653.27	4.69
653.303	1.69
653.336	-2.31
653.368	-4.31
653.401	1.69
653.434	8.69
653.467	6.69
653.5	-1.31
653.533	-5.31
653.566	1.69
653.599	-10.31
653.632	12.69
653.665	4.69
653.698	-11.31
653.731	-8.31
653.764	2.69
653.797	3.69
653.83	6.69
653.863	-9.31
653.896	-5.31
653.929	-15.31
653.961	15.69
653.994	-6.31
654.027	-13.31
654.06	1.69
654.093	-7.31
654.126	1.69
654.159	3.69
654.192	-1.31
654.225	-4.31
654.258	-14.31
654.29	-13.31
654.323	-5.31
654.356	-6.31
654.389	-6.31
654.422	-2.31
654.455	9.69
654.488	3.69
654.521	-10.31
654.553	-8.31
654.586	14.69
654.619	-2.31
654.652	1.69
654.685	6.69
654.718	-6.31
654.751	-2.31
654.783	-6.31
654.816	11.69
654.849	9.69
654.882	1.69
654.915	-21.31
654.948	4.69
654.98	2.69
655.013	4.69
655.046	-7.31
655.079	-13.31
655.112	4.69
655.144	0.69
655.177	1.69
655.21	16.69
655.243	28.69
655.276	8.69
655.308	-2.31
655.341	3.69
655.374	5.69
655.407	-18.31
655.44	6.69
655.472	6.69
655.505	-2.31
655.538	10.69
655.571	26.69
655.603	6.69
655.636	18.69
655.669	13.69
655.702	25.69
655.734	27.69
655.767	11.69
655.8	24.69
655.833	9.69
655.865	24.69
655.898	26.69
655.931	12.69
655.964	39.69
655.996	50.69
656.029	57.69
656.062	61.69
656.095	76.69
656.127	60.69
656.16	104.69
656.193	133.69
656.225	172.69
656.258	278.69
656.291	504.69
656.324	1099.69
656.356	3350.69
656.389	7499.69
656.422	5986.69
656.454	2043.69
656.487	671.69
656.52	267.69
656.552	121.69
656.585	77.69
656.618	62.69
656.65	50.69
656.683	30.69
656.716	34.69
656.748	10.69
656.781	-2.31
656.814	6.69
656.846	13.69
656.879	-9.31
656.912	17.69
656.944	-11.31
656.977	2.69
657.01	9.69
657.042	10.69
657.075	11.69
657.108	-12.31
657.14	16.69
657.173	18.69
657.205	21.69
657.238	10.69
657.271	-2.31
657.303	-27.31
657.336	1.69
657.369	4.69
657.401	2.69
657.434	-0.31
657.466	15.69
657.499	-0.31
657.532	-4.31
657.564	10.69
657.597	5.69
657.629	16.69
657.662	9.69
657.694	-9.31
657.727	-3.31
657.76	15.69
657.792	6.69
657.825	-4.31
657.857	-7.31
657.89	3.69
657.922	-3.31
657.955	8.69
657.987	13.69
658.02	18.69
658.053	2.69
658.085	5.69
658.118	6.69
658.15	10.69
658.183	19.69
658.215	1.69
658.248	-1.31
658.28	-2.31
658.313	25.69
658.345	24.69
658.378	-13.31
658.41	-12.31
658.443	31.69
658.475	-9.31
658.508	-9.31
658.54	3.69
658.573	-5.31
658.605	1.69
658.638	-11.31
658.67	-10.31
658.703	1.69
658.735	-4.31
658.768	1.69
658.8	-10.31
658.833	19.69
658.865	1.69
658.898	7.69
658.93	9.69
658.963	2.69
658.995	-23.31
659.028	9.69
659.06	1.69
659.092	-12.31
659.125	-12.31
659.157	17.69
659.19	-1.31
659.222	-13.31
659.255	5.69
659.287	11.69
659.32	-15.31
659.352	-2.31
659.384	14.69
659.417	-7.31
659.449	-6.31
659.482	14.69
659.514	7.69
659.546	7.69
659.579	-25.31
659.611	14.69
659.644	-5.31
659.676	-7.31
659.708	-15.31
659.741	-2.31
659.773	15.69
659.806	-1.31
659.838	1.69
659.87	-10.31
659.903	-19.31
659.935	7.69
659.967	-4.31
660	8.69
660.032	-22.31
660.065	9.69
660.097	14.69
660.129	-5.31
660.162	-14.31
660.194	-0.31
660.226	6.69
660.259	-10.31
660.291	-12.31
660.323	-5.31
660.356	-5.31
660.388	-6.31
660.42	-7.31
660.453	-13.31
660.485	1.69
660.517	25.69
660.55	3.69
660.582	6.69
660.614	19.69
660.647	-8.31
660.679	-32.31
660.711	18.69
660.743	-11.31
660.776	-26.31
660.808	-6.31
660.84	-22.31
660.873	-9.31
660.905	-18.31
660.937	9.69
660.969	5.69
661.002	17.69
661.034	23.69
661.066	-0.31
661.099	0.69
661.131	7.69
661.163	1.69
661.195	-10.31
661.228	25.69
661.26	-7.31
661.292	-3.31
661.324	9.69
661.357	9.69
661.389	8.69
661.421	9.69
661.453	-6.31
661.485	-6.31
661.518	0.69
661.55	-14.31
661.582	-13.31
661.614	0.69
661.647	-8.31
661.679	-1.31
661.711	4.69
661.743	-6.31
661.775	0.69
661.808	17.69
661.84	-8.31
661.872	7.69
661.904	2.69
661.936	1.69
661.969	-9.31
662.001	-22.31
662.033	-17.31
662.065	-18.31
662.097	0.69
662.129	4.69
662.162	-2.31
662.194	6.69
662.226	13.69
662.258	2.69
662.29	1.69
662.322	-4.31
662.355	-7.31
662.387	16.69
662.419	10.69
662.451	1.69
662.483	6.69
662.515	-0.31
662.547	3.69
662.58	-3.31
662.612	-2.31
662.644	-24.31
662.676	-9.31
662.708	2.69
662.74	-12.31
662.772	-0.31
662.804	14.69
662.836	-3.31
662.869	-7.31
662.901	-3.31
662.933	1.69
662.965	5.69
662.997	23.69
663.029	-9.31
663.061	-1.31
663.093	10.69
663.125	21.69
663.157	3.69
663.189	-5.31
663.221	8.69
663.254	-6.31
663.286	1.69
663.318	-15.31
663.35	-19.31
663.382	-9.31
663.414	-11.31
663.446	-2.31
663.478	-9.31
663.51	17.69
663.542	-5.31
663.574	7.69
663.606	-7.31
663.638	-16.31
663.67	2.69
663.702	2.69
663.734	-4.31
663.766	0.69
663.798	1.69
663.83	15.69
663.862	5.69
663.894	11.69
663.926	2.69
663.958	-4.31
663.99	3.69
664.022	-28.31
664.054	9.69
664.086	-8.31
664.118	-26.31
664.15	-29.31
664.182	-9.31
664.214	-4.31
664.246	4.69
664.278	-11.31
664.31	4.69
664.342	15.69
664.374	-22.31
664.406	-2.31
664.438	4.69
664.47	20.69
664.502	2.69
664.534	1.69
664.566	4.69
664.598	15.69
664.63	-10.31
664.662	-13.31
664.693	-27.31
664.725	-22.31
664.757	-1.31
664.789	-2.31
664.821	-0.31
664.853	7.69
664.885	-2.31
664.917	-2.31
664.949	4.69
664.981	5.69
665.013	4.69
665.045	-1.31
665.076	7.69
665.108	-3.31
665.14	-9.31
665.172	-6.31
665.204	-23.31
665.236	-22.31
665.268	-2.31
665.3	0.69
665.331	-1.31
665.363	11.69
665.395	-8.31
665.427	-6.31
665.459	9.69
665.491	-2.31
665.523	-4.31
665.555	5.69
665.586	7.69
665.618	1.69
665.65	-11.31
665.682	-2.31
665.714	-7.31
665.746	-3.31
665.777	4.69
665.809	-5.31
665.841	0.69
665.873	-9.31
665.905	3.69
665.937	11.69
665.968	4.69
666	7.69
666.032	-3.31
666.064	-12.31
666.096	4.69
666.127	1.69
666.159	11.69
666.191	2.69
666.223	-5.31
666.255	4.69
666.286	-8.31
666.318	2.69
666.35	12.69
666.382	4.69
666.413	6.69
666.445	2.69
666.477	-5.31
666.509	-2.31
666.54	13.69
666.572	9.69
666.604	-4.31
666.636	-7.31
666.667	15.69
666.699	18.69
666.731	1.69
666.763	-6.31
666.794	-2.31
666.826	-7.31
666.858	-16.31
666.89	1.69
666.921	-0.31
666.953	-9.31
666.985	18.69
667.017	17.69
667.048	-1.31
667.08	3.69
667.112	-11.31
667.143	-22.31
667.175	-2.31
667.207	-8.31
667.238	12.69
667.27	-1.31
667.302	-12.31
667.334	5.69
667.365	-2.31
667.397	4.69
667.429	-11.31
667.46	12.69
667.492	0.69
667.524	4.69
667.555	2.69
667.587	8.69
667.619	-4.31
667.65	-4.31
667.682	-10.31
667.714	-2.31
667.745	5.69
667.777	-0.31
667.808	8.69
667.84	3.69
667.872	2.69
667.903	30.69
667.935	2.69
667.967	0.69
667.998	1.69
668.03	-5.31
668.061	4.69
668.093	-15.31
668.125	-6.31
668.156	-2.31
668.188	-8.31
668.22	5.69
668.251	1.69
668.283	4.69
668.314	10.69
668.346	-3.31
668.377	-12.31
668.409	-8.31
668.441	0.69
668.472	7.69
668.504	0.69
668.535	1.69
668.567	6.69
668.599	-5.31
668.63	-12.31
668.662	2.69
668.693	10.69
668.725	6.69
668.756	14.69
668.788	5.69
668.819	0.69
668.851	1.69
668.882	2.69
668.914	-2.31
668.946	-3.31
668.977	-3.31
669.009	4.69
669.04	-15.31
669.072	-10.31
669.103	-3.31
669.135	-4.31
669.166	7.69
669.198	7.69
669.229	9.69
669.261	2.69
669.292	3.69
669.324	0.69
669.355	8.69
669.387	-16.31
669.418	-10.31
669.45	-10.31
669.481	-3.31
669.513	4.69
669.544	2.69
669.576	11.69
669.607	15.69
669.639	9.69
669.67	-12.31
669.701	-0.31
669.733	-15.31
669.764	-11.31
669.796	-11.31
669.827	-14.31
669.859	2.69
669.89	1.69
669.922	18.69
669.953	3.69
669.985	1.69
670.016	17.69
670.047	4.69
670.079	-8.31
670.11	5.69
670.142	-6.31
670.173	1.69
670.204	-9.31
670.236	-18.31
670.267	-7.31
670.299	-10.31
670.33	8.69
670.362	7.69
670.393	-13.31
670.424	-3.31
670.456	-25.31
670.487	-8.31
670.518	-14.31
670.55	-5.31
670.581	-12.31
670.613	-7.31
670.644	-17.31
670.675	-21.31
670.707	-9.31
670.738	0.69
670.769	-8.31
670.801	-18.31
670.832	-1.31
670.864	-6.31
670.895	5.69
670.926	-3.31
670.958	-18.31
670.989	-8.31
671.02	-16.31
671.052	-5.31
671.083	0.69
671.114	-0.31
671.146	-8.31
671.177	-2.31
671.208	-0.31
671.24	-24.31
671.271	-5.31
671.302	-12.31
671.333	-9.31
671.365	-6.31
671.396	-7.31
671.427	7.69
671.459	0.69
671.49	-9.31
671.521	-0.31
671.553	2.69
671.584	13.69
671.615	-22.31
671.646	-12.31
671.678	-5.31
671.709	-18.31
671.74	-19.31
671.771	-1.31
671.803	8.69
671.834	1.69
671.865	-15.31
671.896	13.69
671.928	-14.31
671.959	-17.31
671.99	-6.31
672.021	-6.31
672.053	-3.31
672.084	9.69
672.115	14.69
672.146	-7.31
672.178	-7.31
672.209	-8.31
672.24	-5.31
672.271	26.69
672.303	-5.31
672.334	-1.31
672.365	-5.31
672.396	1.69
672.427	6.69
672.459	1.69
672.49	18.69
672.521	1.69
672.552	0.69
672.583	-23.31
672.615	-0.31
672.646	11.69
672.677	5.69
672.708	10.69
672.739	-0.31
672.77	-0.31
672.802	9.69
672.833	0.69
672.864	9.69
672.895	14.69
672.926	-6.31
672.957	-21.31
672.989	-5.31
673.02	-2.31
673.051	-3.31
673.082	12.69
673.113	4.69
673.144	3.69
673.175	9.69
673.206	-0.31
673.238	-10.31
673.269	-9.31
673.3	-4.31
673.331	15.69
673.362	7.69
673.393	9.69
673.424	17.69
673.455	14.69
673.487	-9.31
673.518	1.69
673.549	2.69
673.58	-8.31
673.611	6.69
673.642	-13.31
673.673	-26.31
673.704	-16.31
673.735	-7.31
673.766	-7.31
673.797	-1.31
673.828	-1.31
673.86	-2.31
673.891	-21.31
673.922	-4.31
673.953	-0.31
673.984	7.69
674.015	10.69
674.046	0.69
674.077	-14.31
674.108	-17.31
674.139	1.69
674.17	-11.31
674.201	-29.31
674.232	-11.31
674.263	-11.31
674.294	-16.31
674.325	-30.31
674.356	1.69
674.387	4.69
674.418	0.69
674.449	-10.31
674.48	-2.31
674.511	10.69
674.542	-12.31
674.573	-5.31
674.604	18.69
674.635	-3.31
674.666	-0.31
674.697	-19.31
674.728	-2.31
674.759	-0.31
674.79	-11.31
674.821	-14.31
674.852	-9.31
674.883	-10.31
674.914	5.69
674.945	-0.31
674.976	4.69
675.007	-14.31
675.038	-14.31
675.069	-13.31
675.1	-5.31
675.131	7.69
675.162	-15.31
675.193	-15.31
675.224	-6.31
675.254	18.69
675.285	2.69
675.316	-3.31
675.347	-18.31
675.378	-8.31
675.409	-9.31
675.44	-2.31
675.471	-6.31
675.502	-9.31
675.533	-3.31
675.564	12.69
675.595	11.69
675.625	15.69
675.656	16.69
675.687	-1.31
675.718	-15.31
675.749	-0.31
675.78	-1.31
675.811	-15.31
675.842	-13.31
675.873	-9.31
675.903	-6.31
675.934	-11.31
675.965	2.69
675.996	-7.31
676.027	-1.31
676.058	-2.31
676.089	-12.31
676.119	6.69
676.15	-7.31
676.181	-2.31
676.212	-6.31
676.243	9.69
676.274	-13.31
676.304	17.69
676.335	-1.31
676.366	1.69
676.397	-4.31
676.428	-12.31
676.459	6.69
676.489	15.69
676.52	5.69
676.551	0.69
676.582	-23.31
676.613	-17.31
676.643	-30.31
676.674	13.69
676.705	-16.31
676.736	-3.31
676.767	14.69
676.797	21.69
676.828	0.69
676.859	-7.31
676.89	-10.31
676.92	1.69
676.951	3.69
676.982	20.69
677.013	9.69
677.044	9.69
677.074	1.69
677.105	-10.31
677.136	9.69
677.167	-12.31
677.197	22.69
677.228	10.69
677.259	1.69
677.289	1.69
677.32	-4.31
677.351	-19.31
677.382	-1.31
677.412	-11.31
677.443	-6.31
677.474	3.69
677.505	-13.31
677.535	-2.31
677.566	-7.31
677.597	-26.31
677.627	-8.31
677.658	-11.31
677.689	5.69
677.72	3.69
677.75	15.69
677.781	-1.31
677.812	14.69
677.842	3.69
677.873	1.69
677.904	0.69
677.934	-3.31
677.965	-21.31
677.996	-12.31
678.026	2.69
678.057	-10.31
678.088	-7.31
678.118	-9.31
678.149	-1.31
678.18	-1.31
678.21	2.69
678.241	-7.31
678.272	0.69
678.302	-9.31
678.333	-4.31
678.363	-0.31
678.394	-8.31
678.425	-8.31
678.455	4.69
678.486	5.69
678.517	-1.31
678.547	3.69
678.578	1.69
678.608	-7.31
678.639	4.69
678.67	-3.31
678.7	-2.31
678.731	-6.31
678.761	-10.31
678.792	-1.31
678.823	15.69
678.853	-1.31
678.884	-11.31
678.914	16.69
678.945	-8.31
678.975	-13.31
679.006	13.69
679.037	-10.31
679.067	8.69
679.098	-10.31
679.128	-1.31
679.159	5.69
679.189	15.69
679.22	-7.31
679.25	-4.31
679.281	-3.31
679.312	9.69
679.342	0.69
679.373	11.69
679.403	10.69
679.434	9.69
679.464	-5.31
679.495	14.69
679.525	0.69
679.556	-10.31
679.586	5.69
679.617	1.69
679.647	-11.31
679.678	2.69
679.708	-7.31
679.739	-10.31
679.769	-3.31
679.8	-6.31
679.83	-11.31
679.861	6.69
679.891	-7.31
679.922	-11.31
679.952	-1.31
679.983	17.69
680.013	-0.31
680.044	-5.31
680.074	16.69
680.105	12.69
680.135	-5.31
680.165	0.69
680.196	5.69
680.226	13.69
680.257	-1.31
680.287	0.69
680.318	2.69
680.348	-7.31
680.379	3.69
680.409	9.69
680.439	0.69
680.47	-5.31
680.5	-4.31
680.531	-6.31
680.561	9.69
680.592	11.69
680.622	1.69
680.652	9.69
680.683	10.69
680.713	6.69
680.744	-26.31
680.774	-24.31
680.804	12.69
680.835	5.69
680.865	3.69
680.896	11.69
680.926	-3.31
680.956	-12.31
680.987	-7.31
681.017	1.69
681.047	2.69
681.078	1.69
681.108	-8.31
681.139	7.69
681.169	-5.31
681.199	-0.31
681.23	3.69
681.26	-16.31
681.29	-7.31
681.321	-13.31
681.351	10.69
681.381	-8.31
681.412	11.69
681.442	-6.31
681.472	17.69
681.503	-6.31
681.533	6.69
681.563	-11.31
681.594	-5.31
681.624	3.69
681.654	-16.31
681.685	-3.31
681.715	0.69
681.745	-3.31
681.775	-1.31
681.806	-6.31
681.836	-7.31
681.866	-10.31
681.897	-17.31
681.927	-13.31
681.957	-17.31
681.987	5.69
682.018	3.69
682.048	-8.31
682.078	9.69
682.109	3.69
682.139	8.69
682.169	5.69
682.199	-7.31
682.23	-5.31
682.26	-4.31
682.29	-7.31
682.32	-5.31
682.351	-3.31
682.381	-21.31
682.411	-6.31
682.441	-9.31
682.472	-10.31
682.502	-16.31
682.532	-13.31
682.562	-6.31
682.592	15.69
682.623	3.69
682.653	-7.31
682.683	-15.31
682.713	-2.31
682.743	8.69
682.774	3.69
682.804	14.69
682.834	20.69
682.864	-16.31
682.894	-9.31
682.925	-10.31
682.955	-2.31
682.985	-7.31
683.015	-2.31
683.045	1.69
683.076	-11.31
683.106	-4.31
683.136	-3.31
683.166	-11.31
683.196	-4.31
683.226	-16.31
683.257	-12.31
683.287	-2.31
683.317	-6.31
683.347	-21.31
683.377	3.69
683.407	19.69
683.437	-1.31
683.468	9.69
683.498	-25.31
683.528	-12.31
683.558	-6.31
683.588	-6.31
683.618	-6.31
683.648	-17.31
683.678	0.69
683.708	13.69
683.739	-2.31
683.769	-9.31
683.799	0.69
683.829	-4.31
683.859	-1.31
683.889	-6.31
683.919	-5.31
683.949	0.69
683.979	10.69
684.009	-7.31
684.039	-5.31
684.07	-12.31
684.1	15.69
684.13	4.69
684.16	-7.31
684.19	4.69
684.22	1.69
684.25	-12.31
684.28	-13.31
684.31	14.69
684.34	9.69
684.37	12.69
684.4	-2.31
684.43	10.69
684.46	0.69
684.49	2.69
684.52	-9.31
684.55	4.69
684.58	-1.31
684.61	-2.31
684.64	12.69
684.67	-0.31
684.7	-3.31
684.73	-1.31
684.76	-12.31
684.79	8.69
684.82	-12.31
684.85	-13.31
684.88	-0.31
684.91	-8.31
684.94	-4.31
684.97	-9.31
685	-3.31
685.03	-10.31
685.06	-13.31
685.09	-5.31
685.12	4.69
685.15	0.69
685.18	18.69
685.21	1.69
685.24	10.69
685.27	5.69
685.3	-0.31
685.33	-5.31
685.36	-3.31
685.39	-5.31
685.42	-9.31
685.45	0.69
685.48	9.69
685.51	-12.31
685.54	10.69
685.569	-8.31
685.599	5.69
685.629	9.69
685.659	-10.31
685.689	7.69
685.719	8.69
685.749	-23.31
685.779	-7.31
685.809	0.69
685.839	-8.31
685.869	-20.31
685.898	-0.31
685.928	3.69
685.958	-8.31
685.988	2.69
686.018	-18.31
686.048	-0.31
686.078	-4.31
686.108	10.69
686.137	-1.31
686.167	-0.31
686.197	-9.31
686.227	-13.31
686.257	21.69
686.287	-5.31
686.317	5.69
686.346	-3.31
686.376	3.69
686.406	-2.31
686.436	13.69
686.466	0.69
686.496	-1.31
686.525	7.69
686.555	0.69
686.585	11.69
686.615	26.69
686.645	-0.31
686.675	1.69
686.704	8.69
686.734	-0.31
686.764	-21.31
686.794	-10.31
686.824	-6.31
686.853	11.69
686.883	15.69
686.913	14.69
686.943	9.69
686.973	-1.31
687.002	14.69
687.032	13.69
687.062	-21.31
687.092	27.69
687.121	0.69
687.151	11.69
687.181	-11.31
687.211	-2.31
687.24	2.69
687.27	-6.31
687.3	-9.31
687.33	-5.31
687.359	-10.31
687.389	1.69
687.419	4.69
687.449	-3.31
687.478	0.69
687.508	-1.31
687.538	2.69
687.568	4.69
687.597	-14.31
687.627	-4.31
687.657	4.69
687.686	9.69
687.716	21.69
687.746	-9.31
687.776	-5.31
687.805	-1.31
687.835	-10.31
687.865	11.69
687.894	-10.31
687.924	-11.31
687.954	-14.31
687.983	4.69
688.013	9.69
688.043	13.69
688.072	-3.31
688.102	12.69
688.132	-2.31
688.161	2.69
688.191	-17.31
688.221	11.69
688.25	-14.31
688.28	1.69
688.31	-7.31
688.339	3.69
688.369	-13.31
688.399	-18.31
688.428	-4.31
688.458	12.69
688.488	-3.31
688.517	6.69
688.547	1.69
688.576	15.69
688.606	14.69
688.636	-5.31
688.665	-1.31
688.695	-0.31
688.725	-8.31
688.754	8.69
688.784	5.69
688.813	9.69
688.843	-7.31
688.873	-11.31
688.902	-5.31
688.932	-11.31
688.961	-9.31
688.991	12.69
689.02	17.69
689.05	0.69
689.08	2.69
689.109	-0.31
689.139	-30.31
689.168	-2.31
689.198	-2.31
689.227	3.69
689.257	8.69
689.287	-11.31
689.316	5.69
689.346	-16.31
689.375	-4.31
689.405	-5.31
689.434	11.69
689.464	12.69
689.493	-2.31
689.523	-4.31
689.552	-11.31
689.582	1.69
689.611	-9.31
689.641	8.69
689.67	-4.31
689.7	2.69
689.73	-0.31
689.759	9.69
689.789	9.69
689.818	-9.31
689.848	-10.31
689.877	20.69
689.906	0.69
689.936	-1.31
689.965	15.69
689.995	-4.31
690.024	6.69
690.054	-1.31
690.083	3.69
690.113	10.69
690.142	-1.31
690.172	-2.31
690.201	-1.31
690.231	1.69
690.26	-3.31
690.29	7.69
690.319	2.69
690.348	9.69
690.378	3.69
690.407	-0.31
690.437	8.69
690.466	10.69
690.496	0.69
690.525	3.69
690.555	-8.31
690.584	-4.31
690.613	5.69
690.643	5.69
690.672	14.69
690.702	5.69
690.731	5.69
690.76	2.69
690.79	-12.31
690.819	-5.31
690.849	-11.31
690.878	-13.31
690.907	-8.31
690.937	11.69
690.966	9.69
690.996	2.69
691.025	10.69
691.054	-10.31
691.084	-10.31
691.113	-20.31
691.142	8.69
691.172	11.69
691.201	2.69
691.23	-1.31
691.26	12.69
691.289	3.69
691.319	-3.31
691.348	-1.31
691.377	27.69
691.407	-6.31
691.436	7.69
691.465	5.69
691.495	12.69
691.524	-5.31
691.553	0.69
691.583	2.69
691.612	17.69
691.641	1.69
691.67	-5.31
691.7	2.69
691.729	-14.31
691.758	3.69
691.788	5.69
691.817	-10.31
691.846	-22.31
691.876	-10.31
691.905	1.69
691.934	8.69
691.963	6.69
691.993	6.69
692.022	-12.31
692.051	-12.31
692.081	26.69
692.11	19.69
692.139	11.69
692.168	0.69
692.198	11.69
692.227	4.69
692.256	-6.31
692.285	2.69
692.315	-6.31
692.344	8.69
692.373	0.69
692.402	-15.31
692.432	-2.31
692.461	-2.31
692.49	-1.31
692.519	2.69
692.548	-5.31
692.578	4.69
692.607	-5.31
692.636	-5.31
692.665	16.69
692.694	4.69
692.724	4.69
692.753	3.69
692.782	3.69
692.811	-18.31
692.84	-11.31
692.87	-0.31
692.899	0.69
692.928	3.69
692.957	10.69
692.986	10.69
693.016	13.69
693.045	1.69
693.074	-5.31
693.103	2.69
693.132	4.69
693.161	9.69
693.191	-3.31
693.22	-17.31
693.249	-1.31
693.278	-10.31
693.307	1.69
693.336	-32.31
693.365	-21.31
693.395	-4.31
693.424	3.69
693.453	21.69
693.482	-13.31
693.511	-7.31
693.54	-3.31
693.569	6.69
693.598	-3.31
693.628	7.69
693.657	12.69
693.686	16.69
693.715	18.69
693.744	10.69
693.773	12.69
693.802	3.69
693.831	-14.31
693.86	21.69
693.889	-2.31
693.919	-4.31
693.948	11.69
693.977	-8.31
694.006	12.69
694.035	-3.31
694.064	-2.31
694.093	5.69
694.122	1.69
694.151	-2.31
694.18	6.69
694.209	21.69
694.238	0.69
694.267	12.69
694.296	8.69
694.325	4.69
694.354	24.69
694.383	-4.31
694.412	-8.31
694.441	0.69
694.471	-15.31
694.5	-4.31
694.529	3.69
694.558	10.69
694.587	8.69
694.616	3.69
694.645	1.69
694.674	16.69
694.703	-4.31
694.732	-2.31
694.761	4.69
694.79	2.69
694.819	-13.31
694.848	10.69
694.877	23.69
694.906	17.69
694.935	11.69
694.963	6.69
694.992	1.69
695.021	2.69
695.05	0.69
695.079	-3.31
695.108	-11.31
695.137	20.69
695.166	10.69
695.195	-0.31
695.224	9.69
695.253	-0.31
695.282	-17.31
695.311	-10.31
695.34	-6.31
695.369	-6.31
695.398	15.69
695.427	18.69
695.456	-2.31
695.485	13.69
695.513	-2.31
695.542	-8.31
695.571	-3.31
695.6	5.69
695.629	11.69
695.658	5.69
695.687	-9.31
695.716	-6.31
695.745	7.69
695.774	-6.31
695.802	-17.31
695.831	-5.31
695.86	18.69
695.889	7.69
695.918	4.69
695.947	9.69
695.976	4.69
696.005	-2.31
696.033	2.69
696.062	20.69
696.091	-3.31
696.12	3.69
696.149	5.69
696.178	-8.31
696.207	12.69
696.235	-11.31
696.264	6.69
696.293	-0.31
696.322	-2.31
696.351	2.69
696.38	2.69
696.408	5.69
696.437	1.69
696.466	5.69
696.495	1.69
696.524	11.69
696.553	1.69
696.581	9.69
696.61	3.69
696.639	-2.31
696.668	-14.31
696.697	-8.31
696.725	6.69
696.754	13.69
696.783	-4.31
696.812	-3.31
696.84	-2.31
696.869	-2.31
696.898	-2.31
696.927	2.69
696.956	29.69
696.984	10.69
697.013	-2.31
697.042	3.69
697.071	-5.31
697.099	11.69
697.128	3.69
697.157	10.69
697.186	-3.31
697.214	2.69
697.243	2.69
697.272	-10.31
697.301	-0.31
697.329	2.69
697.358	6.69
697.387	21.69
697.415	9.69
697.444	12.69
697.473	11.69
697.502	-11.31
697.53	1.69
697.559	-3.31
697.588	-3.31
697.616	1.69
697.645	15.69
697.674	13.69
697.703	-8.31
697.731	1.69
697.76	15.69
697.789	-7.31
697.817	4.69
697.846	25.69
697.875	0.69
697.903	7.69
697.932	0.69
697.961	-4.31
697.989	9.69
698.018	-8.31
698.047	8.69
698.075	2.69
698.104	-0.31
698.133	1.69
698.161	3.69
698.19	4.69
698.218	6.69
698.247	0.69
698.276	0.69
698.304	4.69
698.333	2.69
698.362	-0.31
698.39	9.69
698.419	3.69
698.447	-9.31
698.476	-6.31
698.505	5.69
698.533	0.69
698.562	1.69
698.591	-3.31
698.619	-10.31
698.648	7.69
698.676	-1.31
698.705	-5.31
698.733	-25.31
698.762	5.69
698.791	3.69
698.819	-3.31
698.848	-6.31
698.876	7.69
698.905	2.69
698.933	1.69
698.962	-4.31
698.991	5.69
699.019	17.69
699.048	-1.31
699.076	14.69
699.105	1.69
699.133	-9.31
699.162	9.69
699.19	17.69
699.219	14.69
699.248	-6.31
699.276	-10.31
699.305	-18.31
699.333	4.69
699.362	3.69
699.39	4.69
699.419	-9.31
699.447	1.69
699.476	21.69
699.504	4.69
699.533	6.69
699.561	-1.31
699.59	16.69
699.618	-0.31
699.647	-3.31
699.675	-5.31
699.704	13.69
699.732	1.69
699.761	5.69
699.789	-1.31
699.818	-1.31
699.846	-12.31
699.874	2.69
699.903	-4.31
699.931	4.69
699.96	11.69
699.988	-5.31
700.017	-8.31
700.045	2.69
700.074	-3.31
700.102	-3.31
700.13	-8.31
700.159	-6.31
700.187	8.69
700.216	-6.31
700.244	-10.31
700.273	16.69
700.301	10.69
700.329	10.69
700.358	17.69
700.386	3.69
700.415	-3.31
700.443	5.69
700.472	-1.31
700.5	12.69
700.528	4.69
700.557	0.69
700.585	3.69
700.614	-12.31
700.642	16.69
700.67	16.69
700.699	4.69
700.727	-4.31
700.755	-12.31
700.784	1.69
700.812	6.69
700.841	-2.31
700.869	-7.31
700.897	-15.31
700.926	-5.31
700.954	3.69
700.982	-12.31
701.011	-10.31
701.039	-10.31
701.067	-4.31
701.096	2.69
701.124	-17.31
701.152	-2.31
701.181	-3.31
701.209	-9.31
701.237	10.69
701.266	-9.31
701.294	-15.31
701.322	14.69
701.351	-10.31
701.379	-2.31
701.407	-7.31
701.435	13.69
701.464	5.69
701.492	13.69
701.52	-9.31
701.549	-6.31
701.577	-2.31
701.605	-2.31
701.634	-6.31
701.662	14.69
701.69	-5.31
701.718	-13.31
701.747	2.69
701.775	-5.31
701.803	-0.31
701.831	12.69
701.86	-19.31
701.888	-2.31
701.916	0.69
701.944	-5.31
701.973	0.69
702.001	-3.31
702.029	-14.31
702.057	4.69
702.086	-13.31
702.114	-25.31
702.142	-11.31
702.17	-12.31
702.199	-3.31
702.227	-4.31
702.255	2.69
702.283	1.69
702.311	0.69
702.34	-1.31
702.368	0.69
702.396	12.69
702.424	-3.31
702.452	3.69
702.481	-15.31
702.509	7.69
702.537	2.69
702.565	1.69
702.593	-2.31
702.621	0.69
702.65	11.69
702.678	-3.31
702.706	8.69
702.734	6.69
702.762	-0.31
702.79	-7.31
702.819	2.69
702.847	10.69
702.875	13.69
702.903	-5.31
702.931	-17.31
702.959	-3.31
702.988	5.69
703.016	-14.31
703.044	-11.31
703.072	-9.31
703.1	-5.31
703.128	5.69
703.156	8.69
703.184	2.69
703.212	-6.31
703.241	-3.31
703.269	7.69
703.297	1.69
703.325	0.69
703.353	-7.31
703.381	-9.31
703.409	11.69
703.437	-14.31
703.465	-14.31
703.493	-2.31
703.522	-0.31
703.55	10.69
703.578	1.69
703.606	-7.31
703.634	-5.31
703.662	-5.31
703.69	-6.31
703.718	14.69
703.746	28.69
703.774	-7.31
703.802	9.69
703.83	-8.31
703.858	-17.31
703.886	-12.31
703.914	-17.31
703.942	2.69
703.97	-0.31
703.998	-1.31
704.027	15.69
704.055	-2.31
704.083	-1.31
704.111	-7.31
704.139	-8.31
704.167	-1.31
704.195	5.69
704.223	-22.31
704.251	-6.31
704.279	-1.31
704.307	-3.31
704.335	-7.31
704.363	-9.31
704.391	-6.31
704.419	-6.31
704.447	-18.31
704.475	-3.31
704.503	-2.31
704.531	8.69
704.558	7.69
704.586	4.69
704.614	-16.31
704.642	0.69
704.67	-19.31
704.698	-6.31
704.726	-7.31
704.754	-5.31
704.782	1.69
704.81	-11.31
704.838	4.69
704.866	1.69
704.894	-13.31
704.922	4.69
704.95	5.69
704.978	15.69
705.006	2.69
705.034	12.69
705.061	-6.31
705.089	1.69
705.117	-2.31
705.145	-8.31
705.173	-2.31
705.201	-1.31
705.229	10.69
705.257	9.69
705.285	4.69
705.313	3.69
705.34	-0.31
705.368	-3.31
705.396	6.69
705.424	8.69
705.452	0.69
705.48	-2.31
705.508	-2.31
705.536	-12.31
705.563	-3.31
705.591	5.69
705.619	-6.31
705.647	-10.31
705.675	6.69
705.703	6.69
705.731	0.69
705.758	-10.31
705.786	0.69
705.814	25.69
705.842	18.69
705.87	12.69
705.898	9.69
705.925	-5.31
705.953	9.69
705.981	-2.31
706.009	-9.31
706.037	3.69
706.065	-3.31
706.092	-5.31
706.12	-2.31
706.148	1.69
706.176	-10.31
706.204	6.69
706.231	-9.31
706.259	-14.31
706.287	10.69
706.315	-0.31
706.342	-8.31
706.37	9.69
706.398	3.69
706.426	-0.31
706.454	-9.31
706.481	-3.31
706.509	-8.31
706.537	-3.31
706.565	-7.31
706.592	9.69
706.62	-8.31
706.648	12.69
706.676	-9.31
706.703	-2.31
706.731	-3.31
706.759	1.69
706.787	-7.31
706.814	-8.31
706.842	-7.31
706.87	-8.31
706.897	-2.31
706.925	-5.31
706.953	-3.31
706.981	10.69
707.008	13.69
707.036	4.69
707.064	-0.31
707.091	-27.31
707.119	13.69
707.147	-6.31
707.174	-16.31
707.202	14.69
707.23	-8.31
707.258	-9.31
707.285	-14.31
707.313	-6.31
707.341	-3.31
707.368	3.69
707.396	2.69
707.424	-5.31
707.451	2.69
707.479	-2.31
707.507	1.69
707.534	-2.31
707.562	6.69
707.59	-25.31
707.617	-24.31
707.645	-7.31
707.672	1.69
707.7	-0.31
707.728	-4.31
707.755	-15.31
707.783	-9.31
707.811	5.69
707.838	-19.31
707.866	0.69
707.893	2.69
707.921	-14.31
707.949	4.69
707.976	2.69
708.004	4.69
708.031	-2.31
708.059	0.69
708.087	7.69
708.114	0.69
708.142	4.69
708.169	-15.31
708.197	-8.31
708.225	-10.31
708.252	-18.31
708.28	4.69
708.307	1.69
708.335	2.69
708.362	2.69
708.39	-4.31
708.418	-10.31
708.445	-21.31
708.473	-11.31
708.5	-9.31
708.528	19.69
708.555	5.69
708.583	4.69
708.61	-4.31
708.638	3.69
708.665	-8.31
708.693	-4.31
708.72	-13.31
708.748	-25.31
708.776	-4.31
708.803	7.69
708.831	-3.31
708.858	8.69
708.886	1.69
708.913	6.69
708.941	-5.31
708.968	0.69
708.996	-6.31
709.023	7.69
709.051	-5.31
709.078	-10.31
709.105	-4.31
709.133	-5.31
709.16	-11.31
709.188	0.69
709.215	2.69
709.243	-2.31
709.27	-9.31
709.298	-4.31
709.325	-8.31
709.353	-18.31
709.38	-12.31
709.408	7.69
709.435	9.69
709.462	3.69
709.49	1.69
709.517	-9.31
709.545	-3.31
709.572	-6.31
709.6	-0.31
709.627	3.69
709.655	-0.31
709.682	-0.31
709.709	9.69
709.737	-3.31
709.764	-13.31
709.792	10.69
709.819	6.69
709.846	0.69
709.874	1.69
709.901	6.69
709.929	5.69
709.956	7.69
709.983	-12.31
710.011	2.69
710.038	5.69
710.066	1.69
710.093	4.69
710.12	1.69
710.148	-2.31
710.175	-17.31
710.202	1.69
710.23	7.69
710.257	-5.31
710.284	3.69
710.312	-1.31
710.339	-13.31
710.366	-10.31
710.394	-2.31
710.421	5.69
710.448	-0.31
710.476	-26.31
710.503	-7.31
710.53	10.69
710.558	21.69
710.585	-9.31
710.612	-14.31
710.64	-13.31
710.667	-8.31
710.694	0.69
710.722	-7.31
710.749	-15.31
710.776	1.69
710.804	21.69
710.831	5.69
710.858	-7.31
710.885	-5.31
710.913	-7.31
710.94	17.69
710.967	-0.31
710.995	0.69
711.022	-25.31
711.049	-0.31
711.076	-20.31
711.104	-2.31
711.131	-7.31
711.158	-13.31
711.185	1.69
711.213	-13.31
711.24	-19.31
711.267	-20.31
711.294	-15.31
711.322	5.69
711.349	-1.31
711.376	-2.31
711.403	5.69
711.431	2.69
711.458	-6.31
711.485	-2.31
711.512	-3.31
711.54	-11.31
711.567	7.69
711.594	-11.31
711.621	-6.31
711.648	-1.31
711.676	9.69
711.703	3.69
711.73	-17.31
711.757	-6.31
711.784	-9.31
711.812	-14.31
711.839	12.69
711.866	-2.31
711.893	-1.31
711.92	4.69
711.947	-10.31
711.975	2.69
712.002	-10.31
712.029	11.69
712.056	6.69
712.083	17.69
712.11	-8.31
712.138	0.69
712.165	11.69
712.192	-0.31
712.219	-3.31
712.246	-11.31
712.273	-26.31
712.3	-10.31
712.328	-24.31
712.355	-16.31
712.382	-12.31
712.409	6.69
712.436	-2.31
712.463	4.69
712.49	1.69
712.517	-8.31
712.544	-0.31
712.572	-7.31
712.599	-14.31
712.626	8.69
712.653	-4.31
712.68	-13.31
712.707	0.69
712.734	13.69
712.761	8.69
712.788	-4.31
712.815	2.69
712.842	4.69
712.87	6.69
712.897	-0.31
712.924	-16.31
712.951	6.69
712.978	8.69
713.005	3.69
713.032	11.69
713.059	0.69
713.086	1.69
713.113	-26.31
713.14	-23.31
713.167	-12.31
713.194	6.69
713.221	-12.31
713.248	11.69
713.275	-7.31
713.302	-13.31
713.329	-7.31
713.356	6.69
713.383	2.69
713.41	3.69
713.437	-5.31
713.464	-0.31
713.491	5.69
713.518	-5.31
713.545	-7.31
713.572	-9.31
713.599	20.69
713.626	-3.31
713.653	-1.31
713.68	0.69
713.707	-1.31
713.734	-3.31
713.761	-3.31
713.788	6.69
713.815	10.69
713.842	-12.31
713.869	-19.31
713.896	-1.31
713.923	-16.31
713.95	-8.31
713.977	-2.31
714.004	-5.31
714.031	-6.31
714.058	-11.31
714.085	-3.31
714.112	13.69
714.139	10.69
714.165	-3.31
714.192	-8.31
714.219	3.69
714.246	5.69
714.273	-2.31
714.3	-6.31
714.327	5.69
714.354	5.69
714.381	8.69
714.408	-3.31
714.435	-5.31
714.461	-1.31
714.488	-0.31
714.515	-5.31
714.542	-6.31
714.569	3.69
714.596	-5.31
714.623	-0.31
714.65	0.69
714.677	-3.31
714.703	6.69
714.73	-2.31
714.757	-11.31
714.784	1.69
714.811	-3.31
714.838	-0.31
714.865	-23.31
714.891	2.69
714.918	-22.31
714.945	-18.31
714.972	-10.31
714.999	-10.31
715.026	-12.31
715.052	-7.31
715.079	7.69
715.106	2.69
715.133	-3.31
715.16	-10.31
715.187	-7.31
715.213	9.69
715.24	-12.31
715.267	-5.31
715.294	-6.31
715.321	-9.31
715.347	6.69
715.374	-9.31
715.401	-2.31
715.428	0.69
715.455	-1.31
715.481	-0.31
715.508	10.69
715.535	-15.31
715.562	11.69
715.588	-1.31
715.615	0.69
715.642	1.69
715.669	5.69
715.695	-12.31
715.722	-1.31
715.749	8.69
715.776	5.69
715.802	-2.31
715.829	-7.31
715.856	-7.31
715.883	14.69
715.909	-7.31
715.936	6.69
715.963	8.69
715.99	-15.31
716.016	3.69
716.043	2.69
716.07	-6.31
716.096	-23.31
716.123	-13.31
716.15	7.69
716.177	-12.31
716.203	-4.31
716.23	5.69
716.257	-9.31
716.283	-1.31
716.31	-9.31
716.337	-6.31
716.363	-2.31
716.39	6.69
716.417	8.69
716.443	-13.31
716.47	14.69
716.497	12.69
716.523	19.69
716.55	13.69
716.577	17.69
716.603	16.69
716.63	2.69
716.657	10.69
716.683	-7.31
716.71	-2.31
716.737	7.69
716.763	-3.31
716.79	-12.31
716.817	10.69
716.843	5.69
716.87	-13.31
716.897	-8.31
716.923	3.69
716.95	-10.31
716.976	-22.31
717.003	-13.31
717.03	1.69
717.056	-1.31
717.083	-10.31
717.109	-3.31
717.136	10.69
717.163	0.69
717.189	-3.31
717.216	-7.31
717.242	0.69
717.269	2.69
717.296	-1.31
717.322	14.69
717.349	18.69
717.375	2.69
717.402	-11.31
717.428	-8.31
717.455	16.69
717.481	-1.31
717.508	12.69
717.535	8.69
717.561	4.69
717.588	-15.31
717.614	0.69
717.641	-3.31
717.667	5.69
717.694	6.69
717.72	-2.31
717.747	-1.31
717.773	-17.31
717.8	-11.31
717.826	2.69
717.853	2.69
717.88	-2.31
717.906	-6.31
717.933	7.69
717.959	11.69
717.986	2.69
718.012	-5.31
718.039	-2.31
718.065	3.69
718.092	8.69
718.118	-9.31
718.144	-4.31
718.171	4.69
718.197	15.69
718.224	18.69
718.25	2.69
718.277	2.69
718.303	-1.31
718.33	10.69
718.356	-1.31
718.383	-6.31
718.409	-3.31
718.436	-1.31
718.462	-6.31
718.489	-5.31
718.515	16.69
718.541	13.69
718.568	-0.31
718.594	5.69
718.621	2.69
718.647	-0.31
718.674	8.69
718.7	5.69
718.726	-8.31
718.753	2.69
718.779	-5.31
718.806	-2.31
718.832	-18.31
718.858	3.69
718.885	3.69
718.911	-1.31
718.938	-0.31
718.964	-18.31
718.99	0.69
719.017	-3.31
719.043	12.69
719.07	22.69
719.096	0.69
719.122	1.69
719.149	-1.31
719.175	-2.31
719.201	-5.31
719.228	0.69
719.254	-6.31
719.281	-9.31
719.307	-3.31
719.333	10.69
719.36	8.69
719.386	-0.31
719.412	-3.31
719.439	-4.31
719.465	1.69
719.491	-0.31
719.518	8.69
719.544	0.69
719.57	7.69
719.597	7.69
719.623	8.69
719.649	10.69
719.675	5.69
719.702	-3.31
719.728	3.69
719.754	-12.31
719.781	-1.31
719.807	7.69
719.833	-9.31
719.86	0.69
719.886	4.69
719.912	5.69
719.938	-12.31
719.965	-1.31
719.991	14.69
720.017	-3.31
720.044	-10.31
720.07	9.69
720.096	3.69
720.122	12.69
720.149	5.69
720.175	13.69
720.201	1.69
720.227	-6.31
720.254	13.69
720.28	-1.31
720.306	-10.31
720.332	5.69
720.359	1.69
720.385	-6.31
720.411	6.69
720.437	-7.31
720.463	-9.31
720.49	16.69
720.516	-5.31
720.542	-7.31
720.568	-7.31
720.595	-1.31
720.621	-12.31
720.647	-14.31
720.673	16.69
720.699	-3.31
720.725	-14.31
720.752	-10.31
720.778	4.69
720.804	-9.31
720.83	7.69
720.856	1.69
720.883	-4.31
720.909	0.69
720.935	5.69
720.961	9.69
720.987	-6.31
721.013	-7.31
721.04	-13.31
721.066	0.69
721.092	9.69
721.118	10.69
721.144	-1.31
721.17	14.69
721.196	5.69
721.223	-0.31
721.249	0.69
721.275	11.69
721.301	-2.31
721.327	4.69
721.353	1.69
721.379	8.69
721.405	9.69
721.432	18.69
721.458	-6.31
721.484	14.69
721.51	-13.31
721.536	-1.31
721.562	1.69
721.588	1.69
721.614	1.69
721.64	-7.31
721.666	-17.31
721.693	-3.31
721.719	1.69
721.745	-18.31
721.771	-8.31
721.797	-4.31
721.823	5.69
721.849	14.69
721.875	-3.31
721.901	-5.31
721.927	-12.31
721.953	-12.31
721.979	12.69
722.005	5.69
722.031	11.69
722.057	5.69
722.083	8.69
722.109	6.69
722.135	12.69
722.161	0.69
722.187	-2.31
722.214	-13.31
722.24	-15.31
722.266	-8.31
722.292	0.69
722.318	12.69
722.344	-3.31
722.37	-0.31
722.396	11.69
722.422	7.69
722.448	0.69
722.474	-25.31
722.5	10.69
722.526	14.69
722.552	-7.31
722.578	-2.31
722.603	-0.31
722.629	-16.31
722.655	-2.31
722.681	-12.31
722.707	-10.31
722.733	-7.31
722.759	0.69
722.785	0.69
722.811	-18.31
722.837	-0.31
722.863	-3.31
722.889	-6.31
722.915	-8.31
722.941	-2.31
722.967	-5.31
722.993	-0.31
723.019	-12.31
723.045	0.69
723.071	1.69
723.097	-4.31
723.122	-1.31
723.148	-26.31
723.174	5.69
723.2	8.69
723.226	2.69
723.252	-8.31
723.278	-9.31
723.304	-6.31
723.33	-0.31
723.356	8.69
723.381	1.69
723.407	-11.31
723.433	14.69
723.459	-9.31
723.485	5.69
723.511	11.69
723.537	-6.31
723.563	5.69
723.588	-1.31
723.614	15.69
723.64	4.69
723.666	8.69
723.692	-1.31
723.718	-0.31
723.744	2.69
723.769	-10.31
723.795	-9.31
723.821	0.69
723.847	-7.31
723.873	-13.31
723.899	0.69
723.924	3.69
723.95	-4.31
723.976	-5.31
724.002	-0.31
724.028	8.69
724.053	-9.31
724.079	-3.31
724.105	-6.31
724.131	0.69
724.157	5.69
724.182	-1.31
724.208	8.69
724.234	9.69
724.26	2.69
724.286	2.69
724.311	-6.31
724.337	-6.31
724.363	-9.31
724.389	8.69
724.415	-5.31
724.44	-0.31
724.466	-18.31
724.492	-0.31
724.518	4.69
724.543	-0.31
724.569	9.69
724.595	-7.31
724.621	-9.31
724.646	-1.31
724.672	-7.31
724.698	-1.31
724.723	0.69
724.749	-3.31
724.775	13.69
724.801	5.69
724.826	-16.31
724.852	-15.31
724.878	-2.31
724.904	-8.31
724.929	0.69
724.955	-14.31
724.981	-16.31
725.006	-1.31
725.032	12.69
725.058	32.69
725.083	-1.31
725.109	-19.31
725.135	-7.31
725.161	22.69
725.186	1.69
725.212	-13.31
725.238	-11.31
725.263	-15.31
725.289	-23.31
725.315	-24.31
725.34	-6.31
725.366	-4.31
725.392	-6.31
725.417	-6.31
725.443	-19.31
725.468	-7.31
725.494	11.69
725.52	22.69
725.545	7.69
725.571	-6.31
725.597	-0.31
725.622	8.69
725.648	-15.31
725.674	3.69
725.699	-2.31
725.725	3.69
725.75	13.69
725.776	-2.31
725.802	2.69
725.827	0.69
725.853	-15.31
725.878	-7.31
725.904	-9.31
725.93	-0.31
725.955	-17.31
725.981	-11.31
726.006	0.69
726.032	12.69
726.057	-3.31
726.083	-8.31
726.109	5.69
726.134	1.69
726.16	-6.31
726.185	-7.31
726.211	-10.31
726.236	-6.31
726.262	6.69
726.288	3.69
726.313	5.69
726.339	7.69
726.364	-3.31
726.39	11.69
726.415	5.69
726.441	-2.31
726.466	-17.31
726.492	-2.31
726.517	-16.31
726.543	-13.31
726.568	-23.31
726.594	-2.31
726.619	-2.31
726.645	13.69
726.67	-3.31
726.696	0.69
726.721	-21.31
726.747	-15.31
726.772	-6.31
726.798	2.69
726.823	-2.31
726.849	3.69
726.874	7.69
726.9	7.69
726.925	18.69
726.951	-4.31
726.976	16.69
727.002	-4.31
727.027	-6.31
727.053	4.69
727.078	-4.31
727.104	-12.31
727.129	-13.31
727.155	1.69
727.18	-3.31
727.205	4.69
727.231	-10.31
727.256	-0.31
727.282	-5.31
727.307	3.69
727.333	-11.31
727.358	-19.31
727.383	-14.31
727.409	-19.31
727.434	3.69
727.46	-17.31
727.485	-9.31
727.511	0.69
727.536	-17.31
727.561	-9.31
727.587	-6.31
727.612	-26.31
727.637	-12.31
727.663	-16.31
727.688	3.69
727.714	-13.31
727.739	-6.31
727.764	-4.31
727.79	0.69
727.815	4.69
727.841	-4.31
727.866	0.69
727.891	-8.31
727.917	-10.31
727.942	-15.31
727.967	1.69
727.993	-25.31
728.018	-7.31
728.043	-4.31
728.069	0.69
728.094	7.69
728.119	-8.31
728.145	16.69
728.17	8.69
728.195	3.69
728.221	-6.31
728.246	-1.31
728.271	-21.31
728.297	-5.31
728.322	-22.31
728.347	-19.31
728.373	-8.31
728.398	-4.31
728.423	-5.31
728.448	-9.31
728.474	-13.31
728.499	7.69
728.524	-1.31
728.55	-11.31
728.575	-8.31
728.6	6.69
728.625	-4.31
728.651	7.69
728.676	-5.31
728.701	-6.31
728.727	0.69
728.752	-1.31
728.777	-17.31
728.802	-3.31
728.828	8.69
728.853	10.69
728.878	-7.31
728.903	-19.31
728.929	2.69
728.954	-9.31
728.979	-0.31
729.004	-8.31
729.03	-6.31
729.055	-10.31
729.08	-9.31
729.105	-19.31
729.13	-2.31
729.156	3.69
729.181	-5.31
729.206	-4.31
729.231	-21.31
729.256	-7.31
729.282	13.69
729.307	-26.31
729.332	-1.31
729.357	-10.31
729.382	-8.31
729.408	-17.31
729.433	-13.31
729.458	2.69
729.483	18.69
729.508	2.69
729.533	0.69
729.559	-6.31
729.584	-5.31
729.609	-2.31
729.634	-7.31
729.659	-14.31
729.684	-17.31
729.71	21.69
729.735	-3.31
729.76	-3.31
729.785	-6.31
729.81	7.69
729.835	-6.31
729.86	0.69
729.886	0.69
729.911	-2.31
729.936	-3.31
729.961	-9.31
729.986	-23.31
730.011	-10.31
730.036	-6.31
730.061	-7.31
730.086	-3.31
730.112	-6.31
730.137	8.69
730.162	9.69
730.187	-10.31
730.212	1.69
730.237	-6.31
730.262	5.69
730.287	-10.31
730.312	3.69
730.337	-5.31
730.362	6.69
730.387	-6.31
730.413	-8.31
730.438	-17.31
730.463	-4.31
730.488	-18.31
730.513	4.69
730.538	9.69
730.563	-1.31
730.588	-10.31
730.613	4.69
730.638	-9.31
730.663	11.69
730.688	32.69
730.713	-4.31
730.738	-6.31
730.763	-7.31
730.788	-15.31
730.813	-7.31
730.838	-6.31
730.863	-7.31
730.888	-17.31
730.913	-26.31
730.938	-16.31
730.963	-0.31
730.988	-5.31
731.013	13.69
731.038	-9.31
731.063	-7.31
731.088	-7.31
731.113	-14.31
731.138	4.69
731.163	-18.31
731.188	-3.31
731.213	14.69
731.238	0.69
731.263	-8.31
731.288	-3.31
731.313	-5.31
731.338	-21.31
731.363	-1.31
731.388	3.69
731.413	-4.31
731.438	-2.31
731.463	-4.31
731.487	2.69
731.512	-9.31
731.537	-11.31
731.562	-11.31
731.587	-6.31
731.612	-6.31
731.637	-14.31
731.662	-7.31
731.687	-19.31
731.712	-9.31
731.737	-3.31
731.762	-4.31
731.786	-10.31
731.811	2.69
731.836	-1.31
731.861	-3.31
731.886	5.69
731.911	-7.31
731.936	15.69
731.961	-2.31
731.986	-10.31
732.01	10.69
732.035	14.69
732.06	-6.31
732.085	-6.31
732.11	-11.31
732.135	-13.31
732.16	-4.31
732.184	-5.31
732.209	-4.31
732.234	4.69
732.259	-15.31
732.284	7.69
732.309	-17.31
732.334	-8.31
732.358	-36.31
732.383	-23.31
732.408	-7.31
732.433	8.69
732.458	6.69
732.482	6.69
732.507	3.69
732.532	-4.31
732.557	17.69
732.582	5.69
732.607	-3.31
732.631	-16.31
732.656	-10.31
732.681	-5.31
732.706	-6.31
732.73	3.69
732.755	-8.31
732.78	6.69
732.805	5.69
732.83	-2.31
732.854	0.69
732.879	11.69
732.904	1.69
732.929	-2.31
732.953	-7.31
732.978	-18.31
733.003	-3.31
733.028	5.69
733.052	1.69
733.077	6.69
733.102	25.69
733.127	-6.31
733.151	6.69
733.176	-5.31
733.201	-19.31
733.226	-5.31
733.25	0.69
733.275	6.69
733.3	-9.31
733.324	2.69
733.349	-1.31
733.374	4.69
733.399	-4.31
733.423	-10.31
733.448	-10.31
733.473	2.69
733.497	-6.31
733.522	-3.31
733.547	-4.31
733.571	6.69
733.596	-1.31
733.621	6.69
733.646	8.69
733.67	1.69
733.695	-6.31
733.72	20.69
733.744	17.69
733.769	-1.31
733.794	6.69
733.818	-9.31
733.843	1.69
733.867	-18.31
733.892	-3.31
733.917	-7.31
733.941	3.69
733.966	-0.31
733.991	-5.31
734.015	3.69
734.04	-13.31
734.065	-3.31
734.089	7.69
734.114	-2.31
734.138	1.69
734.163	-0.31
734.188	10.69
734.212	-1.31
734.237	2.69
734.261	1.69
734.286	-8.31
734.311	11.69
734.335	-7.31
734.36	-18.31
734.384	2.69
734.409	1.69
734.434	-9.31
734.458	0.69
734.483	-7.31
734.507	-6.31
734.532	-9.31
734.556	-1.31
734.581	-0.31
734.606	-12.31
734.63	-8.31
734.655	-5.31
734.679	0.69
734.704	-15.31
734.728	0.69
734.753	-9.31
734.777	12.69
734.802	-6.31
734.826	-3.31
734.851	-18.31
734.876	-6.31
734.9	2.69
734.925	12.69
734.949	2.69
734.974	-7.31
734.998	2.69
735.023	-1.31
735.047	-15.31
735.072	24.69
735.096	14.69
735.121	9.69
735.145	-11.31
735.17	-10.31
735.194	6.69
735.219	-12.31
735.243	-15.31
735.268	3.69
735.292	1.69
735.317	-2.31
735.341	5.69
735.365	-5.31
735.39	7.69
735.414	-1.31
735.439	4.69
735.463	-11.31
735.488	4.69
735.512	-4.31
735.537	-6.31
735.561	2.69
735.586	17.69
735.61	-5.31
735.634	-21.31
735.659	-9.31
735.683	22.69
735.708	8.69
735.732	-9.31
735.757	-13.31
735.781	4.69
735.805	-3.31
735.83	-17.31
735.854	-7.31
735.879	-7.31
735.903	11.69
735.927	8.69
735.952	-8.31
735.976	-4.31
736.001	-9.31
736.025	-7.31
736.049	3.69
736.074	-7.31
736.098	-7.31
736.123	1.69
736.147	0.69
736.171	-17.31
736.196	8.69
736.22	-7.31
736.244	-13.31
736.269	-9.31
736.293	-7.31
736.317	2.69
736.342	-2.31
736.366	-5.31
736.39	6.69
736.415	-6.31
736.439	2.69
736.463	19.69
736.488	11.69
736.512	10.69
736.536	6.69
736.561	22.69
736.585	-3.31
736.609	-13.31
736.634	-13.31
736.658	-9.31
736.682	-18.31
736.707	-15.31
736.731	-16.31
736.755	-1.31
736.78	5.69
736.804	11.69
736.828	2.69
736.852	-22.31
736.877	3.69
736.901	3.69
736.925	-0.31
736.949	14.69
736.974	-6.31
736.998	-9.31
737.022	-13.31
737.047	-9.31
737.071	-0.31
737.095	5.69
737.119	20.69
737.144	9.69
737.168	5.69
737.192	-8.31
737.216	2.69
737.241	-6.31
737.265	20.69
737.289	-2.31
737.313	-6.31
737.337	-5.31
737.362	-1.31
737.386	-8.31
737.41	5.69
737.434	-8.31
737.459	-11.31
737.483	16.69
737.507	5.69
737.531	9.69
737.555	-2.31
737.58	1.69
737.604	1.69
737.628	-31.31
737.652	4.69
737.676	-0.31
737.701	-5.31
737.725	-7.31
737.749	24.69
737.773	-9.31
737.797	-2.31
737.821	-4.31
737.846	1.69
737.87	25.69
737.894	1.69
737.918	0.69
737.942	-10.31
737.966	-2.31
737.99	2.69
738.015	-16.31
738.039	-0.31
738.063	-11.31
738.087	-1.31
738.111	-1.31
738.135	26.69
738.159	2.69
738.184	5.69
738.208	-3.31
738.232	-4.31
738.256	8.69
738.28	11.69
738.304	6.69
738.328	-2.31
738.352	-4.31
738.376	13.69
738.4	5.69
738.425	-2.31
738.449	-2.31
738.473	12.69
738.497	-13.31
738.521	1.69
738.545	-2.31
738.569	13.69
738.593	18.69
738.617	11.69
738.641	6.69
738.665	3.69
738.689	3.69
738.713	-1.31
738.737	13.69
738.762	13.69
738.786	3.69
738.81	-15.31
738.834	11.69
738.858	-0.31
738.882	-9.31
738.906	-22.31
738.93	-2.31
738.954	6.69
738.978	2.69
739.002	-11.31
739.026	7.69
739.05	4.69
739.074	1.69
739.098	25.69
739.122	14.69
739.146	-1.31
739.17	-7.31
739.194	10.69
739.218	0.69
739.242	3.69
739.266	-4.31
739.29	-5.31
739.314	9.69
739.338	-2.31
739.362	-4.31
739.386	14.69
739.41	-8.31
739.434	2.69
739.458	2.69
739.482	-6.31
739.506	7.69
739.53	-1.31
739.554	11.69
739.577	-17.31
739.601	10.69
739.625	-9.31
739.649	0.69
739.673	-9.31
739.697	10.69
739.721	-4.31
739.745	3.69
739.769	9.69
739.793	-10.31
739.817	1.69
739.841	-8.31
739.865	0.69
739.889	-28.31
739.912	11.69
739.936	-9.31
739.96	-11.31
739.984	14.69
740.008	-5.31
740.032	-2.31
740.056	8.69
740.08	-14.31
740.104	4.69
740.127	23.69
740.151	10.69
740.175	8.69
740.199	3.69
740.223	39.69
740.247	1.69
740.271	1.69
740.295	-3.31
740.318	-12.31
740.342	-4.31
740.366	1.69
740.39	-3.31
740.414	-15.31
740.438	-3.31
740.461	20.69
740.485	13.69
740.509	-0.31
740.533	-3.31
740.557	-7.31
740.581	-7.31
740.604	-16.31
740.628	2.69
740.652	3.69
740.676	2.69
740.7	17.69
740.723	4.69
740.747	13.69
740.771	0.69
740.795	-8.31
740.819	3.69
740.842	-0.31
740.866	9.69
740.89	2.69
740.914	10.69
740.938	-13.31
740.961	10.69
740.985	-13.31
741.009	-6.31
741.033	10.69
741.056	1.69
741.08	1.69
741.104	-19.31
741.128	2.69
741.151	-0.31
741.175	1.69
741.199	6.69
741.223	-7.31
741.246	-24.31
741.27	-3.31
741.294	-2.31
741.318	7.69
741.341	-9.31
741.365	-3.31
741.389	5.69
741.413	13.69
741.436	16.69
741.46	-6.31
741.484	7.69
741.507	7.69
741.531	26.69
741.555	12.69
741.579	11.69
741.602	0.69
741.626	9.69
741.65	8.69
741.673	2.69
741.697	21.69
741.721	0.69
741.744	-19.31
741.768	-5.31
741.792	-2.31
741.815	-14.31
741.839	10.69
741.863	15.69
741.886	7.69
741.91	12.69
741.934	4.69
741.957	-16.31
741.981	6.69
742.005	-9.31
742.028	-5.31
742.052	2.69
742.075	-2.31
742.099	-3.31
742.123	0.69
742.146	14.69
742.17	9.69
742.194	1.69
742.217	-7.31
742.241	-7.31
742.264	-11.31
742.288	9.69
742.312	2.69
742.335	-5.31
742.359	2.69
742.382	-1.31
742.406	7.69
742.43	-18.31
742.453	-7.31
742.477	-15.31
742.5	3.69
742.524	-3.31
742.548	-18.31
742.571	-3.31
742.595	5.69
742.618	-3.31
742.642	-2.31
742.665	14.69
742.689	-3.31
742.712	10.69
742.736	2.69
742.76	6.69
742.783	0.69
742.807	16.69
742.83	10.69
742.854	-23.31
742.877	-4.31
742.901	-17.31
742.924	-8.31
742.948	-3.31
742.971	3.69
742.995	3.69
743.018	-10.31
743.042	-14.31
743.065	0.69
743.089	-5.31
743.112	-4.31
743.136	-6.31
743.159	-16.31
743.183	-7.31
743.206	-14.31
743.23	-11.31
743.253	-1.31
743.277	-3.31
743.3	-5.31
743.324	-10.31
743.347	-10.31
743.371	12.69
743.394	7.69
743.418	9.69
743.441	11.69
743.465	9.69
743.488	18.69
743.512	-11.31
743.535	-1.31
743.558	-0.31
743.582	18.69
743.605	-1.31
743.629	-8.31
743.652	-6.31
743.676	-3.31
743.699	11.69
743.723	0.69
743.746	12.69
743.769	-12.31
743.793	-5.31
743.816	-6.31
743.84	11.69
743.863	-7.31
743.886	-2.31
743.91	10.69
743.933	4.69
743.957	-9.31
743.98	-7.31
744.003	-6.31
744.027	0.69
744.05	-0.31
744.074	5.69
744.097	-13.31
744.12	-8.31
744.144	-13.31
744.167	-1.31
744.19	2.69
744.214	-3.31
744.237	-6.31
744.26	-1.31
744.284	-8.31
744.307	-0.31
744.331	-8.31
744.354	-6.31
744.377	-13.31
744.401	1.69
744.424	21.69
744.447	-7.31
744.471	-13.31
