Data from HighRes_H2_15_09_11_07_2024_HR4C61891__120__15-11-08-401.txt Node

Date: Thu Nov 07 15:11:08 EST 2024
User: crc00042
Spectrometer: HR4C6189
Trigger mode: 4
Integration Time (sec): 1.000000E-1
Scans to average: 1
Electric dark correction enabled: true
Nonlinearity correction enabled: false
Boxcar width: 0
XAxis mode: Wavelengths
Number of Pixels in Spectrum: 3648
>>>>>Begin Spectral Data<<<<<
639.567	-58.08
639.602	-58.08
639.636	-58.08
639.67	-46.08
639.704	-18.08
639.738	-10.08
639.773	11.92
639.807	-9.08
639.841	-4.08
639.875	12.92
639.909	-1.08
639.943	-12.08
639.978	-4.08
640.012	0.92
640.046	13.92
640.08	7.92
640.114	-4.08
640.148	-3.08
640.182	-8.08
640.217	1.92
640.251	4.92
640.285	-6.08
640.319	-24.08
640.353	-11.08
640.387	6.92
640.421	-10.08
640.455	-22.08
640.49	-11.08
640.524	-20.08
640.558	7.92
640.592	3.92
640.626	-9.08
640.66	7.92
640.694	2.92
640.728	-1.08
640.762	-6.08
640.796	-13.08
640.83	-4.08
640.865	-11.08
640.899	-11.08
640.933	-1.08
640.967	-3.08
641.001	-8.08
641.035	-4.08
641.069	-5.08
641.103	-13.08
641.137	-0.08
641.171	-15.08
641.205	2.92
641.239	2.92
641.273	0.92
641.307	-12.08
641.341	-4.08
641.375	-1.08
641.409	-17.08
641.443	-10.08
641.477	-13.08
641.511	9.92
641.545	7.92
641.579	-1.08
641.614	14.92
641.648	-1.08
641.682	-14.08
641.716	8.92
641.75	9.92
641.784	-8.08
641.818	3.92
641.852	2.92
641.886	2.92
641.919	25.92
641.953	2.92
641.987	3.92
642.021	-7.08
642.055	-4.08
642.089	-12.08
642.123	-16.08
642.157	-13.08
642.191	-12.08
642.225	5.92
642.259	-21.08
642.293	-0.08
642.327	2.92
642.361	-13.08
642.395	18.92
642.429	-0.08
642.463	-0.08
642.497	2.92
642.531	2.92
642.565	-9.08
642.599	-1.08
642.633	-13.08
642.666	7.92
642.7	9.92
642.734	15.92
642.768	-5.08
642.802	-6.08
642.836	7.92
642.87	-1.08
642.904	8.92
642.938	11.92
642.972	-7.08
643.005	2.92
643.039	11.92
643.073	-18.08
643.107	-3.08
643.141	-13.08
643.175	-14.08
643.209	-11.08
643.243	-0.08
643.276	3.92
643.31	-6.08
643.344	10.92
643.378	-3.08
643.412	5.92
643.446	-3.08
643.48	-11.08
643.513	7.92
643.547	1.92
643.581	-12.08
643.615	-8.08
643.649	-12.08
643.683	-1.08
643.716	-2.08
643.75	-4.08
643.784	-20.08
643.818	11.92
643.852	-8.08
643.886	-10.08
643.919	-8.08
643.953	-8.08
643.987	-14.08
644.021	2.92
644.055	-0.08
644.088	-17.08
644.122	-1.08
644.156	-13.08
644.19	-3.08
644.224	-9.08
644.257	4.92
644.291	4.92
644.325	8.92
644.359	2.92
644.392	12.92
644.426	-10.08
644.46	-1.08
644.494	-10.08
644.527	-0.08
644.561	-5.08
644.595	-1.08
644.629	-13.08
644.662	-19.08
644.696	0.92
644.73	-4.08
644.764	2.92
644.797	-11.08
644.831	1.92
644.865	12.92
644.899	-4.08
644.932	23.92
644.966	-4.08
645	3.92
645.033	11.92
645.067	-15.08
645.101	7.92
645.135	3.92
645.168	-14.08
645.202	-12.08
645.236	-8.08
645.269	-1.08
645.303	-1.08
645.337	-18.08
645.37	6.92
645.404	-5.08
645.438	2.92
645.471	5.92
645.505	11.92
645.539	-2.08
645.572	-16.08
645.606	-16.08
645.64	2.92
645.673	0.92
645.707	6.92
645.741	8.92
645.774	-1.08
645.808	-0.08
645.842	-20.08
645.875	3.92
645.909	-2.08
645.943	5.92
645.976	2.92
646.01	-1.08
646.043	7.92
646.077	3.92
646.111	3.92
646.144	6.92
646.178	7.92
646.212	-18.08
646.245	-14.08
646.279	4.92
646.312	3.92
646.346	-3.08
646.38	-2.08
646.413	-2.08
646.447	-0.08
646.48	-13.08
646.514	3.92
646.547	-4.08
646.581	1.92
646.615	-11.08
646.648	-11.08
646.682	-10.08
646.715	6.92
646.749	2.92
646.782	5.92
646.816	8.92
646.85	16.92
646.883	-2.08
646.917	7.92
646.95	3.92
646.984	2.92
647.017	-25.08
647.051	-11.08
647.084	-15.08
647.118	-11.08
647.151	0.92
647.185	6.92
647.218	2.92
647.252	12.92
647.285	-11.08
647.319	-14.08
647.353	1.92
647.386	18.92
647.42	-0.08
647.453	1.92
647.487	-8.08
647.52	-1.08
647.553	3.92
647.587	-13.08
647.62	-10.08
647.654	0.92
647.687	2.92
647.721	17.92
647.754	21.92
647.788	3.92
647.821	-15.08
647.855	6.92
647.888	5.92
647.922	5.92
647.955	-0.08
647.989	11.92
648.022	-0.08
648.055	-2.08
648.089	-21.08
648.122	19.92
648.156	-7.08
648.189	-16.08
648.223	19.92
648.256	16.92
648.29	-6.08
648.323	-11.08
648.356	4.92
648.39	-6.08
648.423	2.92
648.457	-11.08
648.49	-0.08
648.523	20.92
648.557	-0.08
648.59	-11.08
648.624	-4.08
648.657	4.92
648.69	22.92
648.724	9.92
648.757	6.92
648.791	-2.08
648.824	6.92
648.857	6.92
648.891	-2.08
648.924	-3.08
648.957	17.92
648.991	0.92
649.024	13.92
649.057	-3.08
649.091	-21.08
649.124	16.92
649.158	6.92
649.191	15.92
649.224	0.92
649.258	-8.08
649.291	16.92
649.324	2.92
649.358	-0.08
649.391	4.92
649.424	2.92
649.458	3.92
649.491	-13.08
649.524	-11.08
649.557	-17.08
649.591	-23.08
649.624	14.92
649.657	-11.08
649.691	-5.08
649.724	13.92
649.757	0.92
649.791	-14.08
649.824	9.92
649.857	9.92
649.89	9.92
649.924	-0.08
649.957	-0.08
649.99	-18.08
650.023	5.92
650.057	0.92
650.09	-8.08
650.123	-3.08
650.157	3.92
650.19	14.92
650.223	-4.08
650.256	-6.08
650.29	-0.08
650.323	-9.08
650.356	10.92
650.389	-4.08
650.423	0.92
650.456	0.92
650.489	-3.08
650.522	5.92
650.555	7.92
650.589	9.92
650.622	0.92
650.655	-3.08
650.688	-4.08
650.721	-11.08
650.755	1.92
650.788	18.92
650.821	-7.08
650.854	-15.08
650.887	-3.08
650.921	-12.08
650.954	4.92
650.987	-1.08
651.02	9.92
651.053	-6.08
651.087	-8.08
651.12	15.92
651.153	6.92
651.186	-14.08
651.219	-13.08
651.252	12.92
651.286	12.92
651.319	-13.08
651.352	-1.08
651.385	-5.08
651.418	-17.08
651.451	2.92
651.484	9.92
651.518	-9.08
651.551	34.92
651.584	2.92
651.617	18.92
651.65	3.92
651.683	2.92
651.716	1.92
651.749	-8.08
651.783	-5.08
651.816	-12.08
651.849	-3.08
651.882	-2.08
651.915	0.92
651.948	-3.08
651.981	-14.08
652.014	-16.08
652.047	-24.08
652.08	-20.08
652.114	0.92
652.147	-29.08
652.18	-5.08
652.213	19.92
652.246	-6.08
652.279	-12.08
652.312	3.92
652.345	3.92
652.378	-0.08
652.411	1.92
652.444	18.92
652.477	-6.08
652.51	3.92
652.543	-4.08
652.576	6.92
652.609	-18.08
652.642	-2.08
652.675	13.92
652.709	-0.08
652.742	10.92
652.775	2.92
652.808	12.92
652.841	4.92
652.874	-7.08
652.907	-3.08
652.94	-23.08
652.973	-22.08
653.006	-18.08
653.039	-18.08
653.072	-13.08
653.105	1.92
653.138	-19.08
653.171	-5.08
653.204	3.92
653.237	0.92
653.27	-7.08
653.303	9.92
653.336	13.92
653.368	5.92
653.401	12.92
653.434	7.92
653.467	2.92
653.5	-20.08
653.533	-6.08
653.566	-3.08
653.599	-7.08
653.632	2.92
653.665	12.92
653.698	-0.08
653.731	-5.08
653.764	5.92
653.797	-9.08
653.83	-4.08
653.863	-23.08
653.896	-11.08
653.929	-5.08
653.961	4.92
653.994	-2.08
654.027	-10.08
654.06	3.92
654.093	12.92
654.126	1.92
654.159	-3.08
654.192	4.92
654.225	-6.08
654.258	-9.08
654.29	4.92
654.323	-19.08
654.356	-4.08
654.389	0.92
654.422	-15.08
654.455	-7.08
654.488	-9.08
654.521	-23.08
654.553	-17.08
654.586	-14.08
654.619	-8.08
654.652	0.92
654.685	1.92
654.718	-0.08
654.751	10.92
654.783	-3.08
654.816	14.92
654.849	-6.08
654.882	-8.08
654.915	-20.08
654.948	-24.08
654.98	-18.08
655.013	-14.08
655.046	-12.08
655.079	-13.08
655.112	-6.08
655.144	-3.08
655.177	4.92
655.21	22.92
655.243	-3.08
655.276	-3.08
655.308	1.92
655.341	-18.08
655.374	2.92
655.407	-2.08
655.44	9.92
655.472	6.92
655.505	-8.08
655.538	-3.08
655.571	11.92
655.603	-3.08
655.636	6.92
655.669	13.92
655.702	-4.08
655.734	4.92
655.767	5.92
655.8	23.92
655.833	23.92
655.865	36.92
655.898	36.92
655.931	20.92
655.964	19.92
655.996	44.92
656.029	79.92
656.062	52.92
656.095	77.92
656.127	70.92
656.16	102.92
656.193	111.92
656.225	172.92
656.258	282.92
656.291	485.92
656.324	1152.92
656.356	3327.92
656.389	7538.92
656.422	6040.92
656.454	2041.92
656.487	675.92
656.52	275.92
656.552	112.92
656.585	66.92
656.618	47.92
656.65	35.92
656.683	15.92
656.716	4.92
656.748	13.92
656.781	-2.08
656.814	2.92
656.846	14.92
656.879	5.92
656.912	6.92
656.944	-5.08
656.977	-8.08
657.01	-13.08
657.042	0.92
657.075	4.92
657.108	6.92
657.14	5.92
657.173	3.92
657.205	17.92
657.238	2.92
657.271	-9.08
657.303	-11.08
657.336	-8.08
657.369	-1.08
657.401	2.92
657.434	9.92
657.466	9.92
657.499	-9.08
657.532	-0.08
657.564	4.92
657.597	-16.08
657.629	-4.08
657.662	-13.08
657.694	-10.08
657.727	-12.08
657.76	-7.08
657.792	-14.08
657.825	-6.08
657.857	2.92
657.89	-6.08
657.922	-1.08
657.955	-19.08
657.987	-8.08
658.02	9.92
658.053	-1.08
658.085	-3.08
658.118	5.92
658.15	14.92
658.183	4.92
658.215	7.92
658.248	-5.08
658.28	1.92
658.313	18.92
658.345	4.92
658.378	-18.08
658.41	-16.08
658.443	6.92
658.475	-5.08
658.508	-5.08
658.54	1.92
658.573	-4.08
658.605	-13.08
658.638	-20.08
658.67	-2.08
658.703	10.92
658.735	-8.08
658.768	-11.08
658.8	-11.08
658.833	9.92
658.865	9.92
658.898	-4.08
658.93	-8.08
658.963	0.92
658.995	-29.08
659.028	-11.08
659.06	-6.08
659.092	-6.08
659.125	-16.08
659.157	4.92
659.19	7.92
659.222	-6.08
659.255	-0.08
659.287	14.92
659.32	-3.08
659.352	-6.08
659.384	3.92
659.417	-9.08
659.449	0.92
659.482	1.92
659.514	-10.08
659.546	-15.08
659.579	-14.08
659.611	-11.08
659.644	-13.08
659.676	-10.08
659.708	-16.08
659.741	-6.08
659.773	3.92
659.806	-2.08
659.838	-2.08
659.87	4.92
659.903	-15.08
659.935	19.92
659.967	10.92
660	5.92
660.032	-20.08
660.065	3.92
660.097	-5.08
660.129	-5.08
660.162	-24.08
660.194	-2.08
660.226	3.92
660.259	12.92
660.291	-9.08
660.323	-1.08
660.356	-16.08
660.388	-0.08
660.42	4.92
660.453	11.92
660.485	0.92
660.517	-0.08
660.55	9.92
660.582	-2.08
660.614	-0.08
660.647	-28.08
660.679	-20.08
660.711	3.92
660.743	-23.08
660.776	5.92
660.808	-18.08
660.84	0.92
660.873	-6.08
660.905	-10.08
660.937	-3.08
660.969	1.92
661.002	-6.08
661.034	0.92
661.066	-15.08
661.099	13.92
661.131	-3.08
661.163	-8.08
661.195	4.92
661.228	8.92
661.26	8.92
661.292	-12.08
661.324	3.92
661.357	1.92
661.389	-9.08
661.421	-11.08
661.453	-17.08
661.485	-4.08
661.518	-3.08
661.55	-3.08
661.582	-13.08
661.614	-22.08
661.647	-5.08
661.679	2.92
661.711	2.92
661.743	-12.08
661.775	-0.08
661.808	6.92
661.84	-32.08
661.872	-4.08
661.904	-16.08
661.936	-4.08
661.969	-12.08
662.001	3.92
662.033	6.92
662.065	-7.08
662.097	21.92
662.129	16.92
662.162	3.92
662.194	0.92
662.226	0.92
662.258	13.92
662.29	4.92
662.322	-14.08
662.355	-27.08
662.387	18.92
662.419	-3.08
662.451	-5.08
662.483	10.92
662.515	-10.08
662.547	-6.08
662.58	-5.08
662.612	-5.08
662.644	-9.08
662.676	-14.08
662.708	6.92
662.74	-11.08
662.772	-1.08
662.804	14.92
662.836	10.92
662.869	-8.08
662.901	2.92
662.933	-0.08
662.965	11.92
662.997	0.92
663.029	-28.08
663.061	-9.08
663.093	-14.08
663.125	6.92
663.157	-0.08
663.189	3.92
663.221	8.92
663.254	0.92
663.286	4.92
663.318	-21.08
663.35	-8.08
663.382	2.92
663.414	-7.08
663.446	-10.08
663.478	-18.08
663.51	12.92
663.542	-19.08
663.574	-23.08
663.606	-7.08
663.638	-33.08
663.67	-5.08
663.702	-0.08
663.734	-1.08
663.766	-3.08
663.798	-30.08
663.83	-12.08
663.862	-12.08
663.894	-12.08
663.926	-7.08
663.958	6.92
663.99	-2.08
664.022	-16.08
664.054	10.92
664.086	-5.08
664.118	-7.08
664.15	-3.08
664.182	3.92
664.214	-7.08
664.246	9.92
664.278	-4.08
664.31	16.92
664.342	-7.08
664.374	-7.08
664.406	-8.08
664.438	-9.08
664.47	16.92
664.502	9.92
664.534	12.92
664.566	0.92
664.598	12.92
664.63	-16.08
664.662	0.92
664.693	-16.08
664.725	-13.08
664.757	-4.08
664.789	-17.08
664.821	-15.08
664.853	-6.08
664.885	-1.08
664.917	-7.08
664.949	9.92
664.981	15.92
665.013	-5.08
665.045	-23.08
665.076	-4.08
665.108	6.92
665.14	-14.08
665.172	-8.08
665.204	-14.08
665.236	-1.08
665.268	2.92
665.3	-20.08
665.331	-28.08
665.363	-3.08
665.395	-9.08
665.427	-0.08
665.459	-7.08
665.491	2.92
665.523	-4.08
665.555	-8.08
665.586	-6.08
665.618	-8.08
665.65	-12.08
665.682	-10.08
665.714	-9.08
665.746	-7.08
665.777	-14.08
665.809	-3.08
665.841	8.92
665.873	-7.08
665.905	3.92
665.937	5.92
665.968	7.92
666	-5.08
666.032	9.92
666.064	-3.08
666.096	-2.08
666.127	-4.08
666.159	2.92
666.191	13.92
666.223	3.92
666.255	7.92
666.286	-4.08
666.318	1.92
666.35	2.92
666.382	-8.08
666.413	-2.08
666.445	-18.08
666.477	-15.08
666.509	-6.08
666.54	-9.08
666.572	-14.08
666.604	-11.08
666.636	1.92
666.667	0.92
666.699	7.92
666.731	3.92
666.763	-7.08
666.794	-5.08
666.826	-6.08
666.858	-15.08
666.89	0.92
666.921	-5.08
666.953	3.92
666.985	-5.08
667.017	-6.08
667.048	-0.08
667.08	-7.08
667.112	-12.08
667.143	-20.08
667.175	-9.08
667.207	-5.08
667.238	-3.08
667.27	1.92
667.302	8.92
667.334	-4.08
667.365	10.92
667.397	-8.08
667.429	-14.08
667.46	-6.08
667.492	6.92
667.524	-1.08
667.555	-7.08
667.587	-0.08
667.619	2.92
667.65	-9.08
667.682	-14.08
667.714	-10.08
667.745	-8.08
667.777	-23.08
667.808	5.92
667.84	4.92
667.872	-11.08
667.903	3.92
667.935	-16.08
667.967	-3.08
667.998	4.92
668.03	-6.08
668.061	5.92
668.093	-7.08
668.125	-4.08
668.156	-17.08
668.188	7.92
668.22	-16.08
668.251	7.92
668.283	2.92
668.314	-0.08
668.346	-14.08
668.377	-3.08
668.409	-9.08
668.441	9.92
668.472	-9.08
668.504	4.92
668.535	14.92
668.567	6.92
668.599	-3.08
668.63	-21.08
668.662	13.92
668.693	20.92
668.725	7.92
668.756	9.92
668.788	-2.08
668.819	-0.08
668.851	0.92
668.882	-6.08
668.914	-7.08
668.946	-5.08
668.977	-20.08
669.009	-19.08
669.04	-19.08
669.072	13.92
669.103	1.92
669.135	-10.08
669.166	-10.08
669.198	3.92
669.229	11.92
669.261	8.92
669.292	-6.08
669.324	4.92
669.355	5.92
669.387	-1.08
669.418	5.92
669.45	-2.08
669.481	8.92
669.513	-2.08
669.544	-9.08
669.576	-12.08
669.607	9.92
669.639	-2.08
669.67	-17.08
669.701	7.92
669.733	-3.08
669.764	4.92
669.796	8.92
669.827	-2.08
669.859	-15.08
669.89	-11.08
669.922	3.92
669.953	-5.08
669.985	0.92
670.016	7.92
670.047	-2.08
670.079	-13.08
670.11	-0.08
670.142	-10.08
670.173	22.92
670.204	-0.08
670.236	-8.08
670.267	-17.08
670.299	2.92
670.33	-9.08
670.362	1.92
670.393	-13.08
670.424	-3.08
670.456	-13.08
670.487	-8.08
670.518	-5.08
670.55	-6.08
670.581	-14.08
670.613	-17.08
670.644	-12.08
670.675	-19.08
670.707	-16.08
670.738	-10.08
670.769	-7.08
670.801	-10.08
670.832	0.92
670.864	-1.08
670.895	0.92
670.926	-1.08
670.958	-8.08
670.989	2.92
671.02	-5.08
671.052	-13.08
671.083	-3.08
671.114	-4.08
671.146	0.92
671.177	-11.08
671.208	-10.08
671.24	-23.08
671.271	11.92
671.302	-10.08
671.333	-6.08
671.365	6.92
671.396	-18.08
671.427	-4.08
671.459	10.92
671.49	-11.08
671.521	-7.08
671.553	17.92
671.584	3.92
671.615	-22.08
671.646	-15.08
671.678	-16.08
671.709	-18.08
671.74	-24.08
671.771	0.92
671.803	-4.08
671.834	-2.08
671.865	-9.08
671.896	0.92
671.928	0.92
671.959	-20.08
671.99	-12.08
672.021	-6.08
672.053	-1.08
672.084	-7.08
672.115	5.92
672.146	-1.08
672.178	-23.08
672.209	5.92
672.24	-8.08
672.271	10.92
672.303	-2.08
672.334	-1.08
672.365	-14.08
672.396	-3.08
672.427	-1.08
672.459	7.92
672.49	21.92
672.521	-4.08
672.552	2.92
672.583	-6.08
672.615	-11.08
672.646	2.92
672.677	-7.08
672.708	4.92
672.739	-10.08
672.77	12.92
672.802	3.92
672.833	-8.08
672.864	-19.08
672.895	-4.08
672.926	3.92
672.957	-10.08
672.989	6.92
673.02	2.92
673.051	-10.08
673.082	0.92
673.113	-2.08
673.144	-0.08
673.175	7.92
673.206	3.92
673.238	-6.08
673.269	-2.08
673.3	-32.08
673.331	-1.08
673.362	-11.08
673.393	-0.08
673.424	-0.08
673.455	7.92
673.487	-4.08
673.518	7.92
673.549	-13.08
673.58	-9.08
673.611	-3.08
673.642	5.92
673.673	-13.08
673.704	-19.08
673.735	3.92
673.766	-7.08
673.797	-6.08
673.828	-20.08
673.86	-24.08
673.891	-27.08
673.922	-12.08
673.953	-1.08
673.984	-10.08
674.015	4.92
674.046	-16.08
674.077	-15.08
674.108	-15.08
674.139	4.92
674.17	-3.08
674.201	-2.08
674.232	1.92
674.263	-12.08
674.294	-13.08
674.325	-31.08
674.356	-4.08
674.387	11.92
674.418	7.92
674.449	-14.08
674.48	-6.08
674.511	6.92
674.542	-6.08
674.573	0.92
674.604	-1.08
674.635	-9.08
674.666	0.92
674.697	-5.08
674.728	-6.08
674.759	-11.08
674.79	-14.08
674.821	-7.08
674.852	-11.08
674.883	-10.08
674.914	-17.08
674.945	-14.08
674.976	3.92
675.007	-12.08
675.038	-14.08
675.069	-14.08
675.1	-18.08
675.131	-2.08
675.162	-19.08
675.193	-15.08
675.224	-6.08
675.254	-6.08
675.285	-4.08
675.316	7.92
675.347	-8.08
675.378	-5.08
675.409	-21.08
675.44	1.92
675.471	2.92
675.502	-9.08
675.533	-1.08
675.564	10.92
675.595	-8.08
675.625	15.92
675.656	7.92
675.687	10.92
675.718	-8.08
675.749	3.92
675.78	1.92
675.811	-6.08
675.842	0.92
675.873	-7.08
675.903	-23.08
675.934	-8.08
675.965	-19.08
675.996	-3.08
676.027	5.92
676.058	-2.08
676.089	-27.08
676.119	-9.08
676.15	-2.08
676.181	-5.08
676.212	-3.08
676.243	7.92
676.274	-9.08
676.304	7.92
676.335	-18.08
676.366	6.92
676.397	-19.08
676.428	-21.08
676.459	-4.08
676.489	0.92
676.52	5.92
676.551	-3.08
676.582	-17.08
676.613	9.92
676.643	-0.08
676.674	4.92
676.705	-3.08
676.736	13.92
676.767	17.92
676.797	-0.08
676.828	-12.08
676.859	-17.08
676.89	-7.08
676.92	7.92
676.951	-2.08
676.982	-9.08
677.013	-8.08
677.044	-4.08
677.074	-18.08
677.105	-14.08
677.136	-1.08
677.167	1.92
677.197	5.92
677.228	-11.08
677.259	-9.08
677.289	-10.08
677.32	-9.08
677.351	-17.08
677.382	-19.08
677.412	-16.08
677.443	-3.08
677.474	-13.08
677.505	-11.08
677.535	4.92
677.566	-14.08
677.597	-12.08
677.627	-16.08
677.658	-4.08
677.689	-14.08
677.72	-3.08
677.75	-7.08
677.781	-3.08
677.812	-9.08
677.842	-4.08
677.873	-7.08
677.904	-19.08
677.934	-7.08
677.965	-24.08
677.996	-28.08
678.026	-1.08
678.057	-4.08
678.088	-17.08
678.118	-9.08
678.149	-25.08
678.18	-7.08
678.21	-1.08
678.241	-13.08
678.272	-20.08
678.302	-11.08
678.333	-1.08
678.363	-1.08
678.394	-2.08
678.425	-20.08
678.455	-15.08
678.486	3.92
678.517	-11.08
678.547	-4.08
678.578	-5.08
678.608	-18.08
678.639	4.92
678.67	-1.08
678.7	-16.08
678.731	0.92
678.761	-7.08
678.792	1.92
678.823	5.92
678.853	1.92
678.884	-11.08
678.914	20.92
678.945	-6.08
678.975	-11.08
679.006	-3.08
679.037	-3.08
679.067	11.92
679.098	-6.08
679.128	-13.08
679.159	-12.08
679.189	14.92
679.22	-16.08
679.25	-5.08
679.281	-15.08
679.312	-6.08
679.342	-3.08
679.373	26.92
679.403	-12.08
679.434	2.92
679.464	-12.08
679.495	-7.08
679.525	-2.08
679.556	-4.08
679.586	-12.08
679.617	-3.08
679.647	-11.08
679.678	-14.08
679.708	-14.08
679.739	-24.08
679.769	-5.08
679.8	-9.08
679.83	-10.08
679.861	13.92
679.891	-26.08
679.922	-19.08
679.952	-1.08
679.983	1.92
680.013	2.92
680.044	0.92
680.074	7.92
680.105	1.92
680.135	-1.08
680.165	11.92
680.196	-0.08
680.226	-0.08
680.257	-0.08
680.287	-4.08
680.318	-24.08
680.348	-9.08
680.379	7.92
680.409	-3.08
680.439	-6.08
680.47	-7.08
680.5	-2.08
680.531	-16.08
680.561	2.92
680.592	-9.08
680.622	2.92
680.652	-24.08
680.683	-0.08
680.713	-12.08
680.744	-19.08
680.774	-15.08
680.804	5.92
680.835	-3.08
680.865	-5.08
680.896	22.92
680.926	17.92
680.956	7.92
680.987	1.92
681.017	-2.08
681.047	9.92
681.078	-9.08
681.108	-1.08
681.139	-20.08
681.169	-23.08
681.199	-2.08
681.23	-9.08
681.26	7.92
681.29	-8.08
681.321	-36.08
681.351	-15.08
681.381	-14.08
681.412	3.92
681.442	1.92
681.472	14.92
681.503	-5.08
681.533	-6.08
681.563	-0.08
681.594	-1.08
681.624	-4.08
681.654	-5.08
681.685	-10.08
681.715	-10.08
681.745	-13.08
681.775	4.92
681.806	-6.08
681.836	-8.08
681.866	-5.08
681.897	11.92
681.927	-9.08
681.957	-19.08
681.987	1.92
682.018	-17.08
682.048	3.92
682.078	3.92
682.109	5.92
682.139	17.92
682.169	7.92
682.199	-12.08
682.23	-9.08
682.26	0.92
682.29	-8.08
682.32	-1.08
682.351	-8.08
682.381	7.92
682.411	-2.08
682.441	-2.08
682.472	-11.08
682.502	-8.08
682.532	-7.08
682.562	3.92
682.592	2.92
682.623	-2.08
682.653	-9.08
682.683	-13.08
682.713	-5.08
682.743	-11.08
682.774	-1.08
682.804	7.92
682.834	6.92
682.864	-6.08
682.894	-11.08
682.925	-3.08
682.955	-4.08
682.985	-15.08
683.015	-4.08
683.045	-11.08
683.076	-7.08
683.106	7.92
683.136	-17.08
683.166	-9.08
683.196	-17.08
683.226	-18.08
683.257	-28.08
683.287	-11.08
683.317	-8.08
683.347	-8.08
683.377	-7.08
683.407	5.92
683.437	-5.08
683.468	-4.08
683.498	-24.08
683.528	-17.08
683.558	-1.08
683.588	0.92
683.618	-10.08
683.648	-1.08
683.678	-1.08
683.708	8.92
683.739	5.92
683.769	3.92
683.799	6.92
683.829	-13.08
683.859	-5.08
683.889	0.92
683.919	2.92
683.949	-4.08
683.979	-17.08
684.009	-5.08
684.039	-4.08
684.07	-24.08
684.1	5.92
684.13	3.92
684.16	-19.08
684.19	-13.08
684.22	-11.08
684.25	-15.08
684.28	-8.08
684.31	-0.08
684.34	1.92
684.37	7.92
684.4	5.92
684.43	0.92
684.46	-11.08
684.49	12.92
684.52	1.92
684.55	15.92
684.58	6.92
684.61	-4.08
684.64	2.92
684.67	0.92
684.7	-2.08
684.73	4.92
684.76	-3.08
684.79	-4.08
684.82	4.92
684.85	-14.08
684.88	5.92
684.91	-8.08
684.94	-13.08
684.97	-6.08
685	-12.08
685.03	-12.08
685.06	-17.08
685.09	-3.08
685.12	17.92
685.15	-7.08
685.18	-1.08
685.21	0.92
685.24	0.92
685.27	7.92
685.3	-7.08
685.33	-3.08
685.36	3.92
685.39	-0.08
685.42	-13.08
685.45	-3.08
685.48	-21.08
685.51	-8.08
685.54	7.92
685.569	-4.08
685.599	-13.08
685.629	7.92
685.659	1.92
685.689	3.92
685.719	-9.08
685.749	-3.08
685.779	3.92
685.809	5.92
685.839	-13.08
685.869	1.92
685.898	-0.08
685.928	-2.08
685.958	2.92
685.988	-3.08
686.018	-11.08
686.048	16.92
686.078	19.92
686.108	-1.08
686.137	-8.08
686.167	0.92
686.197	-18.08
686.227	-16.08
686.257	8.92
686.287	15.92
686.317	-1.08
686.346	-8.08
686.376	-14.08
686.406	-13.08
686.436	12.92
686.466	-10.08
686.496	-2.08
686.525	2.92
686.555	1.92
686.585	2.92
686.615	30.92
686.645	8.92
686.675	-8.08
686.704	3.92
686.734	14.92
686.764	-4.08
686.794	3.92
686.824	0.92
686.853	9.92
686.883	3.92
686.913	17.92
686.943	3.92
686.973	-12.08
687.002	-5.08
687.032	6.92
687.062	-3.08
687.092	17.92
687.121	-3.08
687.151	-0.08
687.181	-0.08
687.211	2.92
687.24	1.92
687.27	-3.08
687.3	-28.08
687.33	-5.08
687.359	-36.08
687.389	-1.08
687.419	-13.08
687.449	-18.08
687.478	11.92
687.508	-2.08
687.538	5.92
687.568	-11.08
687.597	-16.08
687.627	-1.08
687.657	-4.08
687.686	1.92
687.716	9.92
687.746	-7.08
687.776	-18.08
687.805	-4.08
687.835	-7.08
687.865	-0.08
687.894	13.92
687.924	4.92
687.954	14.92
687.983	8.92
688.013	10.92
688.043	-11.08
688.072	-18.08
688.102	-1.08
688.132	-24.08
688.161	-5.08
688.191	-2.08
688.221	15.92
688.25	-12.08
688.28	-3.08
688.31	-17.08
688.339	1.92
688.369	-4.08
688.399	-1.08
688.428	-8.08
688.458	-5.08
688.488	-5.08
688.517	-3.08
688.547	-2.08
688.576	29.92
688.606	8.92
688.636	-23.08
688.665	13.92
688.695	7.92
688.725	13.92
688.754	5.92
688.784	1.92
688.813	-2.08
688.843	-9.08
688.873	-8.08
688.902	-12.08
688.932	-0.08
688.961	-0.08
688.991	0.92
689.02	4.92
689.05	-18.08
689.08	0.92
689.109	3.92
689.139	-0.08
689.168	-5.08
689.198	-2.08
689.227	-7.08
689.257	3.92
689.287	-10.08
689.316	-13.08
689.346	-5.08
689.375	-10.08
689.405	2.92
689.434	-7.08
689.464	4.92
689.493	13.92
689.523	-2.08
689.552	-12.08
689.582	-7.08
689.611	3.92
689.641	-0.08
689.67	-0.08
689.7	16.92
689.73	7.92
689.759	-1.08
689.789	8.92
689.818	0.92
689.848	-4.08
689.877	26.92
689.906	-5.08
689.936	-13.08
689.965	4.92
689.995	-3.08
690.024	-3.08
690.054	8.92
690.083	5.92
690.113	8.92
690.142	0.92
690.172	-11.08
690.201	6.92
690.231	5.92
690.26	2.92
690.29	-2.08
690.319	-10.08
690.348	-8.08
690.378	2.92
690.407	-0.08
690.437	-8.08
690.466	-2.08
690.496	-9.08
690.525	0.92
690.555	-3.08
690.584	-7.08
690.613	-18.08
690.643	4.92
690.672	6.92
690.702	8.92
690.731	-25.08
690.76	-14.08
690.79	-12.08
690.819	-17.08
690.849	-17.08
690.878	1.92
690.907	-1.08
690.937	16.92
690.966	9.92
690.996	12.92
691.025	3.92
691.054	-5.08
691.084	8.92
691.113	-8.08
691.142	4.92
691.172	-0.08
691.201	1.92
691.23	2.92
691.26	7.92
691.289	0.92
691.319	-9.08
691.348	-1.08
691.377	7.92
691.407	-1.08
691.436	16.92
691.465	6.92
691.495	-2.08
691.524	-6.08
691.553	-0.08
691.583	3.92
691.612	7.92
691.641	-10.08
691.67	-10.08
691.7	-9.08
691.729	-10.08
691.758	9.92
691.788	8.92
691.817	5.92
691.846	-1.08
691.876	3.92
691.905	-1.08
691.934	-9.08
691.963	5.92
691.993	12.92
692.022	-11.08
692.051	-23.08
692.081	12.92
692.11	15.92
692.139	-3.08
692.168	-8.08
692.198	1.92
692.227	9.92
692.256	9.92
692.285	-2.08
692.315	-10.08
692.344	-8.08
692.373	-9.08
692.402	-12.08
692.432	-6.08
692.461	3.92
692.49	-1.08
692.519	3.92
692.548	6.92
692.578	7.92
692.607	-8.08
692.636	5.92
692.665	-7.08
692.694	-8.08
692.724	-3.08
692.753	-7.08
692.782	5.92
692.811	-13.08
692.84	1.92
692.87	-2.08
692.899	-2.08
692.928	3.92
692.957	4.92
692.986	9.92
693.016	1.92
693.045	-1.08
693.074	-0.08
693.103	-4.08
693.132	-4.08
693.161	19.92
693.191	5.92
693.22	-10.08
693.249	2.92
693.278	3.92
693.307	4.92
693.336	-17.08
693.365	-24.08
693.395	-6.08
693.424	-10.08
693.453	11.92
693.482	0.92
693.511	11.92
693.54	-7.08
693.569	-7.08
693.598	1.92
693.628	8.92
693.657	-7.08
693.686	3.92
693.715	3.92
693.744	17.92
693.773	13.92
693.802	-4.08
693.831	-16.08
693.86	6.92
693.889	2.92
693.919	-10.08
693.948	-3.08
693.977	-7.08
694.006	6.92
694.035	-7.08
694.064	2.92
694.093	-1.08
694.122	-16.08
694.151	-19.08
694.18	13.92
694.209	32.92
694.238	3.92
694.267	21.92
694.296	6.92
694.325	3.92
694.354	13.92
694.383	-2.08
694.412	-15.08
694.441	-2.08
694.471	-15.08
694.5	-17.08
694.529	20.92
694.558	12.92
694.587	31.92
694.616	-11.08
694.645	-0.08
694.674	13.92
694.703	3.92
694.732	1.92
694.761	4.92
694.79	4.92
694.819	-12.08
694.848	-10.08
694.877	0.92
694.906	21.92
694.935	-2.08
694.963	18.92
694.992	-10.08
695.021	-4.08
695.05	12.92
695.079	-6.08
695.108	-20.08
695.137	15.92
695.166	-6.08
695.195	0.92
695.224	-4.08
695.253	-10.08
695.282	1.92
695.311	17.92
695.34	-1.08
695.369	7.92
695.398	4.92
695.427	20.92
695.456	-7.08
695.485	-3.08
695.513	0.92
695.542	2.92
695.571	-0.08
695.6	22.92
695.629	0.92
695.658	-2.08
695.687	-14.08
695.716	2.92
695.745	11.92
695.774	-12.08
695.802	1.92
695.831	8.92
695.86	-5.08
695.889	0.92
695.918	-2.08
695.947	-14.08
695.976	-13.08
696.005	12.92
696.033	4.92
696.062	20.92
696.091	7.92
696.12	4.92
696.149	20.92
696.178	-5.08
696.207	-5.08
696.235	-13.08
696.264	1.92
696.293	-3.08
696.322	4.92
696.351	7.92
696.38	-4.08
696.408	-12.08
696.437	-1.08
696.466	6.92
696.495	0.92
696.524	12.92
696.553	15.92
696.581	2.92
696.61	-15.08
696.639	0.92
696.668	-11.08
696.697	-12.08
696.725	11.92
696.754	7.92
696.783	-2.08
696.812	-5.08
696.84	9.92
696.869	-0.08
696.898	-7.08
696.927	-19.08
696.956	14.92
696.984	11.92
697.013	-3.08
697.042	-3.08
697.071	0.92
697.099	14.92
697.128	2.92
697.157	3.92
697.186	3.92
697.214	-18.08
697.243	-12.08
697.272	-1.08
697.301	3.92
697.329	6.92
697.358	9.92
697.387	9.92
697.415	9.92
697.444	-5.08
697.473	-1.08
697.502	-17.08
697.53	-9.08
697.559	4.92
697.588	-7.08
697.616	-1.08
697.645	-16.08
697.674	-10.08
697.703	-2.08
697.731	16.92
697.76	0.92
697.789	19.92
697.817	-4.08
697.846	-0.08
697.875	-5.08
697.903	14.92
697.932	11.92
697.961	10.92
697.989	2.92
698.018	-7.08
698.047	6.92
698.075	11.92
698.104	-1.08
698.133	-0.08
698.161	-0.08
698.19	-3.08
698.218	1.92
698.247	-0.08
698.276	-14.08
698.304	13.92
698.333	7.92
698.362	14.92
698.39	2.92
698.419	5.92
698.447	-15.08
698.476	-1.08
698.505	10.92
698.533	-11.08
698.562	-6.08
698.591	-13.08
698.619	-20.08
698.648	-8.08
698.676	17.92
698.705	4.92
698.733	-19.08
698.762	-3.08
698.791	-8.08
698.819	-9.08
698.848	-4.08
698.876	9.92
698.905	-3.08
698.933	-6.08
698.962	3.92
698.991	7.92
699.019	-0.08
699.048	-0.08
699.076	2.92
699.105	-1.08
699.133	-1.08
699.162	18.92
699.19	16.92
699.219	3.92
699.248	4.92
699.276	-8.08
699.305	4.92
699.333	16.92
699.362	3.92
699.39	-3.08
699.419	-8.08
699.447	11.92
699.476	-7.08
699.504	8.92
699.533	-3.08
699.561	-3.08
699.59	0.92
699.618	-13.08
699.647	-0.08
699.675	-3.08
699.704	-1.08
699.732	12.92
699.761	-7.08
699.789	-5.08
699.818	1.92
699.846	-1.08
699.874	-8.08
699.903	-5.08
699.931	-2.08
699.96	-2.08
699.988	-11.08
700.017	-9.08
700.045	-11.08
700.074	7.92
700.102	-9.08
700.13	-11.08
700.159	-0.08
700.187	2.92
700.216	1.92
700.244	-3.08
700.273	-5.08
700.301	16.92
700.329	21.92
700.358	9.92
700.386	-17.08
700.415	-19.08
700.443	2.92
700.472	-11.08
700.5	-7.08
700.528	6.92
700.557	-1.08
700.585	-3.08
700.614	-17.08
700.642	18.92
700.67	14.92
700.699	3.92
700.727	-6.08
700.755	-1.08
700.784	-13.08
700.812	-14.08
700.841	11.92
700.869	4.92
700.897	-16.08
700.926	-11.08
700.954	6.92
700.982	5.92
701.011	-9.08
701.039	4.92
701.067	2.92
701.096	-5.08
701.124	-11.08
701.152	3.92
701.181	8.92
701.209	-13.08
701.237	4.92
701.266	-4.08
701.294	-13.08
701.322	16.92
701.351	15.92
701.379	-7.08
701.407	-14.08
701.435	-3.08
701.464	3.92
701.492	19.92
701.52	-3.08
701.549	2.92
701.577	-16.08
701.605	-10.08
701.634	6.92
701.662	8.92
701.69	-6.08
701.718	-9.08
701.747	-3.08
701.775	4.92
701.803	1.92
701.831	6.92
701.86	-6.08
701.888	13.92
701.916	-1.08
701.944	-1.08
701.973	-13.08
702.001	-12.08
702.029	-3.08
702.057	-14.08
702.086	6.92
702.114	-8.08
702.142	-7.08
702.17	-16.08
702.199	-9.08
702.227	-10.08
702.255	3.92
702.283	-18.08
702.311	15.92
702.34	10.92
702.368	-13.08
702.396	5.92
702.424	-19.08
702.452	-17.08
702.481	-8.08
702.509	-16.08
702.537	-17.08
702.565	8.92
702.593	-26.08
702.621	-10.08
702.65	3.92
702.678	8.92
702.706	2.92
702.734	-17.08
702.762	0.92
702.79	-0.08
702.819	-1.08
702.847	-4.08
702.875	14.92
702.903	-6.08
702.931	-4.08
702.959	-7.08
702.988	-4.08
703.016	-15.08
703.044	-14.08
703.072	-2.08
703.1	-10.08
703.128	-8.08
703.156	3.92
703.184	-6.08
703.212	2.92
703.241	-11.08
703.269	7.92
703.297	-0.08
703.325	10.92
703.353	-23.08
703.381	-12.08
703.409	3.92
703.437	-7.08
703.465	-0.08
703.493	-13.08
703.522	-6.08
703.55	2.92
703.578	26.92
703.606	-11.08
703.634	7.92
703.662	-16.08
703.69	-17.08
703.718	-11.08
703.746	10.92
703.774	-14.08
703.802	-1.08
703.83	-7.08
703.858	-0.08
703.886	-21.08
703.914	-17.08
703.942	-1.08
703.97	-9.08
703.998	-2.08
704.027	2.92
704.055	4.92
704.083	0.92
704.111	-12.08
704.139	-4.08
704.167	-11.08
704.195	1.92
704.223	-20.08
704.251	-3.08
704.279	9.92
704.307	-0.08
704.335	-18.08
704.363	-14.08
704.391	-5.08
704.419	-0.08
704.447	-3.08
704.475	0.92
704.503	-6.08
704.531	-1.08
704.558	-11.08
704.586	-7.08
704.614	-3.08
704.642	-11.08
704.67	-21.08
704.698	-4.08
704.726	3.92
704.754	0.92
704.782	-5.08
704.81	-3.08
704.838	10.92
704.866	-1.08
704.894	-13.08
704.922	-7.08
704.95	0.92
704.978	12.92
705.006	0.92
705.034	4.92
705.061	-22.08
705.089	-3.08
705.117	-12.08
705.145	-8.08
705.173	-14.08
705.201	-9.08
705.229	-11.08
705.257	-2.08
705.285	10.92
705.313	9.92
705.34	-1.08
705.368	-15.08
705.396	-22.08
705.424	3.92
705.452	-11.08
705.48	3.92
705.508	-3.08
705.536	-4.08
705.563	-7.08
705.591	3.92
705.619	-1.08
705.647	-15.08
705.675	8.92
705.703	3.92
705.731	-10.08
705.758	-1.08
705.786	-9.08
705.814	20.92
705.842	10.92
705.87	16.92
705.898	-8.08
705.925	-6.08
705.953	-7.08
705.981	-11.08
706.009	12.92
706.037	1.92
706.065	4.92
706.092	-10.08
706.12	-4.08
706.148	-24.08
706.176	-2.08
706.204	-0.08
706.231	-12.08
706.259	-24.08
706.287	-4.08
706.315	-11.08
706.342	-13.08
706.37	8.92
706.398	-7.08
706.426	3.92
706.454	-5.08
706.481	2.92
706.509	1.92
706.537	-9.08
706.565	-19.08
706.592	1.92
706.62	-19.08
706.648	5.92
706.676	-23.08
706.703	0.92
706.731	-12.08
706.759	-13.08
706.787	-3.08
706.814	8.92
706.842	-12.08
706.87	-16.08
706.897	-2.08
706.925	-1.08
706.953	6.92
706.981	3.92
707.008	19.92
707.036	-15.08
707.064	-14.08
707.091	-22.08
707.119	-6.08
707.147	-1.08
707.174	-18.08
707.202	8.92
707.23	-5.08
707.258	0.92
707.285	-15.08
707.313	3.92
707.341	-22.08
707.368	-5.08
707.396	-12.08
707.424	24.92
707.451	12.92
707.479	-6.08
707.507	-11.08
707.534	-6.08
707.562	-18.08
707.59	-18.08
707.617	-9.08
707.645	-5.08
707.672	7.92
707.7	5.92
707.728	6.92
707.755	-0.08
707.783	-1.08
707.811	-8.08
707.838	-7.08
707.866	-4.08
707.893	-4.08
707.921	-9.08
707.949	-0.08
707.976	9.92
708.004	-8.08
708.031	-12.08
708.059	-10.08
708.087	-7.08
708.114	-14.08
708.142	-15.08
708.169	-11.08
708.197	-15.08
708.225	-11.08
708.252	-3.08
708.28	-10.08
708.307	-5.08
708.335	-11.08
708.362	-15.08
708.39	-29.08
708.418	-5.08
708.445	-11.08
708.473	-11.08
708.5	-17.08
708.528	3.92
708.555	-10.08
708.583	-14.08
708.61	-13.08
708.638	12.92
708.665	1.92
708.693	-14.08
708.72	-10.08
708.748	-24.08
708.776	-3.08
708.803	9.92
708.831	7.92
708.858	9.92
708.886	-4.08
708.913	-10.08
708.941	-8.08
708.968	0.92
708.996	-14.08
709.023	13.92
709.051	-8.08
709.078	-10.08
709.105	-5.08
709.133	-6.08
709.16	4.92
709.188	8.92
709.215	-1.08
709.243	-2.08
709.27	-10.08
709.298	-6.08
709.325	-17.08
709.353	-15.08
709.38	4.92
709.408	-1.08
709.435	4.92
709.462	3.92
709.49	4.92
709.517	-5.08
709.545	-0.08
709.572	-17.08
709.6	-7.08
709.627	-3.08
709.655	-11.08
709.682	-7.08
709.709	-2.08
709.737	-9.08
709.764	-12.08
709.792	-5.08
709.819	8.92
709.846	-3.08
709.874	5.92
709.901	24.92
709.929	15.92
709.956	13.92
709.983	2.92
710.011	-5.08
710.038	-15.08
710.066	-1.08
710.093	7.92
710.12	-12.08
710.148	7.92
710.175	-15.08
710.202	-13.08
710.23	-11.08
710.257	-13.08
710.284	4.92
710.312	13.92
710.339	-8.08
710.366	-12.08
710.394	-10.08
710.421	2.92
710.448	-11.08
710.476	-18.08
710.503	-2.08
710.53	20.92
710.558	15.92
710.585	-5.08
710.612	-13.08
710.64	-12.08
710.667	-2.08
710.694	-19.08
710.722	2.92
710.749	-11.08
710.776	-9.08
710.804	8.92
710.831	-0.08
710.858	-19.08
710.885	-8.08
710.913	-11.08
710.94	0.92
710.967	-15.08
710.995	-18.08
711.022	-9.08
711.049	-1.08
711.076	-23.08
711.104	0.92
711.131	-25.08
711.158	-11.08
711.185	16.92
711.213	-7.08
711.24	-4.08
711.267	-12.08
711.294	-16.08
711.322	3.92
711.349	-8.08
711.376	-5.08
711.403	1.92
711.431	-15.08
711.458	1.92
711.485	5.92
711.512	3.92
711.54	-11.08
711.567	-8.08
711.594	0.92
711.621	7.92
711.648	14.92
711.676	-10.08
711.703	-0.08
711.73	-21.08
711.757	4.92
711.784	-2.08
711.812	-5.08
711.839	-6.08
711.866	-16.08
711.893	-13.08
711.92	7.92
711.947	2.92
711.975	10.92
712.002	-2.08
712.029	-13.08
712.056	-2.08
712.083	-0.08
712.11	-10.08
712.138	-8.08
712.165	12.92
712.192	5.92
712.219	-11.08
712.246	-9.08
712.273	-9.08
712.3	-10.08
712.328	-1.08
712.355	-14.08
712.382	-11.08
712.409	9.92
712.436	-5.08
712.463	5.92
712.49	4.92
712.517	-1.08
712.544	-9.08
712.572	0.92
712.599	-8.08
712.626	-3.08
712.653	-9.08
712.68	-25.08
712.707	10.92
712.734	-0.08
712.761	-12.08
712.788	12.92
712.815	-9.08
712.842	11.92
712.87	-9.08
712.897	-12.08
712.924	-11.08
712.951	-9.08
712.978	7.92
713.005	13.92
713.032	8.92
713.059	9.92
713.086	-3.08
713.113	-8.08
713.14	-14.08
713.167	5.92
713.194	7.92
713.221	-17.08
713.248	0.92
713.275	-11.08
713.302	-8.08
713.329	2.92
713.356	-10.08
713.383	1.92
713.41	8.92
713.437	-17.08
713.464	-8.08
713.491	11.92
713.518	-15.08
713.545	-13.08
713.572	-0.08
713.599	9.92
713.626	-19.08
713.653	1.92
713.68	3.92
713.707	0.92
713.734	7.92
713.761	-5.08
713.788	-23.08
713.815	-6.08
713.842	-11.08
713.869	-3.08
713.896	-0.08
713.923	-2.08
713.95	-20.08
713.977	-27.08
714.004	4.92
714.031	-1.08
714.058	-3.08
714.085	3.92
714.112	8.92
714.139	-0.08
714.165	-10.08
714.192	-11.08
714.219	9.92
714.246	9.92
714.273	0.92
714.3	-10.08
714.327	-7.08
714.354	0.92
714.381	-4.08
714.408	-6.08
714.435	-3.08
714.461	12.92
714.488	11.92
714.515	-20.08
714.542	-13.08
714.569	-14.08
714.596	-23.08
714.623	-15.08
714.65	-8.08
714.677	-3.08
714.703	-9.08
714.73	-4.08
714.757	-0.08
714.784	4.92
714.811	-5.08
714.838	11.92
714.865	-16.08
714.891	8.92
714.918	-7.08
714.945	-8.08
714.972	4.92
714.999	-6.08
715.026	-2.08
715.052	27.92
715.079	-1.08
715.106	-1.08
715.133	0.92
715.16	-7.08
715.187	0.92
715.213	-1.08
715.24	-25.08
715.267	0.92
715.294	-3.08
715.321	-4.08
715.347	1.92
715.374	-12.08
715.401	-5.08
715.428	-12.08
715.455	-8.08
715.481	-14.08
715.508	-1.08
715.535	-10.08
715.562	11.92
715.588	-0.08
715.615	-7.08
715.642	-9.08
715.669	-11.08
715.695	-16.08
715.722	-17.08
715.749	14.92
715.776	6.92
715.802	-0.08
715.829	1.92
715.856	-16.08
715.883	13.92
715.909	-19.08
715.936	2.92
715.963	14.92
715.99	-5.08
716.016	-13.08
716.043	-9.08
716.07	-15.08
716.096	-4.08
716.123	-15.08
716.15	8.92
716.177	9.92
716.203	4.92
716.23	10.92
716.257	-8.08
716.283	3.92
716.31	-4.08
716.337	-7.08
716.363	-24.08
716.39	-2.08
716.417	-1.08
716.443	9.92
716.47	6.92
716.497	6.92
716.523	2.92
716.55	8.92
716.577	2.92
716.603	-9.08
716.63	-4.08
716.657	-0.08
716.683	-10.08
716.71	-13.08
716.737	-4.08
716.763	11.92
716.79	-5.08
716.817	12.92
716.843	6.92
716.87	-8.08
716.897	9.92
716.923	14.92
716.95	-9.08
716.976	-15.08
717.003	-10.08
717.03	-1.08
717.056	6.92
717.083	-12.08
717.109	2.92
717.136	-8.08
717.163	-11.08
717.189	2.92
717.216	2.92
717.242	0.92
717.269	17.92
717.296	-6.08
717.322	5.92
717.349	6.92
717.375	2.92
717.402	-5.08
717.428	3.92
717.455	3.92
717.481	-1.08
717.508	18.92
717.535	-4.08
717.561	6.92
717.588	-7.08
717.614	-14.08
717.641	-4.08
717.667	5.92
717.694	-5.08
717.72	-17.08
717.747	-2.08
717.773	-12.08
717.8	2.92
717.826	-0.08
717.853	4.92
717.88	-1.08
717.906	-1.08
717.933	4.92
717.959	-2.08
717.986	7.92
718.012	-6.08
718.039	21.92
718.065	0.92
718.092	3.92
718.118	-5.08
718.144	-5.08
718.171	24.92
718.197	13.92
718.224	2.92
718.25	-2.08
718.277	-13.08
718.303	-7.08
718.33	-8.08
718.356	-13.08
718.383	-23.08
718.409	-16.08
718.436	-6.08
718.462	-18.08
718.489	-21.08
718.515	-1.08
718.541	12.92
718.568	-1.08
718.594	6.92
718.621	-5.08
718.647	-2.08
718.674	6.92
718.7	5.92
718.726	1.92
718.753	7.92
718.779	10.92
718.806	0.92
718.832	0.92
718.858	1.92
718.885	-4.08
718.911	-6.08
718.938	2.92
718.964	-20.08
718.99	-15.08
719.017	0.92
719.043	1.92
719.07	5.92
719.096	-9.08
719.122	-1.08
719.149	-10.08
719.175	-3.08
719.201	5.92
719.228	6.92
719.254	-9.08
719.281	-23.08
719.307	-15.08
719.333	-4.08
719.36	4.92
719.386	-12.08
719.412	6.92
719.439	-14.08
719.465	0.92
719.491	-14.08
719.518	-1.08
719.544	-0.08
719.57	7.92
719.597	2.92
719.623	-6.08
719.649	2.92
719.675	-0.08
719.702	2.92
719.728	-1.08
719.754	-12.08
719.781	-10.08
719.807	-2.08
719.833	-20.08
719.86	2.92
719.886	-0.08
719.912	2.92
719.938	-7.08
719.965	-9.08
719.991	0.92
720.017	-15.08
720.044	-25.08
720.07	-16.08
720.096	1.92
720.122	-10.08
720.149	2.92
720.175	15.92
720.201	-5.08
720.227	-15.08
720.254	-19.08
720.28	8.92
720.306	-5.08
720.332	-0.08
720.359	-6.08
720.385	0.92
720.411	3.92
720.437	-2.08
720.463	-7.08
720.49	4.92
720.516	-14.08
720.542	-17.08
720.568	-3.08
720.595	0.92
720.621	-8.08
720.647	2.92
720.673	9.92
720.699	1.92
720.725	-4.08
720.752	-15.08
720.778	1.92
720.804	-0.08
720.83	-5.08
720.856	-16.08
720.883	-20.08
720.909	-0.08
720.935	11.92
720.961	12.92
720.987	-4.08
721.013	-0.08
721.04	1.92
721.066	-0.08
721.092	-1.08
721.118	6.92
721.144	-3.08
721.17	-3.08
721.196	-9.08
721.223	-22.08
721.249	5.92
721.275	13.92
721.301	-4.08
721.327	11.92
721.353	11.92
721.379	-0.08
721.405	-1.08
721.432	-8.08
721.458	-12.08
721.484	9.92
721.51	-12.08
721.536	1.92
721.562	-7.08
721.588	-23.08
721.614	-14.08
721.64	-15.08
721.666	-9.08
721.693	-1.08
721.719	-15.08
721.745	-18.08
721.771	-3.08
721.797	-0.08
721.823	-1.08
721.849	14.92
721.875	-3.08
721.901	5.92
721.927	-7.08
721.953	-8.08
721.979	16.92
722.005	-0.08
722.031	-30.08
722.057	-11.08
722.083	-17.08
722.109	-5.08
722.135	-1.08
722.161	8.92
722.187	-3.08
722.214	-14.08
722.24	-13.08
722.266	-14.08
722.292	2.92
722.318	11.92
722.344	-0.08
722.37	-0.08
722.396	13.92
722.422	11.92
722.448	-6.08
722.474	-8.08
722.5	-6.08
722.526	-1.08
722.552	-11.08
722.578	-2.08
722.603	12.92
722.629	-12.08
722.655	-8.08
722.681	-5.08
722.707	-4.08
722.733	-6.08
722.759	-12.08
722.785	8.92
722.811	8.92
722.837	-5.08
722.863	3.92
722.889	0.92
722.915	-12.08
722.941	2.92
722.967	-2.08
722.993	10.92
723.019	-7.08
723.045	-8.08
723.071	-3.08
723.097	5.92
723.122	-8.08
723.148	-12.08
723.174	-7.08
723.2	4.92
723.226	-0.08
723.252	-5.08
723.278	-11.08
723.304	-7.08
723.33	-8.08
723.356	-3.08
723.381	-8.08
723.407	-7.08
723.433	7.92
723.459	0.92
723.485	-7.08
723.511	0.92
723.537	-9.08
723.563	0.92
723.588	-4.08
723.614	14.92
723.64	-1.08
723.666	2.92
723.692	8.92
723.718	-4.08
723.744	-14.08
723.769	-12.08
723.795	2.92
723.821	-0.08
723.847	-11.08
723.873	-4.08
723.899	16.92
723.924	-16.08
723.95	-8.08
723.976	-5.08
724.002	-7.08
724.028	6.92
724.053	-7.08
724.079	-2.08
724.105	2.92
724.131	-9.08
724.157	-4.08
724.182	-4.08
724.208	-3.08
724.234	-7.08
724.26	-14.08
724.286	5.92
724.311	-9.08
724.337	0.92
724.363	-9.08
724.389	-2.08
724.415	-4.08
724.44	2.92
724.466	-13.08
724.492	-0.08
724.518	-10.08
724.543	-0.08
724.569	4.92
724.595	0.92
724.621	-4.08
724.646	-3.08
724.672	-8.08
724.698	-13.08
724.723	-13.08
724.749	-7.08
724.775	-7.08
724.801	-5.08
724.826	-11.08
724.852	-9.08
724.878	-0.08
724.904	-29.08
724.929	-10.08
724.955	-21.08
724.981	-3.08
725.006	-9.08
725.032	-14.08
725.058	12.92
725.083	3.92
725.109	2.92
725.135	-4.08
725.161	-4.08
725.186	-14.08
725.212	-8.08
725.238	3.92
725.263	-14.08
725.289	-19.08
725.315	-17.08
725.34	-8.08
725.366	4.92
725.392	-6.08
725.417	-1.08
725.443	-2.08
725.468	12.92
725.494	3.92
725.52	-1.08
725.545	6.92
725.571	13.92
725.597	-2.08
725.622	2.92
725.648	-10.08
725.674	5.92
725.699	13.92
725.725	2.92
725.75	11.92
725.776	-1.08
725.802	-5.08
725.827	6.92
725.853	-3.08
725.878	-7.08
725.904	4.92
725.93	-0.08
725.955	-13.08
725.981	-11.08
726.006	-9.08
726.032	8.92
726.057	-0.08
726.083	-5.08
726.109	-12.08
726.134	2.92
726.16	-6.08
726.185	-11.08
726.211	-8.08
726.236	-4.08
726.262	3.92
726.288	-9.08
726.313	7.92
726.339	-5.08
726.364	-3.08
726.39	5.92
726.415	-9.08
726.441	-13.08
726.466	-19.08
726.492	-11.08
726.517	9.92
726.543	-9.08
726.568	-19.08
726.594	-10.08
726.619	-13.08
726.645	6.92
726.67	10.92
726.696	-5.08
726.721	-18.08
726.747	-13.08
726.772	-12.08
726.798	1.92
726.823	-9.08
726.849	-13.08
726.874	-14.08
726.9	3.92
726.925	3.92
726.951	-3.08
726.976	3.92
727.002	-1.08
727.027	5.92
727.053	21.92
727.078	7.92
727.104	-4.08
727.129	0.92
727.155	-0.08
727.18	0.92
727.205	-3.08
727.231	-4.08
727.256	-1.08
727.282	-2.08
727.307	-11.08
727.333	-11.08
727.358	0.92
727.383	-16.08
727.409	-12.08
727.434	-16.08
727.46	-21.08
727.485	-18.08
727.511	-7.08
727.536	-8.08
727.561	10.92
727.587	-4.08
727.612	1.92
727.637	-5.08
727.663	0.92
727.688	12.92
727.714	-8.08
727.739	-0.08
727.764	-19.08
727.79	1.92
727.815	2.92
727.841	11.92
727.866	7.92
727.891	-16.08
727.917	-20.08
727.942	-13.08
727.967	2.92
727.993	-11.08
728.018	1.92
728.043	-8.08
728.069	-2.08
728.094	-3.08
728.119	-4.08
728.145	1.92
728.17	6.92
728.195	-11.08
728.221	-3.08
728.246	-4.08
728.271	-18.08
728.297	-2.08
728.322	-9.08
728.347	-11.08
728.373	-5.08
728.398	-1.08
728.423	-3.08
728.448	-14.08
728.474	-6.08
728.499	-1.08
728.524	-9.08
728.55	-8.08
728.575	-5.08
728.6	-15.08
728.625	2.92
728.651	-3.08
728.676	-8.08
728.701	-21.08
728.727	-16.08
728.752	-16.08
728.777	-11.08
728.802	-8.08
728.828	-5.08
728.853	-3.08
728.878	-11.08
728.903	-9.08
728.929	-11.08
728.954	0.92
728.979	9.92
729.004	-6.08
729.03	-5.08
729.055	-4.08
729.08	-27.08
729.105	-24.08
729.13	-8.08
729.156	4.92
729.181	-0.08
729.206	-31.08
729.231	-5.08
729.256	-7.08
729.282	2.92
729.307	-19.08
729.332	-11.08
729.357	-15.08
729.382	-7.08
729.408	2.92
729.433	-6.08
729.458	-7.08
729.483	3.92
729.508	10.92
729.533	-0.08
729.559	-0.08
729.584	-8.08
729.609	4.92
729.634	10.92
729.659	-16.08
729.684	-28.08
729.71	6.92
729.735	9.92
729.76	8.92
729.785	-9.08
729.81	0.92
729.835	5.92
729.86	-9.08
729.886	-5.08
729.911	-0.08
729.936	5.92
729.961	7.92
729.986	-14.08
730.011	-5.08
730.036	10.92
730.061	-1.08
730.086	-0.08
730.112	-12.08
730.137	-3.08
730.162	-11.08
730.187	-16.08
730.212	-0.08
730.237	-20.08
730.262	-1.08
730.287	-14.08
730.312	9.92
730.337	-11.08
730.362	14.92
730.387	-3.08
730.413	-27.08
730.438	-9.08
730.463	-5.08
730.488	-8.08
730.513	-11.08
730.538	5.92
730.563	7.92
730.588	15.92
730.613	1.92
730.638	-9.08
730.663	-7.08
730.688	6.92
730.713	-15.08
730.738	-12.08
730.763	-5.08
730.788	-8.08
730.813	-1.08
730.838	-12.08
730.863	-10.08
730.888	-15.08
730.913	-15.08
730.938	-17.08
730.963	-6.08
730.988	12.92
731.013	-6.08
731.038	-5.08
731.063	-14.08
731.088	-7.08
731.113	-12.08
731.138	-0.08
731.163	-19.08
731.188	-7.08
731.213	1.92
731.238	11.92
731.263	0.92
731.288	-4.08
731.313	-4.08
731.338	9.92
731.363	-17.08
731.388	-10.08
731.413	-13.08
731.438	3.92
731.463	0.92
731.487	8.92
731.512	-15.08
731.537	-0.08
731.562	-3.08
731.587	-6.08
731.612	-21.08
731.637	-6.08
731.662	-1.08
731.687	-5.08
731.712	-21.08
731.737	1.92
731.762	-2.08
731.786	1.92
731.811	-2.08
731.836	7.92
731.861	-11.08
731.886	-1.08
731.911	-2.08
731.936	-4.08
731.961	-1.08
731.986	2.92
732.01	-7.08
732.035	0.92
732.06	12.92
732.085	-4.08
732.11	-4.08
732.135	-13.08
732.16	2.92
732.184	-2.08
732.209	-2.08
732.234	-3.08
732.259	-8.08
732.284	-1.08
732.309	-9.08
732.334	-8.08
732.358	-12.08
732.383	-16.08
732.408	-6.08
732.433	-4.08
732.458	-5.08
732.482	-5.08
732.507	6.92
732.532	3.92
732.557	18.92
732.582	-0.08
732.607	-11.08
732.631	-28.08
732.656	-19.08
732.681	-16.08
732.706	-14.08
732.73	5.92
732.755	-4.08
732.78	-12.08
732.805	-9.08
732.83	-2.08
732.854	8.92
732.879	22.92
732.904	-16.08
732.929	3.92
732.953	8.92
732.978	6.92
733.003	-12.08
733.028	-6.08
733.052	-2.08
733.077	6.92
733.102	-0.08
733.127	3.92
733.151	0.92
733.176	1.92
733.201	-15.08
733.226	-8.08
733.25	11.92
733.275	1.92
733.3	-14.08
733.324	13.92
733.349	16.92
733.374	8.92
733.399	-0.08
733.423	-6.08
733.448	-11.08
733.473	-15.08
733.497	-8.08
733.522	-12.08
733.547	13.92
733.571	21.92
733.596	13.92
733.621	4.92
733.646	2.92
733.67	2.92
733.695	4.92
733.72	8.92
733.744	2.92
733.769	-2.08
733.794	0.92
733.818	-1.08
733.843	-11.08
733.867	-6.08
733.892	2.92
733.917	-4.08
733.941	-9.08
733.966	-10.08
733.991	-3.08
734.015	0.92
734.04	0.92
734.065	8.92
734.089	12.92
734.114	-14.08
734.138	-4.08
734.163	-3.08
734.188	-11.08
734.212	5.92
734.237	3.92
734.261	-5.08
734.286	5.92
734.311	-2.08
734.335	-4.08
734.36	-15.08
734.384	-9.08
734.409	0.92
734.434	-4.08
734.458	-10.08
734.483	-14.08
734.507	-29.08
734.532	-10.08
734.556	-16.08
734.581	-5.08
734.606	-2.08
734.63	-6.08
734.655	-8.08
734.679	-12.08
734.704	-15.08
734.728	-4.08
734.753	9.92
734.777	7.92
734.802	-4.08
734.826	-2.08
734.851	-2.08
734.876	6.92
734.9	-6.08
734.925	-0.08
734.949	-9.08
734.974	-2.08
734.998	3.92
735.023	-7.08
735.047	1.92
735.072	11.92
735.096	-3.08
735.121	-7.08
735.145	7.92
735.17	-1.08
735.194	-11.08
735.219	-11.08
735.243	-8.08
735.268	0.92
735.292	8.92
735.317	-0.08
735.341	-1.08
735.365	-11.08
735.39	11.92
735.414	0.92
735.439	5.92
735.463	-6.08
735.488	10.92
735.512	8.92
735.537	-7.08
735.561	3.92
735.586	0.92
735.61	5.92
735.634	2.92
735.659	15.92
735.683	23.92
735.708	-9.08
735.732	-10.08
735.757	2.92
735.781	9.92
735.805	0.92
735.83	-10.08
735.854	-19.08
735.879	6.92
735.903	8.92
735.927	-0.08
735.952	12.92
735.976	-4.08
736.001	-10.08
736.025	2.92
736.049	4.92
736.074	4.92
736.098	6.92
736.123	1.92
736.147	-13.08
736.171	-0.08
736.196	16.92
736.22	-15.08
736.244	7.92
736.269	-2.08
736.293	-1.08
736.317	12.92
736.342	10.92
736.366	8.92
736.39	2.92
736.415	-6.08
736.439	-2.08
736.463	-8.08
736.488	4.92
736.512	-3.08
736.536	-1.08
736.561	-4.08
736.585	-10.08
736.609	-11.08
736.634	-18.08
736.658	-11.08
736.682	-7.08
736.707	-8.08
736.731	-2.08
736.755	-9.08
736.78	3.92
736.804	10.92
736.828	5.92
736.852	-10.08
736.877	2.92
736.901	12.92
736.925	-11.08
736.949	-5.08
736.974	3.92
736.998	-15.08
737.022	-0.08
737.047	-4.08
737.071	-0.08
737.095	10.92
737.119	17.92
737.144	6.92
737.168	-2.08
737.192	-8.08
737.216	-3.08
737.241	-8.08
737.265	-13.08
737.289	-6.08
737.313	-2.08
737.337	-2.08
737.362	-10.08
737.386	-4.08
737.41	-5.08
737.434	16.92
737.459	13.92
737.483	8.92
737.507	-6.08
737.531	3.92
737.555	-6.08
737.58	-0.08
737.604	-8.08
737.628	-23.08
737.652	-17.08
737.676	-6.08
737.701	7.92
737.725	-2.08
737.749	7.92
737.773	-5.08
737.797	-21.08
737.821	-7.08
737.846	-4.08
737.87	15.92
737.894	-0.08
737.918	-2.08
737.942	11.92
737.966	22.92
737.99	-9.08
738.015	2.92
738.039	-6.08
738.063	-15.08
738.087	-0.08
738.111	-9.08
738.135	28.92
738.159	-11.08
738.184	-7.08
738.208	-4.08
738.232	-15.08
738.256	13.92
738.28	0.92
738.304	19.92
738.328	-0.08
738.352	9.92
738.376	6.92
738.4	-3.08
738.425	-14.08
738.449	-7.08
738.473	5.92
738.497	1.92
738.521	-4.08
738.545	5.92
738.569	2.92
738.593	13.92
738.617	2.92
738.641	-8.08
738.665	-5.08
738.689	-0.08
738.713	-8.08
738.737	-4.08
738.762	6.92
738.786	-3.08
738.81	-8.08
738.834	12.92
738.858	-11.08
738.882	10.92
738.906	-4.08
738.93	10.92
738.954	18.92
738.978	-7.08
739.002	-12.08
739.026	32.92
739.05	-0.08
739.074	2.92
739.098	14.92
739.122	19.92
739.146	1.92
739.17	13.92
739.194	8.92
739.218	-14.08
739.242	-12.08
739.266	-13.08
739.29	-8.08
739.314	-7.08
739.338	0.92
739.362	-9.08
739.386	9.92
739.41	-6.08
739.434	-9.08
739.458	7.92
739.482	-6.08
739.506	7.92
739.53	2.92
739.554	7.92
739.577	-13.08
739.601	3.92
739.625	-1.08
739.649	8.92
739.673	-16.08
739.697	2.92
739.721	1.92
739.745	0.92
739.769	2.92
739.793	5.92
739.817	1.92
739.841	-18.08
739.865	-8.08
739.889	-24.08
739.912	12.92
739.936	-8.08
739.96	0.92
739.984	14.92
740.008	4.92
740.032	2.92
740.056	-19.08
740.08	-13.08
740.104	-9.08
740.127	12.92
740.151	-0.08
740.175	7.92
740.199	16.92
740.223	47.92
740.247	-0.08
740.271	3.92
740.295	-9.08
740.318	-16.08
740.342	-13.08
740.366	-3.08
740.39	8.92
740.414	-10.08
740.438	-4.08
740.461	10.92
740.485	0.92
740.509	-12.08
740.533	-10.08
740.557	-8.08
740.581	-4.08
740.604	-15.08
740.628	-9.08
740.652	10.92
740.676	1.92
740.7	9.92
740.723	-12.08
740.747	-24.08
740.771	-1.08
740.795	-15.08
740.819	12.92
740.842	4.92
740.866	22.92
740.89	2.92
740.914	-2.08
740.938	-13.08
740.961	11.92
740.985	7.92
741.009	8.92
741.033	7.92
741.056	4.92
741.08	-10.08
741.104	-9.08
741.128	-1.08
741.151	6.92
741.175	2.92
741.199	-2.08
741.223	9.92
741.246	-9.08
741.27	-4.08
741.294	-3.08
741.318	-9.08
741.341	7.92
741.365	4.92
741.389	-4.08
741.413	6.92
741.436	7.92
741.46	7.92
741.484	12.92
741.507	3.92
741.531	18.92
741.555	6.92
741.579	-5.08
741.602	-0.08
741.626	13.92
741.65	0.92
741.673	9.92
741.697	-16.08
741.721	-11.08
741.744	-16.08
741.768	-14.08
741.792	-14.08
741.815	-12.08
741.839	14.92
741.863	11.92
741.886	-0.08
741.91	-4.08
741.934	-9.08
741.957	-21.08
741.981	4.92
742.005	4.92
742.028	-11.08
742.052	-15.08
742.075	3.92
742.099	13.92
742.123	-5.08
742.146	-0.08
742.17	4.92
742.194	-11.08
742.217	-9.08
742.241	-5.08
742.264	-4.08
742.288	9.92
742.312	4.92
742.335	-15.08
742.359	12.92
742.382	1.92
742.406	9.92
742.43	-13.08
742.453	10.92
742.477	-20.08
742.5	11.92
742.524	-8.08
742.548	-7.08
742.571	-5.08
742.595	-19.08
742.618	-25.08
742.642	-18.08
742.665	8.92
742.689	-11.08
742.712	-1.08
742.736	-10.08
742.76	2.92
742.783	7.92
742.807	5.92
742.83	5.92
742.854	-11.08
742.877	-12.08
742.901	-0.08
742.924	-6.08
742.948	1.92
742.971	4.92
742.995	-7.08
743.018	-29.08
743.042	-21.08
743.065	-14.08
743.089	-10.08
743.112	7.92
743.136	-8.08
743.159	-10.08
743.183	-3.08
743.206	-2.08
743.23	-7.08
743.253	-5.08
743.277	0.92
743.3	-17.08
743.324	-8.08
743.347	-14.08
743.371	18.92
743.394	5.92
743.418	14.92
743.441	8.92
743.465	13.92
743.488	-1.08
743.512	-11.08
743.535	-4.08
743.558	-13.08
743.582	-13.08
743.605	0.92
743.629	0.92
743.652	-1.08
743.676	6.92
743.699	23.92
743.723	7.92
743.746	6.92
743.769	-7.08
743.793	-8.08
743.816	-11.08
743.84	-7.08
743.863	-8.08
743.886	-3.08
743.91	14.92
743.933	2.92
743.957	-10.08
743.98	13.92
744.003	3.92
744.027	-1.08
744.05	2.92
744.074	-0.08
744.097	-11.08
744.12	8.92
744.144	2.92
744.167	7.92
744.19	-5.08
744.214	-16.08
744.237	-8.08
744.26	11.92
744.284	4.92
744.307	-16.08
744.331	-5.08
744.354	-8.08
744.377	-5.08
744.401	-15.08
744.424	-11.08
744.447	-12.08
744.471	-7.08
