Data from HighRes_H2_15_09_11_07_2024_HR4C61891__147__15-11-11-101.txt Node

Date: Thu Nov 07 15:11:11 EST 2024
User: crc00042
Spectrometer: HR4C6189
Trigger mode: 4
Integration Time (sec): 1.000000E-1
Scans to average: 1
Electric dark correction enabled: true
Nonlinearity correction enabled: false
Boxcar width: 0
XAxis mode: Wavelengths
Number of Pixels in Spectrum: 3648
>>>>>Begin Spectral Data<<<<<
639.567	-48.31
639.602	-48.31
639.636	-48.31
639.67	-28.31
639.704	-12.31
639.738	-5.31
639.773	16.69
639.807	-21.31
639.841	0.69
639.875	9.69
639.909	-0.31
639.943	-16.31
639.978	-2.31
640.012	6.69
640.046	11.69
640.08	5.69
640.114	13.69
640.148	-19.31
640.182	-0.31
640.217	-1.31
640.251	19.69
640.285	9.69
640.319	-3.31
640.353	12.69
640.387	14.69
640.421	1.69
640.455	-1.31
640.49	3.69
640.524	13.69
640.558	16.69
640.592	-4.31
640.626	13.69
640.66	14.69
640.694	-12.31
640.728	18.69
640.762	25.69
640.796	22.69
640.83	8.69
640.865	6.69
640.899	4.69
640.933	2.69
640.967	7.69
641.001	16.69
641.035	9.69
641.069	-12.31
641.103	-4.31
641.137	3.69
641.171	-11.31
641.205	8.69
641.239	8.69
641.273	14.69
641.307	4.69
641.341	1.69
641.375	18.69
641.409	-0.31
641.443	5.69
641.477	2.69
641.511	-4.31
641.545	10.69
641.579	1.69
641.614	13.69
641.648	4.69
641.682	7.69
641.716	15.69
641.75	27.69
641.784	3.69
641.818	10.69
641.852	2.69
641.886	-3.31
641.919	15.69
641.953	4.69
641.987	3.69
642.021	-0.31
642.055	1.69
642.089	20.69
642.123	-4.31
642.157	-4.31
642.191	-1.31
642.225	9.69
642.259	20.69
642.293	12.69
642.327	11.69
642.361	0.69
642.395	14.69
642.429	30.69
642.463	18.69
642.497	22.69
642.531	7.69
642.565	21.69
642.599	25.69
642.633	-5.31
642.666	5.69
642.7	22.69
642.734	7.69
642.768	4.69
642.802	-3.31
642.836	11.69
642.87	19.69
642.904	15.69
642.938	6.69
642.972	5.69
643.005	6.69
643.039	21.69
643.073	4.69
643.107	24.69
643.141	10.69
643.175	3.69
643.209	10.69
643.243	1.69
643.276	-1.31
643.31	-9.31
643.344	-8.31
643.378	5.69
643.412	11.69
643.446	4.69
643.48	4.69
643.513	22.69
643.547	9.69
643.581	3.69
643.615	25.69
643.649	-5.31
643.683	0.69
643.716	9.69
643.75	22.69
643.784	-0.31
643.818	4.69
643.852	11.69
643.886	-2.31
643.919	4.69
643.953	6.69
643.987	6.69
644.021	13.69
644.055	11.69
644.088	24.69
644.122	3.69
644.156	17.69
644.19	11.69
644.224	16.69
644.257	4.69
644.291	9.69
644.325	3.69
644.359	6.69
644.392	17.69
644.426	17.69
644.46	18.69
644.494	18.69
644.527	2.69
644.561	3.69
644.595	-6.31
644.629	5.69
644.662	8.69
644.696	9.69
644.73	8.69
644.764	19.69
644.797	11.69
644.831	17.69
644.865	22.69
644.899	4.69
644.932	18.69
644.966	8.69
645	19.69
645.033	16.69
645.067	18.69
645.101	24.69
645.135	19.69
645.168	17.69
645.202	6.69
645.236	10.69
645.269	11.69
645.303	0.69
645.337	-7.31
645.37	8.69
645.404	-2.31
645.438	0.69
645.471	-0.31
645.505	9.69
645.539	9.69
645.572	-9.31
645.606	-2.31
645.64	7.69
645.673	17.69
645.707	9.69
645.741	-3.31
645.774	-6.31
645.808	9.69
645.842	3.69
645.875	21.69
645.909	9.69
645.943	1.69
645.976	18.69
646.01	20.69
646.043	29.69
646.077	23.69
646.111	17.69
646.144	8.69
646.178	11.69
646.212	-11.31
646.245	-5.31
646.279	1.69
646.312	9.69
646.346	13.69
646.38	-3.31
646.413	17.69
646.447	2.69
646.48	1.69
646.514	8.69
646.547	-19.31
646.581	-2.31
646.615	0.69
646.648	-10.31
646.682	-1.31
646.715	-2.31
646.749	3.69
646.782	-21.31
646.816	3.69
646.85	2.69
646.883	-6.31
646.917	6.69
646.95	12.69
646.984	15.69
647.017	0.69
647.051	10.69
647.084	9.69
647.118	11.69
647.151	12.69
647.185	14.69
647.218	8.69
647.252	19.69
647.285	-8.31
647.319	-38.31
647.353	-7.31
647.386	8.69
647.42	-16.31
647.453	5.69
647.487	7.69
647.52	18.69
647.553	19.69
647.587	9.69
647.62	8.69
647.654	8.69
647.687	6.69
647.721	13.69
647.754	18.69
647.788	0.69
647.821	-1.31
647.855	4.69
647.888	13.69
647.922	31.69
647.955	3.69
647.989	-0.31
648.022	10.69
648.055	15.69
648.089	10.69
648.122	38.69
648.156	0.69
648.189	11.69
648.223	2.69
648.256	39.69
648.29	19.69
648.323	14.69
648.356	10.69
648.39	-1.31
648.423	8.69
648.457	4.69
648.49	14.69
648.523	11.69
648.557	6.69
648.59	-3.31
648.624	-0.31
648.657	-0.31
648.69	10.69
648.724	13.69
648.757	32.69
648.791	1.69
648.824	19.69
648.857	23.69
648.891	10.69
648.924	-0.31
648.957	35.69
648.991	0.69
649.024	19.69
649.057	-8.31
649.091	-2.31
649.124	12.69
649.158	16.69
649.191	18.69
649.224	4.69
649.258	3.69
649.291	25.69
649.324	10.69
649.358	-9.31
649.391	12.69
649.424	11.69
649.458	7.69
649.491	-5.31
649.524	-13.31
649.557	-1.31
649.591	-17.31
649.624	10.69
649.657	-16.31
649.691	9.69
649.724	0.69
649.757	-5.31
649.791	-0.31
649.824	24.69
649.857	22.69
649.89	7.69
649.924	-0.31
649.957	28.69
649.99	0.69
650.023	12.69
650.057	3.69
650.09	11.69
650.123	14.69
650.157	28.69
650.19	36.69
650.223	-1.31
650.256	-2.31
650.29	5.69
650.323	8.69
650.356	4.69
650.389	-4.31
650.423	-17.31
650.456	12.69
650.489	7.69
650.522	1.69
650.555	10.69
650.589	16.69
650.622	9.69
650.655	26.69
650.688	5.69
650.721	16.69
650.755	19.69
650.788	-5.31
650.821	-1.31
650.854	16.69
650.887	18.69
650.921	12.69
650.954	2.69
650.987	2.69
651.02	-7.31
651.053	-6.31
651.087	-2.31
651.12	16.69
651.153	22.69
651.186	-1.31
651.219	-8.31
651.252	10.69
651.286	15.69
651.319	10.69
651.352	4.69
651.385	4.69
651.418	7.69
651.451	37.69
651.484	9.69
651.518	-17.31
651.551	30.69
651.584	2.69
651.617	10.69
651.65	21.69
651.683	21.69
651.716	1.69
651.749	-4.31
651.783	4.69
651.816	10.69
651.849	0.69
651.882	8.69
651.915	-8.31
651.948	7.69
651.981	-1.31
652.014	-5.31
652.047	-11.31
652.08	-21.31
652.114	4.69
652.147	10.69
652.18	9.69
652.213	32.69
652.246	5.69
652.279	-1.31
652.312	28.69
652.345	4.69
652.378	16.69
652.411	30.69
652.444	9.69
652.477	6.69
652.51	4.69
652.543	4.69
652.576	6.69
652.609	-3.31
652.642	8.69
652.675	15.69
652.709	11.69
652.742	10.69
652.775	7.69
652.808	26.69
652.841	6.69
652.874	18.69
652.907	9.69
652.94	-2.31
652.973	-23.31
653.006	-5.31
653.039	14.69
653.072	2.69
653.105	8.69
653.138	-18.31
653.171	-10.31
653.204	1.69
653.237	16.69
653.27	-4.31
653.303	8.69
653.336	11.69
653.368	10.69
653.401	13.69
653.434	2.69
653.467	12.69
653.5	-1.31
653.533	-5.31
653.566	2.69
653.599	-2.31
653.632	6.69
653.665	12.69
653.698	-8.31
653.731	7.69
653.764	20.69
653.797	20.69
653.83	13.69
653.863	7.69
653.896	6.69
653.929	11.69
653.961	-0.31
653.994	-7.31
654.027	-5.31
654.06	14.69
654.093	10.69
654.126	15.69
654.159	-2.31
654.192	12.69
654.225	17.69
654.258	0.69
654.29	-10.31
654.323	3.69
654.356	-8.31
654.389	12.69
654.422	17.69
654.455	8.69
654.488	-8.31
654.521	-11.31
654.553	12.69
654.586	10.69
654.619	19.69
654.652	9.69
654.685	13.69
654.718	27.69
654.751	11.69
654.783	17.69
654.816	19.69
654.849	7.69
654.882	3.69
654.915	8.69
654.948	7.69
654.98	-9.31
655.013	8.69
655.046	8.69
655.079	-12.31
655.112	6.69
655.144	-3.31
655.177	11.69
655.21	11.69
655.243	27.69
655.276	14.69
655.308	11.69
655.341	13.69
655.374	17.69
655.407	7.69
655.44	10.69
655.472	21.69
655.505	31.69
655.538	12.69
655.571	22.69
655.603	17.69
655.636	14.69
655.669	25.69
655.702	14.69
655.734	7.69
655.767	-3.31
655.8	8.69
655.833	24.69
655.865	25.69
655.898	40.69
655.931	34.69
655.964	37.69
655.996	61.69
656.029	68.69
656.062	71.69
656.095	73.69
656.127	66.69
656.16	114.69
656.193	149.69
656.225	179.69
656.258	297.69
656.291	518.69
656.324	1126.69
656.356	3406.69
656.389	7621.69
656.422	6087.69
656.454	2074.69
656.487	705.69
656.52	269.69
656.552	133.69
656.585	83.69
656.618	81.69
656.65	41.69
656.683	29.69
656.716	17.69
656.748	18.69
656.781	10.69
656.814	3.69
656.846	13.69
656.879	0.69
656.912	17.69
656.944	-6.31
656.977	-19.31
657.01	10.69
657.042	13.69
657.075	17.69
657.108	6.69
657.14	10.69
657.173	11.69
657.205	34.69
657.238	24.69
657.271	6.69
657.303	-6.31
657.336	14.69
657.369	11.69
657.401	-11.31
657.434	17.69
657.466	1.69
657.499	9.69
657.532	-10.31
657.564	8.69
657.597	4.69
657.629	14.69
657.662	-5.31
657.694	0.69
657.727	-16.31
657.76	11.69
657.792	3.69
657.825	-6.31
657.857	5.69
657.89	17.69
657.922	8.69
657.955	-9.31
657.987	15.69
658.02	11.69
658.053	28.69
658.085	10.69
658.118	7.69
658.15	10.69
658.183	5.69
658.215	-13.31
658.248	-21.31
658.28	1.69
658.313	16.69
658.345	13.69
658.378	-7.31
658.41	7.69
658.443	4.69
658.475	-13.31
658.508	-16.31
658.54	4.69
658.573	-1.31
658.605	-1.31
658.638	-15.31
658.67	-6.31
658.703	19.69
658.735	-3.31
658.768	-7.31
658.8	6.69
658.833	13.69
658.865	5.69
658.898	17.69
658.93	-17.31
658.963	-3.31
658.995	-20.31
659.028	-2.31
659.06	2.69
659.092	3.69
659.125	-11.31
659.157	11.69
659.19	-11.31
659.222	-6.31
659.255	17.69
659.287	9.69
659.32	-10.31
659.352	2.69
659.384	23.69
659.417	-2.31
659.449	-5.31
659.482	13.69
659.514	-9.31
659.546	2.69
659.579	13.69
659.611	5.69
659.644	8.69
659.676	5.69
659.708	-9.31
659.741	-5.31
659.773	4.69
659.806	-2.31
659.838	1.69
659.87	7.69
659.903	-1.31
659.935	30.69
659.967	14.69
660	7.69
660.032	-12.31
660.065	11.69
660.097	-1.31
660.129	4.69
660.162	0.69
660.194	8.69
660.226	3.69
660.259	6.69
660.291	-3.31
660.323	-9.31
660.356	12.69
660.388	-3.31
660.42	-0.31
660.453	-5.31
660.485	24.69
660.517	3.69
660.55	20.69
660.582	4.69
660.614	11.69
660.647	-19.31
660.679	-12.31
660.711	7.69
660.743	-9.31
660.776	-8.31
660.808	-19.31
660.84	-5.31
660.873	8.69
660.905	10.69
660.937	9.69
660.969	14.69
661.002	13.69
661.034	24.69
661.066	17.69
661.099	26.69
661.131	-4.31
661.163	5.69
661.195	5.69
661.228	22.69
661.26	6.69
661.292	5.69
661.324	-3.31
661.357	4.69
661.389	13.69
661.421	11.69
661.453	9.69
661.485	11.69
661.518	7.69
661.55	-0.31
661.582	-10.31
661.614	10.69
661.647	4.69
661.679	4.69
661.711	-3.31
661.743	-8.31
661.775	10.69
661.808	13.69
661.84	-12.31
661.872	7.69
661.904	8.69
661.936	4.69
661.969	3.69
662.001	-2.31
662.033	15.69
662.065	-2.31
662.097	14.69
662.129	11.69
662.162	-10.31
662.194	-5.31
662.226	6.69
662.258	9.69
662.29	-0.31
662.322	-3.31
662.355	5.69
662.387	21.69
662.419	23.69
662.451	10.69
662.483	10.69
662.515	5.69
662.547	5.69
662.58	-3.31
662.612	-12.31
662.644	-15.31
662.676	13.69
662.708	11.69
662.74	-2.31
662.772	11.69
662.804	5.69
662.836	-4.31
662.869	3.69
662.901	14.69
662.933	-7.31
662.965	14.69
662.997	1.69
663.029	-15.31
663.061	-4.31
663.093	-1.31
663.125	10.69
663.157	0.69
663.189	6.69
663.221	4.69
663.254	-0.31
663.286	-3.31
663.318	14.69
663.35	-9.31
663.382	11.69
663.414	0.69
663.446	21.69
663.478	10.69
663.51	34.69
663.542	-0.31
663.574	7.69
663.606	16.69
663.638	2.69
663.67	-15.31
663.702	-8.31
663.734	11.69
663.766	7.69
663.798	-7.31
663.83	14.69
663.862	18.69
663.894	16.69
663.926	-10.31
663.958	22.69
663.99	11.69
664.022	5.69
664.054	15.69
664.086	-4.31
664.118	-9.31
664.15	-19.31
664.182	3.69
664.214	14.69
664.246	18.69
664.278	-8.31
664.31	13.69
664.342	-3.31
664.374	-0.31
664.406	-4.31
664.438	5.69
664.47	18.69
664.502	7.69
664.534	12.69
664.566	0.69
664.598	14.69
664.63	-7.31
664.662	-10.31
664.693	1.69
664.725	-10.31
664.757	-11.31
664.789	-16.31
664.821	13.69
664.853	23.69
664.885	14.69
664.917	4.69
664.949	12.69
664.981	18.69
665.013	19.69
665.045	-16.31
665.076	11.69
665.108	0.69
665.14	-7.31
665.172	3.69
665.204	-1.31
665.236	9.69
665.268	20.69
665.3	5.69
665.331	5.69
665.363	27.69
665.395	-18.31
665.427	-2.31
665.459	21.69
665.491	12.69
665.523	2.69
665.555	3.69
665.586	8.69
665.618	0.69
665.65	-9.31
665.682	-0.31
665.714	18.69
665.746	6.69
665.777	16.69
665.809	22.69
665.841	5.69
665.873	5.69
665.905	7.69
665.937	10.69
665.968	25.69
666	9.69
666.032	7.69
666.064	14.69
666.096	-0.31
666.127	-12.31
666.159	15.69
666.191	19.69
666.223	-1.31
666.255	3.69
666.286	-0.31
666.318	-4.31
666.35	21.69
666.382	12.69
666.413	6.69
666.445	2.69
666.477	1.69
666.509	-11.31
666.54	12.69
666.572	-10.31
666.604	-9.31
666.636	3.69
666.667	16.69
666.699	24.69
666.731	11.69
666.763	-0.31
666.794	-0.31
666.826	13.69
666.858	7.69
666.89	22.69
666.921	19.69
666.953	11.69
666.985	12.69
667.017	27.69
667.048	7.69
667.08	-7.31
667.112	-2.31
667.143	-7.31
667.175	8.69
667.207	9.69
667.238	21.69
667.27	4.69
667.302	6.69
667.334	8.69
667.365	28.69
667.397	-2.31
667.429	-2.31
667.46	0.69
667.492	8.69
667.524	0.69
667.555	-2.31
667.587	25.69
667.619	-1.31
667.65	-2.31
667.682	-10.31
667.714	11.69
667.745	7.69
667.777	0.69
667.808	9.69
667.84	19.69
667.872	15.69
667.903	23.69
667.935	10.69
667.967	-5.31
667.998	9.69
668.03	-17.31
668.061	6.69
668.093	4.69
668.125	1.69
668.156	10.69
668.188	7.69
668.22	8.69
668.251	16.69
668.283	13.69
668.314	15.69
668.346	-1.31
668.377	11.69
668.409	-9.31
668.441	5.69
668.472	5.69
668.504	9.69
668.535	16.69
668.567	8.69
668.599	5.69
668.63	9.69
668.662	15.69
668.693	9.69
668.725	7.69
668.756	5.69
668.788	11.69
668.819	14.69
668.851	14.69
668.882	3.69
668.914	11.69
668.946	6.69
668.977	5.69
669.009	-14.31
669.04	6.69
669.072	16.69
669.103	24.69
669.135	13.69
669.166	-3.31
669.198	-14.31
669.229	-0.31
669.261	-15.31
669.292	-3.31
669.324	9.69
669.355	7.69
669.387	2.69
669.418	22.69
669.45	-1.31
669.481	4.69
669.513	0.69
669.544	9.69
669.576	11.69
669.607	29.69
669.639	21.69
669.67	3.69
669.701	10.69
669.733	-1.31
669.764	-5.31
669.796	-4.31
669.827	0.69
669.859	-0.31
669.89	-3.31
669.922	16.69
669.953	0.69
669.985	6.69
670.016	16.69
670.047	8.69
670.079	13.69
670.11	22.69
670.142	8.69
670.173	4.69
670.204	9.69
670.236	-5.31
670.267	-7.31
670.299	-0.31
670.33	13.69
670.362	-2.31
670.393	-24.31
670.424	11.69
670.456	-9.31
670.487	9.69
670.518	11.69
670.55	6.69
670.581	5.69
670.613	15.69
670.644	6.69
670.675	-3.31
670.707	-4.31
670.738	17.69
670.769	4.69
670.801	-8.31
670.832	18.69
670.864	-10.31
670.895	-2.31
670.926	9.69
670.958	10.69
670.989	4.69
671.02	1.69
671.052	-3.31
671.083	-5.31
671.114	0.69
671.146	12.69
671.177	-17.31
671.208	5.69
671.24	-3.31
671.271	2.69
671.302	13.69
671.333	1.69
671.365	-9.31
671.396	-12.31
671.427	6.69
671.459	11.69
671.49	3.69
671.521	4.69
671.553	5.69
671.584	10.69
671.615	3.69
671.646	2.69
671.678	6.69
671.709	-0.31
671.74	-19.31
671.771	-8.31
671.803	4.69
671.834	7.69
671.865	7.69
671.896	27.69
671.928	9.69
671.959	4.69
671.99	-3.31
672.021	-19.31
672.053	9.69
672.084	7.69
672.115	10.69
672.146	-9.31
672.178	-17.31
672.209	-14.31
672.24	-4.31
672.271	29.69
672.303	10.69
672.334	5.69
672.365	1.69
672.396	-7.31
672.427	-2.31
672.459	24.69
672.49	32.69
672.521	4.69
672.552	20.69
672.583	4.69
672.615	-9.31
672.646	11.69
672.677	-10.31
672.708	-12.31
672.739	0.69
672.77	11.69
672.802	19.69
672.833	5.69
672.864	3.69
672.895	-9.31
672.926	-6.31
672.957	-7.31
672.989	-3.31
673.02	14.69
673.051	-1.31
673.082	19.69
673.113	-0.31
673.144	7.69
673.175	-1.31
673.206	-8.31
673.238	6.69
673.269	11.69
673.3	3.69
673.331	23.69
673.362	-2.31
673.393	6.69
673.424	20.69
673.455	12.69
673.487	7.69
673.518	13.69
673.549	1.69
673.58	6.69
673.611	1.69
673.642	16.69
673.673	15.69
673.704	3.69
673.735	10.69
673.766	-8.31
673.797	-13.31
673.828	1.69
673.86	3.69
673.891	4.69
673.922	-4.31
673.953	-7.31
673.984	10.69
674.015	-0.31
674.046	12.69
674.077	15.69
674.108	-0.31
674.139	6.69
674.17	15.69
674.201	-1.31
674.232	3.69
674.263	-0.31
674.294	11.69
674.325	6.69
674.356	11.69
674.387	-0.31
674.418	12.69
674.449	3.69
674.48	-13.31
674.511	-4.31
674.542	13.69
674.573	-10.31
674.604	7.69
674.635	-4.31
674.666	11.69
674.697	14.69
674.728	-3.31
674.759	-7.31
674.79	-16.31
674.821	-25.31
674.852	-5.31
674.883	-4.31
674.914	3.69
674.945	13.69
674.976	8.69
675.007	-6.31
675.038	6.69
675.069	-1.31
675.1	3.69
675.131	10.69
675.162	-15.31
675.193	-5.31
675.224	-6.31
675.254	11.69
675.285	18.69
675.316	9.69
675.347	8.69
675.378	0.69
675.409	-15.31
675.44	1.69
675.471	-0.31
675.502	-7.31
675.533	16.69
675.564	-6.31
675.595	-7.31
675.625	24.69
675.656	19.69
675.687	0.69
675.718	-9.31
675.749	-0.31
675.78	-5.31
675.811	-5.31
675.842	13.69
675.873	0.69
675.903	-1.31
675.934	-0.31
675.965	-0.31
675.996	3.69
676.027	15.69
676.058	-2.31
676.089	-14.31
676.119	4.69
676.15	1.69
676.181	-6.31
676.212	-6.31
676.243	15.69
676.274	-4.31
676.304	6.69
676.335	-8.31
676.366	-0.31
676.397	-1.31
676.428	-8.31
676.459	23.69
676.489	9.69
676.52	18.69
676.551	9.69
676.582	17.69
676.613	17.69
676.643	4.69
676.674	22.69
676.705	-13.31
676.736	11.69
676.767	-1.31
676.797	-4.31
676.828	11.69
676.859	-2.31
676.89	6.69
676.92	6.69
676.951	-5.31
676.982	14.69
677.013	8.69
677.044	27.69
677.074	9.69
677.105	-5.31
677.136	7.69
677.167	-0.31
677.197	6.69
677.228	1.69
677.259	-0.31
677.289	16.69
677.32	-5.31
677.351	6.69
677.382	2.69
677.412	3.69
677.443	13.69
677.474	5.69
677.505	-5.31
677.535	5.69
677.566	12.69
677.597	-25.31
677.627	-10.31
677.658	-11.31
677.689	0.69
677.72	2.69
677.75	5.69
677.781	5.69
677.812	6.69
677.842	15.69
677.873	8.69
677.904	4.69
677.934	-4.31
677.965	1.69
677.996	-3.31
678.026	-2.31
678.057	11.69
678.088	-19.31
678.118	28.69
678.149	-0.31
678.18	12.69
678.21	13.69
678.241	6.69
678.272	-2.31
678.302	0.69
678.333	0.69
678.363	7.69
678.394	1.69
678.425	5.69
678.455	7.69
678.486	19.69
678.517	-10.31
678.547	-2.31
678.578	7.69
678.608	-28.31
678.639	3.69
678.67	4.69
678.7	-3.31
678.731	-3.31
678.761	2.69
678.792	10.69
678.823	13.69
678.853	1.69
678.884	-0.31
678.914	22.69
678.945	4.69
678.975	11.69
679.006	11.69
679.037	7.69
679.067	22.69
679.098	2.69
679.128	-6.31
679.159	-16.31
679.189	0.69
679.22	-6.31
679.25	1.69
679.281	14.69
679.312	13.69
679.342	10.69
679.373	22.69
679.403	2.69
679.434	8.69
679.464	4.69
679.495	0.69
679.525	-4.31
679.556	-11.31
679.586	-1.31
679.617	16.69
679.647	6.69
679.678	4.69
679.708	12.69
679.739	-6.31
679.769	-0.31
679.8	-8.31
679.83	2.69
679.861	12.69
679.891	-8.31
679.922	-6.31
679.952	15.69
679.983	23.69
680.013	8.69
680.044	-9.31
680.074	21.69
680.105	7.69
680.135	0.69
680.165	2.69
680.196	10.69
680.226	25.69
680.257	7.69
680.287	-3.31
680.318	-3.31
680.348	6.69
680.379	-1.31
680.409	-1.31
680.439	7.69
680.47	4.69
680.5	3.69
680.531	3.69
680.561	17.69
680.592	6.69
680.622	11.69
680.652	-0.31
680.683	26.69
680.713	4.69
680.744	3.69
680.774	-3.31
680.804	17.69
680.835	-0.31
680.865	-1.31
680.896	35.69
680.926	21.69
680.956	-11.31
680.987	-10.31
681.017	-4.31
681.047	-7.31
681.078	-6.31
681.108	7.69
681.139	13.69
681.169	20.69
681.199	5.69
681.23	0.69
681.26	-0.31
681.29	19.69
681.321	-0.31
681.351	3.69
681.381	-8.31
681.412	7.69
681.442	3.69
681.472	17.69
681.503	6.69
681.533	-8.31
681.563	27.69
681.594	8.69
681.624	14.69
681.654	2.69
681.685	-11.31
681.715	7.69
681.745	5.69
681.775	7.69
681.806	10.69
681.836	2.69
681.866	0.69
681.897	17.69
681.927	-3.31
681.957	-10.31
681.987	3.69
682.018	1.69
682.048	12.69
682.078	11.69
682.109	30.69
682.139	17.69
682.169	3.69
682.199	-4.31
682.23	-6.31
682.26	18.69
682.29	-12.31
682.32	1.69
682.351	1.69
682.381	8.69
682.411	11.69
682.441	-6.31
682.472	-2.31
682.502	-5.31
682.532	8.69
682.562	5.69
682.592	8.69
682.623	20.69
682.653	10.69
682.683	-9.31
682.713	17.69
682.743	-5.31
682.774	3.69
682.804	-0.31
682.834	23.69
682.864	14.69
682.894	2.69
682.925	6.69
682.955	-2.31
682.985	7.69
683.015	14.69
683.045	-4.31
683.076	-21.31
683.106	-2.31
683.136	0.69
683.166	-3.31
683.196	12.69
683.226	-17.31
683.257	-1.31
683.287	2.69
683.317	-9.31
683.347	1.69
683.377	3.69
683.407	9.69
683.437	3.69
683.468	18.69
683.498	6.69
683.528	-4.31
683.558	1.69
683.588	4.69
683.618	13.69
683.648	-9.31
683.678	-6.31
683.708	14.69
683.739	1.69
683.769	2.69
683.799	0.69
683.829	-12.31
683.859	-4.31
683.889	19.69
683.919	0.69
683.949	-4.31
683.979	-12.31
684.009	12.69
684.039	-2.31
684.07	11.69
684.1	26.69
684.13	0.69
684.16	19.69
684.19	4.69
684.22	0.69
684.25	7.69
684.28	2.69
684.31	35.69
684.34	0.69
684.37	3.69
684.4	-7.31
684.43	9.69
684.46	6.69
684.49	9.69
684.52	11.69
684.55	18.69
684.58	5.69
684.61	7.69
684.64	14.69
684.67	17.69
684.7	-1.31
684.73	7.69
684.76	1.69
684.79	24.69
684.82	-7.31
684.85	-9.31
684.88	7.69
684.91	6.69
684.94	7.69
684.97	-6.31
685	-6.31
685.03	-1.31
685.06	7.69
685.09	-1.31
685.12	17.69
685.15	-1.31
685.18	11.69
685.21	8.69
685.24	14.69
685.27	20.69
685.3	20.69
685.33	6.69
685.36	-4.31
685.39	-2.31
685.42	-3.31
685.45	2.69
685.48	-11.31
685.51	-11.31
685.54	1.69
685.569	6.69
685.599	7.69
685.629	8.69
685.659	-1.31
685.689	3.69
685.719	8.69
685.749	0.69
685.779	18.69
685.809	14.69
685.839	2.69
685.869	4.69
685.898	8.69
685.928	4.69
685.958	-1.31
685.988	25.69
686.018	11.69
686.048	9.69
686.078	11.69
686.108	4.69
686.137	5.69
686.167	14.69
686.197	-3.31
686.227	0.69
686.257	30.69
686.287	19.69
686.317	4.69
686.346	13.69
686.376	-16.31
686.406	-4.31
686.436	13.69
686.466	3.69
686.496	9.69
686.525	1.69
686.555	11.69
686.585	5.69
686.615	24.69
686.645	15.69
686.675	5.69
686.704	7.69
686.734	-4.31
686.764	-0.31
686.794	10.69
686.824	-9.31
686.853	12.69
686.883	5.69
686.913	19.69
686.943	7.69
686.973	4.69
687.002	-0.31
687.032	0.69
687.062	-8.31
687.092	10.69
687.121	-4.31
687.151	11.69
687.181	7.69
687.211	12.69
687.24	10.69
687.27	2.69
687.3	5.69
687.33	21.69
687.359	-7.31
687.389	12.69
687.419	1.69
687.449	6.69
687.478	7.69
687.508	4.69
687.538	2.69
687.568	2.69
687.597	-3.31
687.627	6.69
687.657	18.69
687.686	14.69
687.716	34.69
687.746	-0.31
687.776	-4.31
687.805	8.69
687.835	10.69
687.865	13.69
687.894	17.69
687.924	8.69
687.954	5.69
687.983	15.69
688.013	2.69
688.043	12.69
688.072	2.69
688.102	19.69
688.132	2.69
688.161	3.69
688.191	4.69
688.221	16.69
688.25	5.69
688.28	12.69
688.31	0.69
688.339	1.69
688.369	-5.31
688.399	-4.31
688.428	8.69
688.458	15.69
688.488	5.69
688.517	12.69
688.547	8.69
688.576	30.69
688.606	8.69
688.636	-2.31
688.665	3.69
688.695	18.69
688.725	-1.31
688.754	-1.31
688.784	13.69
688.813	13.69
688.843	2.69
688.873	-12.31
688.902	-3.31
688.932	-3.31
688.961	4.69
688.991	5.69
689.02	5.69
689.05	-17.31
689.08	15.69
689.109	11.69
689.139	-2.31
689.168	-2.31
689.198	-3.31
689.227	0.69
689.257	0.69
689.287	7.69
689.316	10.69
689.346	-1.31
689.375	-5.31
689.405	11.69
689.434	2.69
689.464	6.69
689.493	3.69
689.523	-13.31
689.552	-11.31
689.582	4.69
689.611	1.69
689.641	12.69
689.67	-4.31
689.7	-7.31
689.73	32.69
689.759	17.69
689.789	8.69
689.818	3.69
689.848	12.69
689.877	19.69
689.906	8.69
689.936	-4.31
689.965	0.69
689.995	4.69
690.024	11.69
690.054	0.69
690.083	4.69
690.113	5.69
690.142	8.69
690.172	18.69
690.201	22.69
690.231	13.69
690.26	11.69
690.29	6.69
690.319	9.69
690.348	-5.31
690.378	-6.31
690.407	14.69
690.437	2.69
690.466	8.69
690.496	6.69
690.525	4.69
690.555	9.69
690.584	2.69
690.613	5.69
690.643	9.69
690.672	17.69
690.702	24.69
690.731	-2.31
690.76	-1.31
690.79	3.69
690.819	-16.31
690.849	2.69
690.878	-2.31
690.907	-3.31
690.937	6.69
690.966	19.69
690.996	-6.31
691.025	16.69
691.054	15.69
691.084	3.69
691.113	8.69
691.142	9.69
691.172	10.69
691.201	13.69
691.23	4.69
691.26	10.69
691.289	6.69
691.319	22.69
691.348	16.69
691.377	12.69
691.407	6.69
691.436	4.69
691.465	-4.31
691.495	-0.31
691.524	-5.31
691.553	12.69
691.583	3.69
691.612	11.69
691.641	5.69
691.67	-4.31
691.7	6.69
691.729	15.69
691.758	-7.31
691.788	-3.31
691.817	6.69
691.846	-0.31
691.876	4.69
691.905	4.69
691.934	-0.31
691.963	15.69
691.993	17.69
692.022	-8.31
692.051	3.69
692.081	18.69
692.11	33.69
692.139	-2.31
692.168	-7.31
692.198	15.69
692.227	16.69
692.256	4.69
692.285	9.69
692.315	10.69
692.344	-4.31
692.373	13.69
692.402	-5.31
692.432	-13.31
692.461	4.69
692.49	3.69
692.519	-0.31
692.548	27.69
692.578	18.69
692.607	-0.31
692.636	11.69
692.665	24.69
692.694	-0.31
692.724	-0.31
692.753	13.69
692.782	19.69
692.811	8.69
692.84	-1.31
692.87	10.69
692.899	-8.31
692.928	-6.31
692.957	5.69
692.986	12.69
693.016	16.69
693.045	10.69
693.074	1.69
693.103	8.69
693.132	3.69
693.161	3.69
693.191	9.69
693.22	-9.31
693.249	8.69
693.278	16.69
693.307	26.69
693.336	-3.31
693.365	-9.31
693.395	3.69
693.424	-9.31
693.453	2.69
693.482	-7.31
693.511	13.69
693.54	-1.31
693.569	1.69
693.598	5.69
693.628	15.69
693.657	19.69
693.686	13.69
693.715	17.69
693.744	11.69
693.773	22.69
693.802	12.69
693.831	11.69
693.86	13.69
693.889	11.69
693.919	-7.31
693.948	8.69
693.977	13.69
694.006	7.69
694.035	19.69
694.064	8.69
694.093	16.69
694.122	17.69
694.151	12.69
694.18	8.69
694.209	15.69
694.238	11.69
694.267	29.69
694.296	16.69
694.325	11.69
694.354	22.69
694.383	8.69
694.412	-3.31
694.441	2.69
694.471	-8.31
694.5	-3.31
694.529	-8.31
694.558	15.69
694.587	20.69
694.616	3.69
694.645	11.69
694.674	26.69
694.703	6.69
694.732	-3.31
694.761	22.69
694.79	24.69
694.819	-1.31
694.848	11.69
694.877	14.69
694.906	15.69
694.935	15.69
694.963	16.69
694.992	0.69
695.021	3.69
695.05	21.69
695.079	16.69
695.108	-7.31
695.137	10.69
695.166	13.69
695.195	9.69
695.224	14.69
695.253	18.69
695.282	14.69
695.311	23.69
695.34	3.69
695.369	16.69
695.398	3.69
695.427	18.69
695.456	-2.31
695.485	15.69
695.513	4.69
695.542	0.69
695.571	8.69
695.6	14.69
695.629	15.69
695.658	-3.31
695.687	7.69
695.716	10.69
695.745	29.69
695.774	-17.31
695.802	-5.31
695.831	10.69
695.86	12.69
695.889	17.69
695.918	-0.31
695.947	-3.31
695.976	24.69
696.005	12.69
696.033	3.69
696.062	9.69
696.091	7.69
696.12	24.69
696.149	22.69
696.178	9.69
696.207	-5.31
696.235	7.69
696.264	7.69
696.293	20.69
696.322	6.69
696.351	12.69
696.38	13.69
696.408	4.69
696.437	6.69
696.466	12.69
696.495	13.69
696.524	10.69
696.553	-5.31
696.581	26.69
696.61	24.69
696.639	10.69
696.668	19.69
696.697	-3.31
696.725	7.69
696.754	5.69
696.783	-3.31
696.812	4.69
696.84	7.69
696.869	-1.31
696.898	9.69
696.927	12.69
696.956	16.69
696.984	-6.31
697.013	6.69
697.042	20.69
697.071	7.69
697.099	25.69
697.128	8.69
697.157	6.69
697.186	-2.31
697.214	3.69
697.243	17.69
697.272	-5.31
697.301	7.69
697.329	-9.31
697.358	21.69
697.387	14.69
697.415	18.69
697.444	-1.31
697.473	5.69
697.502	-7.31
697.53	15.69
697.559	13.69
697.588	4.69
697.616	2.69
697.645	-1.31
697.674	5.69
697.703	-4.31
697.731	15.69
697.76	5.69
697.789	12.69
697.817	11.69
697.846	43.69
697.875	10.69
697.903	23.69
697.932	10.69
697.961	2.69
697.989	12.69
698.018	6.69
698.047	6.69
698.075	16.69
698.104	-4.31
698.133	0.69
698.161	6.69
698.19	-4.31
698.218	-10.31
698.247	6.69
698.276	-1.31
698.304	9.69
698.333	9.69
698.362	14.69
698.39	13.69
698.419	12.69
698.447	-8.31
698.476	-3.31
698.505	8.69
698.533	6.69
698.562	12.69
698.591	-7.31
698.619	8.69
698.648	10.69
698.676	-0.31
698.705	-0.31
698.733	3.69
698.762	-1.31
698.791	-6.31
698.819	22.69
698.848	13.69
698.876	17.69
698.905	-7.31
698.933	8.69
698.962	14.69
698.991	-1.31
699.019	31.69
699.048	11.69
699.076	17.69
699.105	0.69
699.133	-0.31
699.162	11.69
699.19	13.69
699.219	21.69
699.248	-6.31
699.276	10.69
699.305	4.69
699.333	4.69
699.362	1.69
699.39	24.69
699.419	1.69
699.447	14.69
699.476	13.69
699.504	3.69
699.533	14.69
699.561	2.69
699.59	8.69
699.618	-1.31
699.647	11.69
699.675	17.69
699.704	5.69
699.732	8.69
699.761	7.69
699.789	13.69
699.818	24.69
699.846	5.69
699.874	-1.31
699.903	4.69
699.931	3.69
699.96	7.69
699.988	-4.31
700.017	3.69
700.045	-4.31
700.074	-1.31
700.102	4.69
700.13	1.69
700.159	14.69
700.187	-2.31
700.216	-0.31
700.244	-2.31
700.273	24.69
700.301	17.69
700.329	15.69
700.358	14.69
700.386	9.69
700.415	-6.31
700.443	14.69
700.472	5.69
700.5	-3.31
700.528	23.69
700.557	5.69
700.585	-9.31
700.614	-8.31
700.642	0.69
700.67	8.69
700.699	7.69
700.727	11.69
700.755	-1.31
700.784	9.69
700.812	4.69
700.841	14.69
700.869	16.69
700.897	-10.31
700.926	-1.31
700.954	0.69
700.982	16.69
701.011	15.69
701.039	14.69
701.067	3.69
701.096	14.69
701.124	1.69
701.152	0.69
701.181	0.69
701.209	12.69
701.237	20.69
701.266	-1.31
701.294	-22.31
701.322	7.69
701.351	24.69
701.379	6.69
701.407	2.69
701.435	11.69
701.464	13.69
701.492	20.69
701.52	-7.31
701.549	10.69
701.577	-6.31
701.605	-0.31
701.634	-0.31
701.662	10.69
701.69	-3.31
701.718	-20.31
701.747	3.69
701.775	0.69
701.803	-4.31
701.831	-2.31
701.86	6.69
701.888	3.69
701.916	3.69
701.944	9.69
701.973	-4.31
702.001	-14.31
702.029	4.69
702.057	-8.31
702.086	-9.31
702.114	-3.31
702.142	17.69
702.17	-16.31
702.199	-18.31
702.227	-10.31
702.255	-5.31
702.283	6.69
702.311	5.69
702.34	3.69
702.368	-1.31
702.396	5.69
702.424	3.69
702.452	4.69
702.481	-0.31
702.509	14.69
702.537	5.69
702.565	9.69
702.593	-6.31
702.621	-5.31
702.65	13.69
702.678	13.69
702.706	6.69
702.734	1.69
702.762	20.69
702.79	4.69
702.819	9.69
702.847	15.69
702.875	11.69
702.903	22.69
702.931	-9.31
702.959	13.69
702.988	5.69
703.016	-4.31
703.044	15.69
703.072	-0.31
703.1	2.69
703.128	15.69
703.156	13.69
703.184	3.69
703.212	6.69
703.241	-1.31
703.269	0.69
703.297	-3.31
703.325	4.69
703.353	-8.31
703.381	-7.31
703.409	16.69
703.437	8.69
703.465	-3.31
703.493	-8.31
703.522	7.69
703.55	23.69
703.578	19.69
703.606	-9.31
703.634	8.69
703.662	-13.31
703.69	3.69
703.718	-3.31
703.746	15.69
703.774	5.69
703.802	21.69
703.83	-7.31
703.858	-10.31
703.886	-1.31
703.914	1.69
703.942	14.69
703.97	-3.31
703.998	-4.31
704.027	22.69
704.055	12.69
704.083	23.69
704.111	4.69
704.139	-0.31
704.167	-0.31
704.195	-0.31
704.223	-5.31
704.251	7.69
704.279	19.69
704.307	16.69
704.335	1.69
704.363	7.69
704.391	-7.31
704.419	-0.31
704.447	-1.31
704.475	2.69
704.503	-12.31
704.531	3.69
704.558	0.69
704.586	11.69
704.614	19.69
704.642	9.69
704.67	-8.31
704.698	1.69
704.726	20.69
704.754	-1.31
704.782	7.69
704.81	7.69
704.838	6.69
704.866	7.69
704.894	-15.31
704.922	6.69
704.95	10.69
704.978	17.69
705.006	9.69
705.034	15.69
705.061	5.69
705.089	0.69
705.117	-21.31
705.145	7.69
705.173	11.69
705.201	1.69
705.229	19.69
705.257	2.69
705.285	14.69
705.313	30.69
705.34	1.69
705.368	-11.31
705.396	10.69
705.424	16.69
705.452	-0.31
705.48	-3.31
705.508	-3.31
705.536	4.69
705.563	-5.31
705.591	15.69
705.619	11.69
705.647	-11.31
705.675	5.69
705.703	7.69
705.731	-16.31
705.758	18.69
705.786	5.69
705.814	30.69
705.842	6.69
705.87	5.69
705.898	11.69
705.925	5.69
705.953	7.69
705.981	-3.31
706.009	3.69
706.037	11.69
706.065	9.69
706.092	0.69
706.12	3.69
706.148	3.69
706.176	-1.31
706.204	4.69
706.231	2.69
706.259	-0.31
706.287	-11.31
706.315	5.69
706.342	-10.31
706.37	13.69
706.398	6.69
706.426	2.69
706.454	-15.31
706.481	-8.31
706.509	-0.31
706.537	6.69
706.565	-4.31
706.592	19.69
706.62	-18.31
706.648	8.69
706.676	-6.31
706.703	10.69
706.731	0.69
706.759	-1.31
706.787	6.69
706.814	3.69
706.842	8.69
706.87	7.69
706.897	0.69
706.925	10.69
706.953	8.69
706.981	-3.31
707.008	-0.31
707.036	4.69
707.064	-12.31
707.091	-9.31
707.119	14.69
707.147	24.69
707.174	-4.31
707.202	-3.31
707.23	-7.31
707.258	11.69
707.285	2.69
707.313	-1.31
707.341	-2.31
707.368	-0.31
707.396	0.69
707.424	23.69
707.451	5.69
707.479	18.69
707.507	-3.31
707.534	-17.31
707.562	12.69
707.59	-8.31
707.617	-3.31
707.645	4.69
707.672	4.69
707.7	2.69
707.728	23.69
707.755	6.69
707.783	-4.31
707.811	11.69
707.838	6.69
707.866	0.69
707.893	18.69
707.921	14.69
707.949	-9.31
707.976	-2.31
708.004	9.69
708.031	-3.31
708.059	-0.31
708.087	2.69
708.114	-2.31
708.142	-5.31
708.169	-7.31
708.197	-12.31
708.225	2.69
708.252	-6.31
708.28	7.69
708.307	10.69
708.335	2.69
708.362	-3.31
708.39	-15.31
708.418	-0.31
708.445	-5.31
708.473	-4.31
708.5	-3.31
708.528	-1.31
708.555	3.69
708.583	8.69
708.61	5.69
708.638	3.69
708.665	-7.31
708.693	16.69
708.72	-9.31
708.748	-11.31
708.776	-18.31
708.803	17.69
708.831	12.69
708.858	13.69
708.886	-0.31
708.913	6.69
708.941	2.69
708.968	4.69
708.996	8.69
709.023	31.69
709.051	7.69
709.078	-9.31
709.105	19.69
709.133	10.69
709.16	6.69
709.188	5.69
709.215	5.69
709.243	3.69
709.27	-9.31
709.298	0.69
709.325	7.69
709.353	-1.31
709.38	1.69
709.408	2.69
709.435	-1.31
709.462	3.69
709.49	6.69
709.517	4.69
709.545	-0.31
709.572	0.69
709.6	0.69
709.627	2.69
709.655	10.69
709.682	4.69
709.709	13.69
709.737	7.69
709.764	1.69
709.792	27.69
709.819	0.69
709.846	20.69
709.874	9.69
709.901	14.69
709.929	7.69
709.956	-4.31
709.983	-9.31
710.011	0.69
710.038	-0.31
710.066	6.69
710.093	19.69
710.12	9.69
710.148	-4.31
710.175	-13.31
710.202	-12.31
710.23	4.69
710.257	10.69
710.284	1.69
710.312	9.69
710.339	0.69
710.366	3.69
710.394	-9.31
710.421	5.69
710.448	-0.31
710.476	2.69
710.503	7.69
710.53	10.69
710.558	22.69
710.585	23.69
710.612	2.69
710.64	6.69
710.667	-2.31
710.694	-12.31
710.722	-0.31
710.749	3.69
710.776	5.69
710.804	27.69
710.831	8.69
710.858	-15.31
710.885	3.69
710.913	0.69
710.94	12.69
710.967	7.69
710.995	4.69
711.022	-2.31
711.049	7.69
711.076	-17.31
711.104	-2.31
711.131	-10.31
711.158	-1.31
711.185	10.69
711.213	7.69
711.24	-16.31
711.267	5.69
711.294	-12.31
711.322	5.69
711.349	3.69
711.376	3.69
711.403	7.69
711.431	-6.31
711.458	10.69
711.485	5.69
711.512	17.69
711.54	7.69
711.567	15.69
711.594	4.69
711.621	-4.31
711.648	8.69
711.676	9.69
711.703	0.69
711.73	-20.31
711.757	2.69
711.784	6.69
711.812	12.69
711.839	-3.31
711.866	-9.31
711.893	-11.31
711.92	0.69
711.947	11.69
711.975	7.69
712.002	-6.31
712.029	15.69
712.056	16.69
712.083	6.69
712.11	-9.31
712.138	17.69
712.165	16.69
712.192	3.69
712.219	-0.31
712.246	6.69
712.273	11.69
712.3	-10.31
712.328	6.69
712.355	-12.31
712.382	-5.31
712.409	5.69
712.436	-9.31
712.463	14.69
712.49	11.69
712.517	0.69
712.544	12.69
712.572	13.69
712.599	0.69
712.626	15.69
712.653	-5.31
712.68	-6.31
712.707	13.69
712.734	8.69
712.761	-0.31
712.788	3.69
712.815	3.69
712.842	11.69
712.87	4.69
712.897	-25.31
712.924	-8.31
712.951	10.69
712.978	7.69
713.005	16.69
713.032	7.69
713.059	-17.31
713.086	-9.31
713.113	-22.31
713.14	-5.31
713.167	-5.31
713.194	7.69
713.221	4.69
713.248	-1.31
713.275	-6.31
713.302	-7.31
713.329	3.69
713.356	-8.31
713.383	9.69
713.41	11.69
713.437	2.69
713.464	3.69
713.491	20.69
713.518	2.69
713.545	4.69
713.572	9.69
713.599	22.69
713.626	-1.31
713.653	9.69
713.68	-7.31
713.707	8.69
713.734	12.69
713.761	-4.31
713.788	19.69
713.815	5.69
713.842	-6.31
713.869	5.69
713.896	8.69
713.923	-2.31
713.95	3.69
713.977	-4.31
714.004	-1.31
714.031	2.69
714.058	-1.31
714.085	-9.31
714.112	16.69
714.139	12.69
714.165	10.69
714.192	-0.31
714.219	11.69
714.246	0.69
714.273	2.69
714.3	5.69
714.327	21.69
714.354	18.69
714.381	14.69
714.408	-2.31
714.435	-8.31
714.461	5.69
714.488	20.69
714.515	0.69
714.542	5.69
714.569	-9.31
714.596	-10.31
714.623	-10.31
714.65	-8.31
714.677	12.69
714.703	15.69
714.73	6.69
714.757	14.69
714.784	26.69
714.811	6.69
714.838	-6.31
714.865	-1.31
714.891	-2.31
714.918	8.69
714.945	-10.31
714.972	-10.31
714.999	13.69
715.026	-4.31
715.052	6.69
715.079	8.69
715.106	-1.31
715.133	-1.31
715.16	0.69
715.187	20.69
715.213	12.69
715.24	-0.31
715.267	6.69
715.294	0.69
715.321	-14.31
715.347	2.69
715.374	-3.31
715.401	-8.31
715.428	-1.31
715.455	-4.31
715.481	-2.31
715.508	16.69
715.535	2.69
715.562	21.69
715.588	2.69
715.615	-1.31
715.642	-5.31
715.669	3.69
715.695	-1.31
715.722	2.69
715.749	8.69
715.776	14.69
715.802	7.69
715.829	11.69
715.856	-17.31
715.883	10.69
715.909	-5.31
715.936	-12.31
715.963	-5.31
715.99	-0.31
716.016	19.69
716.043	4.69
716.07	11.69
716.096	-15.31
716.123	-0.31
716.15	5.69
716.177	23.69
716.203	-0.31
716.23	8.69
716.257	6.69
716.283	12.69
716.31	14.69
716.337	5.69
716.363	2.69
716.39	6.69
716.417	4.69
716.443	-7.31
716.47	10.69
716.497	18.69
716.523	20.69
716.55	22.69
716.577	18.69
716.603	1.69
716.63	15.69
716.657	23.69
716.683	-5.31
716.71	-5.31
716.737	7.69
716.763	11.69
716.79	6.69
716.817	6.69
716.843	7.69
716.87	-8.31
716.897	16.69
716.923	8.69
716.95	-6.31
716.976	2.69
717.003	-4.31
717.03	3.69
717.056	5.69
717.083	5.69
717.109	9.69
717.136	5.69
717.163	-2.31
717.189	8.69
717.216	-10.31
717.242	0.69
717.269	-6.31
717.296	5.69
717.322	27.69
717.349	4.69
717.375	14.69
717.402	-5.31
717.428	0.69
717.455	15.69
717.481	4.69
717.508	15.69
717.535	6.69
717.561	-6.31
717.588	-12.31
717.614	-9.31
717.641	11.69
717.667	11.69
717.694	6.69
717.72	-3.31
717.747	12.69
717.773	-5.31
717.8	2.69
717.826	-1.31
717.853	-1.31
717.88	18.69
717.906	11.69
717.933	9.69
717.959	-1.31
717.986	1.69
718.012	-15.31
718.039	11.69
718.065	11.69
718.092	0.69
718.118	2.69
718.144	-8.31
718.171	25.69
718.197	20.69
718.224	-3.31
718.25	2.69
718.277	4.69
718.303	-1.31
718.33	10.69
718.356	-9.31
718.383	2.69
718.409	-1.31
718.436	-4.31
718.462	-12.31
718.489	-8.31
718.515	2.69
718.541	23.69
718.568	1.69
718.594	-5.31
718.621	2.69
718.647	-0.31
718.674	8.69
718.7	19.69
718.726	16.69
718.753	12.69
718.779	22.69
718.806	7.69
718.832	2.69
718.858	9.69
718.885	8.69
718.911	3.69
718.938	2.69
718.964	0.69
718.99	0.69
719.017	9.69
719.043	14.69
719.07	29.69
719.096	-0.31
719.122	0.69
719.149	0.69
719.175	15.69
719.201	-1.31
719.228	7.69
719.254	3.69
719.281	2.69
719.307	-1.31
719.333	5.69
719.36	25.69
719.386	19.69
719.412	10.69
719.439	-6.31
719.465	8.69
719.491	-21.31
719.518	11.69
719.544	16.69
719.57	6.69
719.597	15.69
719.623	5.69
719.649	4.69
719.675	7.69
719.702	14.69
719.728	21.69
719.754	-13.31
719.781	-4.31
719.807	-2.31
719.833	-2.31
719.86	-0.31
719.886	5.69
719.912	20.69
719.938	7.69
719.965	10.69
719.991	19.69
720.017	15.69
720.044	-3.31
720.07	15.69
720.096	6.69
720.122	1.69
720.149	12.69
720.175	21.69
720.201	8.69
720.227	3.69
720.254	8.69
720.28	7.69
720.306	-0.31
720.332	20.69
720.359	18.69
720.385	13.69
720.411	4.69
720.437	20.69
720.463	5.69
720.49	24.69
720.516	-10.31
720.542	-4.31
720.568	10.69
720.595	14.69
720.621	15.69
720.647	21.69
720.673	20.69
720.699	-7.31
720.725	7.69
720.752	15.69
720.778	18.69
720.804	-0.31
720.83	12.69
720.856	6.69
720.883	1.69
720.909	13.69
720.935	15.69
720.961	7.69
720.987	23.69
721.013	19.69
721.04	7.69
721.066	10.69
721.092	-1.31
721.118	-1.31
721.144	3.69
721.17	-1.31
721.196	10.69
721.223	4.69
721.249	4.69
721.275	8.69
721.301	11.69
721.327	8.69
721.353	13.69
721.379	-3.31
721.405	16.69
721.432	28.69
721.458	11.69
721.484	4.69
721.51	-1.31
721.536	3.69
721.562	8.69
721.588	8.69
721.614	4.69
721.64	8.69
721.666	-8.31
721.693	-9.31
721.719	7.69
721.745	-5.31
721.771	-3.31
721.797	2.69
721.823	-1.31
721.849	10.69
721.875	6.69
721.901	1.69
721.927	7.69
721.953	16.69
721.979	9.69
722.005	7.69
722.031	-2.31
722.057	-6.31
722.083	19.69
722.109	15.69
722.135	-0.31
722.161	8.69
722.187	0.69
722.214	-0.31
722.24	-6.31
722.266	0.69
722.292	10.69
722.318	15.69
722.344	-1.31
722.37	19.69
722.396	8.69
722.422	-2.31
722.448	18.69
722.474	0.69
722.5	5.69
722.526	-6.31
722.552	11.69
722.578	8.69
722.603	4.69
722.629	-5.31
722.655	12.69
722.681	-7.31
722.707	10.69
722.733	3.69
722.759	1.69
722.785	5.69
722.811	7.69
722.837	12.69
722.863	22.69
722.889	20.69
722.915	-1.31
722.941	-3.31
722.967	7.69
722.993	13.69
723.019	-8.31
723.045	12.69
723.071	-5.31
723.097	3.69
723.122	2.69
723.148	-12.31
723.174	-3.31
723.2	4.69
723.226	2.69
723.252	7.69
723.278	2.69
723.304	-2.31
723.33	17.69
723.356	7.69
723.381	0.69
723.407	-13.31
723.433	7.69
723.459	4.69
723.485	-6.31
723.511	7.69
723.537	-3.31
723.563	-9.31
723.588	-2.31
723.614	8.69
723.64	-0.31
723.666	2.69
723.692	8.69
723.718	23.69
723.744	1.69
723.769	7.69
723.795	8.69
723.821	6.69
723.847	-4.31
723.873	13.69
723.899	11.69
723.924	4.69
723.95	17.69
723.976	3.69
724.002	15.69
724.028	10.69
724.053	-11.31
724.079	-12.31
724.105	-4.31
724.131	-3.31
724.157	-1.31
724.182	-1.31
724.208	5.69
724.234	11.69
724.26	1.69
724.286	20.69
724.311	-5.31
724.337	-7.31
724.363	-0.31
724.389	23.69
724.415	-2.31
724.44	20.69
724.466	-1.31
724.492	8.69
724.518	8.69
724.543	7.69
724.569	12.69
724.595	12.69
724.621	-1.31
724.646	-3.31
724.672	-7.31
724.698	-8.31
724.723	2.69
724.749	7.69
724.775	18.69
724.801	-1.31
724.826	0.69
724.852	0.69
724.878	-1.31
724.904	-0.31
724.929	2.69
724.955	-12.31
724.981	-3.31
725.006	4.69
725.032	2.69
725.058	4.69
725.083	3.69
725.109	7.69
725.135	1.69
725.161	16.69
725.186	-1.31
725.212	-2.31
725.238	14.69
725.263	14.69
725.289	-2.31
725.315	-9.31
725.34	15.69
725.366	5.69
725.392	1.69
725.417	-15.31
725.443	10.69
725.468	8.69
725.494	-1.31
725.52	9.69
725.545	-0.31
725.571	8.69
725.597	4.69
725.622	-3.31
725.648	-3.31
725.674	8.69
725.699	4.69
725.725	6.69
725.75	17.69
725.776	0.69
725.802	2.69
725.827	15.69
725.853	16.69
725.878	3.69
725.904	2.69
725.93	5.69
725.955	-1.31
725.981	-4.31
726.006	-9.31
726.032	12.69
726.057	5.69
726.083	0.69
726.109	14.69
726.134	-4.31
726.16	0.69
726.185	2.69
726.211	-16.31
726.236	9.69
726.262	14.69
726.288	14.69
726.313	5.69
726.339	8.69
726.364	19.69
726.39	10.69
726.415	-2.31
726.441	-6.31
726.466	-6.31
726.492	12.69
726.517	10.69
726.543	-5.31
726.568	0.69
726.594	5.69
726.619	0.69
726.645	-0.31
726.67	20.69
726.696	7.69
726.721	4.69
726.747	-4.31
726.772	3.69
726.798	-9.31
726.823	8.69
726.849	-11.31
726.874	8.69
726.9	27.69
726.925	15.69
726.951	-2.31
726.976	3.69
727.002	-4.31
727.027	-7.31
727.053	13.69
727.078	0.69
727.104	-0.31
727.129	-9.31
727.155	2.69
727.18	0.69
727.205	-5.31
727.231	0.69
727.256	2.69
727.282	22.69
727.307	10.69
727.333	-4.31
727.358	-5.31
727.383	-1.31
727.409	-8.31
727.434	5.69
727.46	17.69
727.485	17.69
727.511	14.69
727.536	-15.31
727.561	-11.31
727.587	-0.31
727.612	-9.31
727.637	-2.31
727.663	-4.31
727.688	14.69
727.714	-9.31
727.739	3.69
727.764	-0.31
727.79	6.69
727.815	12.69
727.841	9.69
727.866	19.69
727.891	7.69
727.917	-13.31
727.942	-15.31
727.967	4.69
727.993	-9.31
728.018	-15.31
728.043	-4.31
728.069	5.69
728.094	0.69
728.119	-2.31
728.145	24.69
728.17	11.69
728.195	3.69
728.221	18.69
728.246	0.69
728.271	-5.31
728.297	0.69
728.322	7.69
728.347	8.69
728.373	8.69
728.398	14.69
728.423	4.69
728.448	8.69
728.474	-1.31
728.499	10.69
728.524	-9.31
728.55	-5.31
728.575	-1.31
728.6	-2.31
728.625	-2.31
728.651	9.69
728.676	8.69
728.701	1.69
728.727	21.69
728.752	4.69
728.777	2.69
728.802	-1.31
728.828	-0.31
728.853	-3.31
728.878	-7.31
728.903	-0.31
728.929	-5.31
728.954	13.69
728.979	10.69
729.004	-2.31
729.03	3.69
729.055	2.69
729.08	-18.31
729.105	-12.31
729.13	-3.31
729.156	12.69
729.181	8.69
729.206	-12.31
729.231	-1.31
729.256	3.69
729.282	9.69
729.307	-18.31
729.332	-0.31
729.357	12.69
729.382	1.69
729.408	-0.31
729.433	9.69
729.458	23.69
729.483	22.69
729.508	24.69
729.533	1.69
729.559	2.69
729.584	-3.31
729.609	7.69
729.634	10.69
729.659	0.69
729.684	-13.31
729.71	27.69
729.735	-1.31
729.76	3.69
729.785	0.69
729.81	2.69
729.835	-17.31
729.86	-3.31
729.886	16.69
729.911	5.69
729.936	0.69
729.961	22.69
729.986	-1.31
730.011	-2.31
730.036	1.69
730.061	8.69
730.086	6.69
730.112	8.69
730.137	8.69
730.162	0.69
730.187	-7.31
730.212	7.69
730.237	-1.31
730.262	5.69
730.287	5.69
730.312	18.69
730.337	8.69
730.362	22.69
730.387	12.69
730.413	-7.31
730.438	-6.31
730.463	-0.31
730.488	-12.31
730.513	-0.31
730.538	14.69
730.563	15.69
730.588	21.69
730.613	32.69
730.638	1.69
730.663	-2.31
730.688	25.69
730.713	8.69
730.738	-0.31
730.763	-1.31
730.788	-17.31
730.813	6.69
730.838	-9.31
730.863	-0.31
730.888	5.69
730.913	2.69
730.938	-19.31
730.963	3.69
730.988	2.69
731.013	23.69
731.038	-12.31
731.063	-10.31
731.088	5.69
731.113	-5.31
731.138	5.69
731.163	10.69
731.188	2.69
731.213	-10.31
731.238	11.69
731.263	14.69
731.288	-7.31
731.313	12.69
731.338	12.69
731.363	-4.31
731.388	11.69
731.413	8.69
731.438	11.69
731.463	10.69
731.487	4.69
731.512	7.69
731.537	-2.31
731.562	-3.31
731.587	11.69
731.612	0.69
731.637	7.69
731.662	14.69
731.687	-3.31
731.712	-5.31
731.737	18.69
731.762	7.69
731.786	21.69
731.811	7.69
731.836	23.69
731.861	-5.31
731.886	-0.31
731.911	4.69
731.936	3.69
731.961	2.69
731.986	-3.31
732.01	-1.31
732.035	8.69
732.06	19.69
732.085	0.69
732.11	1.69
732.135	-6.31
732.16	-3.31
732.184	7.69
732.209	2.69
732.234	17.69
732.259	3.69
732.284	10.69
732.309	-17.31
732.334	-5.31
732.358	-2.31
732.383	1.69
732.408	-2.31
732.433	14.69
732.458	-1.31
732.482	12.69
732.507	9.69
732.532	-3.31
732.557	7.69
732.582	13.69
732.607	2.69
732.631	-11.31
732.656	6.69
732.681	9.69
732.706	5.69
732.73	-5.31
732.755	-4.31
732.78	-3.31
732.805	7.69
732.83	-1.31
732.854	7.69
732.879	7.69
732.904	7.69
732.929	-6.31
732.953	2.69
732.978	13.69
733.003	1.69
733.028	-6.31
733.052	-1.31
733.077	22.69
733.102	14.69
733.127	-3.31
733.151	-5.31
733.176	7.69
733.201	3.69
733.226	-12.31
733.25	-1.31
733.275	0.69
733.3	4.69
733.324	24.69
733.349	12.69
733.374	21.69
733.399	3.69
733.423	1.69
733.448	-4.31
733.473	-0.31
733.497	-4.31
733.522	-2.31
733.547	10.69
733.571	16.69
733.596	7.69
733.621	8.69
733.646	-3.31
733.67	7.69
733.695	-3.31
733.72	20.69
733.744	16.69
733.769	9.69
733.794	23.69
733.818	8.69
733.843	-0.31
733.867	-7.31
733.892	-7.31
733.917	-6.31
733.941	-1.31
733.966	-1.31
733.991	1.69
734.015	3.69
734.04	-0.31
734.065	7.69
734.089	20.69
734.114	-9.31
734.138	18.69
734.163	4.69
734.188	0.69
734.212	15.69
734.237	-0.31
734.261	8.69
734.286	-1.31
734.311	-5.31
734.335	-16.31
734.36	7.69
734.384	4.69
734.409	2.69
734.434	-9.31
734.458	13.69
734.483	2.69
734.507	-6.31
734.532	4.69
734.556	7.69
734.581	8.69
734.606	-5.31
734.63	-3.31
734.655	6.69
734.679	-1.31
734.704	-7.31
734.728	-0.31
734.753	-3.31
734.777	12.69
734.802	-7.31
734.826	1.69
734.851	-2.31
734.876	23.69
734.9	3.69
734.925	16.69
734.949	8.69
734.974	14.69
734.998	14.69
735.023	-4.31
735.047	-15.31
735.072	16.69
735.096	3.69
735.121	18.69
735.145	10.69
735.17	17.69
735.194	1.69
735.219	8.69
735.243	-0.31
735.268	22.69
735.292	4.69
735.317	3.69
735.341	6.69
735.365	-7.31
735.39	16.69
735.414	4.69
735.439	-1.31
735.463	1.69
735.488	16.69
735.512	15.69
735.537	8.69
735.561	11.69
735.586	3.69
735.61	3.69
735.634	-4.31
735.659	6.69
735.683	23.69
735.708	13.69
735.732	4.69
735.757	11.69
735.781	22.69
735.805	5.69
735.83	2.69
735.854	0.69
735.879	-3.31
735.903	20.69
735.927	9.69
735.952	-2.31
735.976	-3.31
736.001	9.69
736.025	9.69
736.049	8.69
736.074	0.69
736.098	1.69
736.123	8.69
736.147	6.69
736.171	11.69
736.196	11.69
736.22	2.69
736.244	13.69
736.269	16.69
736.293	-0.31
736.317	8.69
736.342	5.69
736.366	3.69
736.39	5.69
736.415	5.69
736.439	-5.31
736.463	6.69
736.488	17.69
736.512	9.69
736.536	6.69
736.561	18.69
736.585	11.69
736.609	12.69
736.634	-7.31
736.658	12.69
736.682	1.69
736.707	-13.31
736.731	-3.31
736.755	3.69
736.78	7.69
736.804	21.69
736.828	25.69
736.852	2.69
736.877	-1.31
736.901	16.69
736.925	-3.31
736.949	8.69
736.974	8.69
736.998	-8.31
737.022	12.69
737.047	3.69
737.071	5.69
737.095	7.69
737.119	13.69
737.144	14.69
737.168	-6.31
737.192	-13.31
737.216	2.69
737.241	2.69
737.265	12.69
737.289	-3.31
737.313	6.69
737.337	7.69
737.362	21.69
737.386	-2.31
737.41	-7.31
737.434	0.69
737.459	0.69
737.483	14.69
737.507	13.69
737.531	11.69
737.555	-1.31
737.58	14.69
737.604	-0.31
737.628	-12.31
737.652	15.69
737.676	6.69
737.701	10.69
737.725	11.69
737.749	21.69
737.773	2.69
737.797	0.69
737.821	2.69
737.846	-0.31
737.87	29.69
737.894	7.69
737.918	-2.31
737.942	6.69
737.966	12.69
737.99	-1.31
738.015	6.69
738.039	21.69
738.063	-3.31
738.087	17.69
738.111	16.69
738.135	6.69
738.159	-6.31
738.184	-1.31
738.208	13.69
738.232	27.69
738.256	25.69
738.28	26.69
738.304	6.69
738.328	5.69
738.352	3.69
738.376	10.69
738.4	10.69
738.425	-0.31
738.449	-10.31
738.473	5.69
738.497	7.69
738.521	3.69
738.545	5.69
738.569	14.69
738.593	16.69
738.617	24.69
738.641	0.69
738.665	3.69
738.689	12.69
738.713	4.69
738.737	16.69
738.762	21.69
738.786	0.69
738.81	-22.31
738.834	8.69
738.858	-4.31
738.882	9.69
738.906	0.69
738.93	7.69
738.954	9.69
738.978	5.69
739.002	-8.31
739.026	14.69
739.05	12.69
739.074	-7.31
739.098	18.69
739.122	16.69
739.146	14.69
739.17	19.69
739.194	2.69
739.218	2.69
739.242	2.69
739.266	-8.31
739.29	-2.31
739.314	4.69
739.338	3.69
739.362	-4.31
739.386	-4.31
739.41	-12.31
739.434	-2.31
739.458	27.69
739.482	10.69
739.506	25.69
739.53	1.69
739.554	27.69
739.577	2.69
739.601	2.69
739.625	9.69
739.649	22.69
739.673	-4.31
739.697	9.69
739.721	-5.31
739.745	4.69
739.769	13.69
739.793	5.69
739.817	16.69
739.841	2.69
739.865	0.69
739.889	12.69
739.912	15.69
739.936	4.69
739.96	5.69
739.984	25.69
740.008	5.69
740.032	2.69
740.056	-2.31
740.08	11.69
740.104	-7.31
740.127	11.69
740.151	3.69
740.175	24.69
740.199	27.69
740.223	50.69
740.247	13.69
740.271	0.69
740.295	-5.31
740.318	-12.31
740.342	-4.31
740.366	13.69
740.39	6.69
740.414	19.69
740.438	15.69
740.461	10.69
740.485	15.69
740.509	9.69
740.533	18.69
740.557	-4.31
740.581	0.69
740.604	-12.31
740.628	2.69
740.652	20.69
740.676	6.69
740.7	7.69
740.723	8.69
740.747	-3.31
740.771	-7.31
740.795	-10.31
740.819	4.69
740.842	10.69
740.866	6.69
740.89	12.69
740.914	7.69
740.938	-11.31
740.961	13.69
740.985	10.69
741.009	6.69
741.033	15.69
741.056	9.69
741.08	-2.31
741.104	0.69
741.128	7.69
741.151	13.69
741.175	11.69
741.199	8.69
741.223	11.69
741.246	6.69
741.27	17.69
741.294	12.69
741.318	-0.31
741.341	19.69
741.365	-0.31
741.389	2.69
741.413	3.69
741.436	23.69
741.46	2.69
741.484	30.69
741.507	6.69
741.531	36.69
741.555	18.69
741.579	3.69
741.602	14.69
741.626	0.69
741.65	-0.31
741.673	8.69
741.697	16.69
741.721	-0.31
741.744	-19.31
741.768	-8.31
741.792	3.69
741.815	-5.31
741.839	14.69
741.863	26.69
741.886	28.69
741.91	16.69
741.934	16.69
741.957	-6.31
741.981	24.69
742.005	13.69
742.028	-1.31
742.052	8.69
742.075	3.69
742.099	14.69
742.123	3.69
742.146	13.69
742.17	9.69
742.194	0.69
742.217	-7.31
742.241	-0.31
742.264	4.69
742.288	10.69
742.312	9.69
742.335	6.69
742.359	10.69
742.382	5.69
742.406	16.69
742.43	-2.31
742.453	4.69
742.477	0.69
742.5	21.69
742.524	1.69
742.548	7.69
742.571	7.69
742.595	14.69
742.618	12.69
742.642	9.69
742.665	14.69
742.689	-10.31
742.712	10.69
742.736	12.69
742.76	7.69
742.783	7.69
742.807	9.69
742.83	35.69
742.854	4.69
742.877	6.69
742.901	7.69
742.924	8.69
742.948	14.69
742.971	5.69
742.995	6.69
743.018	-4.31
743.042	-3.31
743.065	11.69
743.089	-0.31
743.112	-8.31
743.136	-9.31
743.159	-1.31
743.183	5.69
743.206	15.69
743.23	-1.31
743.253	10.69
743.277	10.69
743.3	-4.31
743.324	3.69
743.347	-4.31
743.371	14.69
743.394	22.69
743.418	24.69
743.441	10.69
743.465	10.69
743.488	10.69
743.512	-7.31
743.535	1.69
743.558	-0.31
743.582	2.69
743.605	7.69
743.629	11.69
743.652	6.69
743.676	4.69
743.699	16.69
743.723	18.69
743.746	7.69
743.769	0.69
743.793	7.69
743.816	10.69
743.84	3.69
743.863	-4.31
743.886	3.69
743.91	8.69
743.933	14.69
743.957	8.69
743.98	1.69
744.003	13.69
744.027	7.69
744.05	3.69
744.074	-3.31
744.097	-1.31
744.12	3.69
744.144	6.69
744.167	6.69
744.19	14.69
744.214	-2.31
744.237	-1.31
744.26	23.69
744.284	-0.31
744.307	2.69
744.331	8.69
744.354	-6.31
744.377	4.69
744.401	4.69
744.424	0.69
744.447	-6.31
744.471	2.69
