Data from HighRes_H2_15_09_11_07_2024_HR4C61891__84__15-11-04-802.txt Node

Date: Thu Nov 07 15:11:04 EST 2024
User: crc00042
Spectrometer: HR4C6189
Trigger mode: 4
Integration Time (sec): 1.000000E-1
Scans to average: 1
Electric dark correction enabled: true
Nonlinearity correction enabled: false
Boxcar width: 0
XAxis mode: Wavelengths
Number of Pixels in Spectrum: 3648
>>>>>Begin Spectral Data<<<<<
639.567	-53.62
639.602	-53.62
639.636	-53.62
639.67	-42.62
639.704	-21.62
639.738	-0.62
639.773	12.38
639.807	-16.62
639.841	10.38
639.875	10.38
639.909	-12.62
639.943	-11.62
639.978	0.38
640.012	3.38
640.046	12.38
640.08	5.38
640.114	-4.62
640.148	-8.62
640.182	-4.62
640.217	-9.62
640.251	1.38
640.285	2.38
640.319	-12.62
640.353	-5.62
640.387	5.38
640.421	1.38
640.455	-13.62
640.49	-3.62
640.524	4.38
640.558	0.38
640.592	-4.62
640.626	16.38
640.66	1.38
640.694	-7.62
640.728	7.38
640.762	10.38
640.796	13.38
640.83	21.38
640.865	-9.62
640.899	-8.62
640.933	-21.62
640.967	5.38
641.001	7.38
641.035	-0.62
641.069	-13.62
641.103	-7.62
641.137	-8.62
641.171	-25.62
641.205	5.38
641.239	5.38
641.273	26.38
641.307	5.38
641.341	-10.62
641.375	7.38
641.409	12.38
641.443	7.38
641.477	18.38
641.511	15.38
641.545	15.38
641.579	-4.62
641.614	1.38
641.648	4.38
641.682	-6.62
641.716	12.38
641.75	13.38
641.784	3.38
641.818	1.38
641.852	1.38
641.886	-8.62
641.919	11.38
641.953	9.38
641.987	2.38
642.021	-9.62
642.055	0.38
642.089	6.38
642.123	-3.62
642.157	0.38
642.191	-5.62
642.225	-2.62
642.259	-29.62
642.293	3.38
642.327	6.38
642.361	6.38
642.395	16.38
642.429	17.38
642.463	-7.62
642.497	16.38
642.531	-8.62
642.565	5.38
642.599	-3.62
642.633	-6.62
642.666	13.38
642.7	15.38
642.734	12.38
642.768	5.38
642.802	2.38
642.836	3.38
642.87	1.38
642.904	10.38
642.938	20.38
642.972	2.38
643.005	-1.62
643.039	17.38
643.073	-7.62
643.107	2.38
643.141	-8.62
643.175	1.38
643.209	6.38
643.243	14.38
643.276	2.38
643.31	10.38
643.344	-0.62
643.378	8.38
643.412	5.38
643.446	8.38
643.48	-8.62
643.513	20.38
643.547	9.38
643.581	-4.62
643.615	30.38
643.649	6.38
643.683	7.38
643.716	-10.62
643.75	-4.62
643.784	-22.62
643.818	3.38
643.852	9.38
643.886	-6.62
643.919	3.38
643.953	-13.62
643.987	4.38
644.021	8.38
644.055	5.38
644.088	-8.62
644.122	-3.62
644.156	0.38
644.19	4.38
644.224	-6.62
644.257	3.38
644.291	6.38
644.325	-7.62
644.359	-6.62
644.392	11.38
644.426	4.38
644.46	0.38
644.494	8.38
644.527	-9.62
644.561	3.38
644.595	12.38
644.629	-3.62
644.662	-6.62
644.696	17.38
644.73	14.38
644.764	-9.62
644.797	-6.62
644.831	6.38
644.865	23.38
644.899	4.38
644.932	27.38
644.966	5.38
645	11.38
645.033	25.38
645.067	-4.62
645.101	5.38
645.135	-6.62
645.168	-0.62
645.202	-8.62
645.236	-10.62
645.269	10.38
645.303	8.38
645.337	4.38
645.37	-22.62
645.404	-3.62
645.438	-7.62
645.471	-14.62
645.505	-2.62
645.539	-0.62
645.572	-20.62
645.606	12.38
645.64	2.38
645.673	8.38
645.707	2.38
645.741	0.38
645.774	-3.62
645.808	-7.62
645.842	-12.62
645.875	6.38
645.909	2.38
645.943	-13.62
645.976	16.38
646.01	10.38
646.043	1.38
646.077	13.38
646.111	-3.62
646.144	11.38
646.178	7.38
646.212	-6.62
646.245	0.38
646.279	11.38
646.312	11.38
646.346	9.38
646.38	7.38
646.413	9.38
646.447	-8.62
646.48	-3.62
646.514	4.38
646.547	-5.62
646.581	-4.62
646.615	8.38
646.648	-7.62
646.682	3.38
646.715	-0.62
646.749	-1.62
646.782	-3.62
646.816	-1.62
646.85	-8.62
646.883	-3.62
646.917	8.38
646.95	-9.62
646.984	-2.62
647.017	2.38
647.051	2.38
647.084	6.38
647.118	3.38
647.151	-6.62
647.185	0.38
647.218	-9.62
647.252	13.38
647.285	-10.62
647.319	-23.62
647.353	-6.62
647.386	29.38
647.42	3.38
647.453	0.38
647.487	-0.62
647.52	16.38
647.553	-0.62
647.587	4.38
647.62	-5.62
647.654	-8.62
647.687	-3.62
647.721	5.38
647.754	-4.62
647.788	-2.62
647.821	-4.62
647.855	1.38
647.888	19.38
647.922	12.38
647.955	13.38
647.989	7.38
648.022	-13.62
648.055	12.38
648.089	-8.62
648.122	28.38
648.156	-3.62
648.189	5.38
648.223	24.38
648.256	20.38
648.29	18.38
648.323	5.38
648.356	11.38
648.39	15.38
648.423	1.38
648.457	1.38
648.49	6.38
648.523	8.38
648.557	-5.62
648.59	-3.62
648.624	-4.62
648.657	8.38
648.69	11.38
648.724	17.38
648.757	18.38
648.791	7.38
648.824	5.38
648.857	7.38
648.891	11.38
648.924	-5.62
648.957	14.38
648.991	-13.62
649.024	3.38
649.057	6.38
649.091	-5.62
649.124	6.38
649.158	4.38
649.191	23.38
649.224	2.38
649.258	-2.62
649.291	2.38
649.324	-1.62
649.358	4.38
649.391	8.38
649.424	7.38
649.458	2.38
649.491	-2.62
649.524	-8.62
649.557	-7.62
649.591	-6.62
649.624	6.38
649.657	1.38
649.691	0.38
649.724	3.38
649.757	5.38
649.791	-4.62
649.824	19.38
649.857	2.38
649.89	7.38
649.924	-5.62
649.957	-1.62
649.99	-5.62
650.023	-7.62
650.057	-1.62
650.09	12.38
650.123	12.38
650.157	19.38
650.19	25.38
650.223	-8.62
650.256	-4.62
650.29	4.38
650.323	-4.62
650.356	9.38
650.389	5.38
650.423	3.38
650.456	6.38
650.489	1.38
650.522	9.38
650.555	17.38
650.589	20.38
650.622	-11.62
650.655	16.38
650.688	0.38
650.721	1.38
650.755	7.38
650.788	16.38
650.821	10.38
650.854	-7.62
650.887	-2.62
650.921	-17.62
650.954	-17.62
650.987	-0.62
651.02	2.38
651.053	4.38
651.087	2.38
651.12	15.38
651.153	1.38
651.186	-9.62
651.219	-1.62
651.252	18.38
651.286	24.38
651.319	1.38
651.352	8.38
651.385	20.38
651.418	4.38
651.451	8.38
651.484	12.38
651.518	-0.62
651.551	30.38
651.584	-0.62
651.617	27.38
651.65	4.38
651.683	16.38
651.716	7.38
651.749	5.38
651.783	-4.62
651.816	8.38
651.849	9.38
651.882	-2.62
651.915	-11.62
651.948	9.38
651.981	7.38
652.014	-0.62
652.047	-6.62
652.08	-1.62
652.114	-5.62
652.147	-1.62
652.18	14.38
652.213	31.38
652.246	3.38
652.279	3.38
652.312	5.38
652.345	-5.62
652.378	2.38
652.411	15.38
652.444	7.38
652.477	0.38
652.51	16.38
652.543	-13.62
652.576	-11.62
652.609	-26.62
652.642	1.38
652.675	9.38
652.709	11.38
652.742	17.38
652.775	-7.62
652.808	23.38
652.841	2.38
652.874	7.38
652.907	-10.62
652.94	0.38
652.973	2.38
653.006	11.38
653.039	9.38
653.072	-0.62
653.105	-2.62
653.138	-31.62
653.171	2.38
653.204	-0.62
653.237	7.38
653.27	-6.62
653.303	12.38
653.336	23.38
653.368	-11.62
653.401	-12.62
653.434	5.38
653.467	-0.62
653.5	-10.62
653.533	-4.62
653.566	16.38
653.599	6.38
653.632	8.38
653.665	6.38
653.698	-12.62
653.731	-15.62
653.764	7.38
653.797	6.38
653.83	8.38
653.863	-1.62
653.896	0.38
653.929	19.38
653.961	-8.62
653.994	-5.62
654.027	1.38
654.06	8.38
654.093	3.38
654.126	13.38
654.159	-5.62
654.192	12.38
654.225	-1.62
654.258	1.38
654.29	10.38
654.323	5.38
654.356	4.38
654.389	16.38
654.422	8.38
654.455	3.38
654.488	4.38
654.521	-9.62
654.553	4.38
654.586	0.38
654.619	-5.62
654.652	2.38
654.685	12.38
654.718	6.38
654.751	-11.62
654.783	-19.62
654.816	23.38
654.849	12.38
654.882	-7.62
654.915	-4.62
654.948	-5.62
654.98	3.38
655.013	-6.62
655.046	-7.62
655.079	-4.62
655.112	-2.62
655.144	-11.62
655.177	11.38
655.21	23.38
655.243	9.38
655.276	4.38
655.308	1.38
655.341	-12.62
655.374	16.38
655.407	11.38
655.44	18.38
655.472	14.38
655.505	28.38
655.538	20.38
655.571	25.38
655.603	21.38
655.636	14.38
655.669	13.38
655.702	21.38
655.734	11.38
655.767	9.38
655.8	20.38
655.833	12.38
655.865	32.38
655.898	38.38
655.931	22.38
655.964	52.38
655.996	56.38
656.029	63.38
656.062	58.38
656.095	68.38
656.127	53.38
656.16	114.38
656.193	133.38
656.225	185.38
656.258	277.38
656.291	513.38
656.324	1137.38
656.356	3377.38
656.389	7506.38
656.422	6009.38
656.454	2051.38
656.487	664.38
656.52	256.38
656.552	126.38
656.585	66.38
656.618	46.38
656.65	62.38
656.683	26.38
656.716	22.38
656.748	6.38
656.781	2.38
656.814	0.38
656.846	10.38
656.879	19.38
656.912	12.38
656.944	-9.62
656.977	-8.62
657.01	3.38
657.042	17.38
657.075	11.38
657.108	-8.62
657.14	15.38
657.173	21.38
657.205	23.38
657.238	6.38
657.271	1.38
657.303	3.38
657.336	8.38
657.369	7.38
657.401	0.38
657.434	8.38
657.466	19.38
657.499	23.38
657.532	5.38
657.564	8.38
657.597	15.38
657.629	9.38
657.662	3.38
657.694	2.38
657.727	-7.62
657.76	9.38
657.792	-2.62
657.825	-1.62
657.857	-9.62
657.89	-5.62
657.922	11.38
657.955	-13.62
657.987	5.38
658.02	27.38
658.053	12.38
658.085	-0.62
658.118	7.38
658.15	10.38
658.183	10.38
658.215	10.38
658.248	-15.62
658.28	5.38
658.313	23.38
658.345	5.38
658.378	11.38
658.41	-7.62
658.443	15.38
658.475	-2.62
658.508	10.38
658.54	-3.62
658.573	-18.62
658.605	-2.62
658.638	11.38
658.67	12.38
658.703	-1.62
658.735	-13.62
658.768	6.38
658.8	-4.62
658.833	18.38
658.865	-0.62
658.898	4.38
658.93	-4.62
658.963	-11.62
658.995	-22.62
659.028	-6.62
659.06	-6.62
659.092	20.38
659.125	7.38
659.157	0.38
659.19	-13.62
659.222	-10.62
659.255	0.38
659.287	3.38
659.32	0.38
659.352	6.38
659.384	3.38
659.417	-12.62
659.449	2.38
659.482	8.38
659.514	0.38
659.546	1.38
659.579	0.38
659.611	16.38
659.644	-0.62
659.676	-7.62
659.708	-0.62
659.741	-21.62
659.773	4.38
659.806	-9.62
659.838	1.38
659.87	3.38
659.903	-0.62
659.935	2.38
659.967	5.38
660	5.38
660.032	-7.62
660.065	1.38
660.097	0.38
660.129	14.38
660.162	2.38
660.194	11.38
660.226	11.38
660.259	11.38
660.291	-7.62
660.323	0.38
660.356	15.38
660.388	-4.62
660.42	10.38
660.453	11.38
660.485	10.38
660.517	9.38
660.55	14.38
660.582	7.38
660.614	17.38
660.647	5.38
660.679	-2.62
660.711	10.38
660.743	-3.62
660.776	-4.62
660.808	-12.62
660.84	-7.62
660.873	-10.62
660.905	3.38
660.937	4.38
660.969	16.38
661.002	2.38
661.034	22.38
661.066	0.38
661.099	3.38
661.131	3.38
661.163	-2.62
661.195	-13.62
661.228	10.38
661.26	-7.62
661.292	-5.62
661.324	5.38
661.357	20.38
661.389	-3.62
661.421	4.38
661.453	14.38
661.485	8.38
661.518	-11.62
661.55	-8.62
661.582	-7.62
661.614	-5.62
661.647	8.38
661.679	10.38
661.711	13.38
661.743	-3.62
661.775	2.38
661.808	11.38
661.84	-10.62
661.872	-12.62
661.904	19.38
661.936	23.38
661.969	-8.62
662.001	4.38
662.033	6.38
662.065	-4.62
662.097	4.38
662.129	1.38
662.162	0.38
662.194	-8.62
662.226	8.38
662.258	27.38
662.29	2.38
662.322	-8.62
662.355	-8.62
662.387	22.38
662.419	13.38
662.451	5.38
662.483	1.38
662.515	-5.62
662.547	-16.62
662.58	-14.62
662.612	-4.62
662.644	-7.62
662.676	10.38
662.708	28.38
662.74	4.38
662.772	9.38
662.804	18.38
662.836	0.38
662.869	0.38
662.901	-2.62
662.933	3.38
662.965	12.38
662.997	5.38
663.029	-11.62
663.061	-2.62
663.093	-6.62
663.125	0.38
663.157	11.38
663.189	-14.62
663.221	0.38
663.254	-3.62
663.286	8.38
663.318	5.38
663.35	0.38
663.382	-10.62
663.414	8.38
663.446	7.38
663.478	-0.62
663.51	16.38
663.542	-29.62
663.574	3.38
663.606	10.38
663.638	5.38
663.67	-4.62
663.702	5.38
663.734	-6.62
663.766	-2.62
663.798	-1.62
663.83	-3.62
663.862	5.38
663.894	12.38
663.926	-2.62
663.958	9.38
663.99	1.38
664.022	-7.62
664.054	28.38
664.086	-5.62
664.118	1.38
664.15	-10.62
664.182	2.38
664.214	6.38
664.246	6.38
664.278	-12.62
664.31	5.38
664.342	2.38
664.374	-1.62
664.406	0.38
664.438	2.38
664.47	14.38
664.502	-6.62
664.534	-5.62
664.566	2.38
664.598	8.38
664.63	1.38
664.662	5.38
664.693	3.38
664.725	-3.62
664.757	-13.62
664.789	-13.62
664.821	2.38
664.853	5.38
664.885	8.38
664.917	-3.62
664.949	6.38
664.981	16.38
665.013	7.38
665.045	-11.62
665.076	0.38
665.108	8.38
665.14	-6.62
665.172	3.38
665.204	-18.62
665.236	0.38
665.268	6.38
665.3	-3.62
665.331	9.38
665.363	3.38
665.395	0.38
665.427	-8.62
665.459	13.38
665.491	-7.62
665.523	-1.62
665.555	3.38
665.586	4.38
665.618	-5.62
665.65	-7.62
665.682	24.38
665.714	10.38
665.746	-20.62
665.777	-12.62
665.809	-4.62
665.841	7.38
665.873	4.38
665.905	3.38
665.937	19.38
665.968	12.38
666	7.38
666.032	19.38
666.064	2.38
666.096	-8.62
666.127	12.38
666.159	17.38
666.191	7.38
666.223	6.38
666.255	5.38
666.286	17.38
666.318	-17.62
666.35	11.38
666.382	18.38
666.413	0.38
666.445	-9.62
666.477	-1.62
666.509	-0.62
666.54	1.38
666.572	1.38
666.604	4.38
666.636	-19.62
666.667	22.38
666.699	17.38
666.731	8.38
666.763	-15.62
666.794	-9.62
666.826	-7.62
666.858	-12.62
666.89	3.38
666.921	-3.62
666.953	0.38
666.985	6.38
667.017	16.38
667.048	4.38
667.08	-1.62
667.112	-4.62
667.143	4.38
667.175	-5.62
667.207	-4.62
667.238	10.38
667.27	16.38
667.302	-8.62
667.334	-10.62
667.365	15.38
667.397	4.38
667.429	-7.62
667.46	16.38
667.492	6.38
667.524	-4.62
667.555	-1.62
667.587	8.38
667.619	-1.62
667.65	-18.62
667.682	9.38
667.714	3.38
667.745	18.38
667.777	-5.62
667.808	9.38
667.84	3.38
667.872	5.38
667.903	20.38
667.935	2.38
667.967	-7.62
667.998	-16.62
668.03	2.38
668.061	6.38
668.093	-0.62
668.125	0.38
668.156	8.38
668.188	22.38
668.22	2.38
668.251	11.38
668.283	11.38
668.314	20.38
668.346	-3.62
668.377	-11.62
668.409	-3.62
668.441	5.38
668.472	1.38
668.504	13.38
668.535	6.38
668.567	-5.62
668.599	-5.62
668.63	-9.62
668.662	1.38
668.693	8.38
668.725	10.38
668.756	11.38
668.788	15.38
668.819	5.38
668.851	-2.62
668.882	1.38
668.914	-2.62
668.946	5.38
668.977	-0.62
669.009	3.38
669.04	-10.62
669.072	0.38
669.103	3.38
669.135	4.38
669.166	-5.62
669.198	4.38
669.229	14.38
669.261	10.38
669.292	-8.62
669.324	-7.62
669.355	-6.62
669.387	-0.62
669.418	-3.62
669.45	-10.62
669.481	7.38
669.513	6.38
669.544	16.38
669.576	2.38
669.607	12.38
669.639	-1.62
669.67	-21.62
669.701	17.38
669.733	-10.62
669.764	0.38
669.796	-5.62
669.827	-15.62
669.859	-11.62
669.89	8.38
669.922	14.38
669.953	3.38
669.985	2.38
670.016	-9.62
670.047	-6.62
670.079	-10.62
670.11	-0.62
670.142	8.38
670.173	-2.62
670.204	3.38
670.236	1.38
670.267	-13.62
670.299	-4.62
670.33	15.38
670.362	5.38
670.393	-13.62
670.424	10.38
670.456	-0.62
670.487	-5.62
670.518	3.38
670.55	-0.62
670.581	9.38
670.613	20.38
670.644	4.38
670.675	-4.62
670.707	-11.62
670.738	-7.62
670.769	-3.62
670.801	-8.62
670.832	6.38
670.864	-15.62
670.895	12.38
670.926	5.38
670.958	0.38
670.989	3.38
671.02	-19.62
671.052	-13.62
671.083	-2.62
671.114	11.38
671.146	5.38
671.177	-0.62
671.208	-4.62
671.24	-6.62
671.271	-3.62
671.302	-2.62
671.333	-7.62
671.365	-14.62
671.396	-9.62
671.427	8.38
671.459	8.38
671.49	-6.62
671.521	-4.62
671.553	0.38
671.584	3.38
671.615	0.38
671.646	25.38
671.678	1.38
671.709	-6.62
671.74	-23.62
671.771	-20.62
671.803	-14.62
671.834	8.38
671.865	2.38
671.896	-4.62
671.928	-15.62
671.959	10.38
671.99	3.38
672.021	-2.62
672.053	-6.62
672.084	11.38
672.115	3.38
672.146	11.38
672.178	-11.62
672.209	-1.62
672.24	2.38
672.271	-2.62
672.303	11.38
672.334	0.38
672.365	-11.62
672.396	10.38
672.427	0.38
672.459	6.38
672.49	5.38
672.521	2.38
672.552	17.38
672.583	8.38
672.615	-9.62
672.646	10.38
672.677	7.38
672.708	-1.62
672.739	10.38
672.77	25.38
672.802	28.38
672.833	-4.62
672.864	-0.62
672.895	-18.62
672.926	-12.62
672.957	-11.62
672.989	0.38
673.02	4.38
673.051	4.38
673.082	17.38
673.113	-6.62
673.144	3.38
673.175	-11.62
673.206	-15.62
673.238	5.38
673.269	-4.62
673.3	0.38
673.331	18.38
673.362	-3.62
673.393	-3.62
673.424	5.38
673.455	17.38
673.487	7.38
673.518	9.38
673.549	9.38
673.58	16.38
673.611	12.38
673.642	3.38
673.673	-9.62
673.704	4.38
673.735	-2.62
673.766	-7.62
673.797	8.38
673.828	8.38
673.86	1.38
673.891	-6.62
673.922	-9.62
673.953	6.38
673.984	11.38
674.015	16.38
674.046	6.38
674.077	5.38
674.108	-3.62
674.139	-8.62
674.17	2.38
674.201	-0.62
674.232	-3.62
674.263	-8.62
674.294	-14.62
674.325	-14.62
674.356	11.38
674.387	17.38
674.418	-8.62
674.449	-15.62
674.48	-10.62
674.511	-2.62
674.542	1.38
674.573	-1.62
674.604	12.38
674.635	7.38
674.666	8.38
674.697	-3.62
674.728	-10.62
674.759	-3.62
674.79	2.38
674.821	-11.62
674.852	-10.62
674.883	0.38
674.914	-10.62
674.945	3.38
674.976	8.38
675.007	8.38
675.038	-7.62
675.069	-5.62
675.1	1.38
675.131	17.38
675.162	-17.62
675.193	-3.62
675.224	-1.62
675.254	9.38
675.285	15.38
675.316	13.38
675.347	6.38
675.378	-5.62
675.409	-3.62
675.44	5.38
675.471	-3.62
675.502	-7.62
675.533	-1.62
675.564	-4.62
675.595	-1.62
675.625	10.38
675.656	6.38
675.687	13.38
675.718	-3.62
675.749	17.38
675.78	16.38
675.811	-1.62
675.842	7.38
675.873	5.38
675.903	3.38
675.934	7.38
675.965	5.38
675.996	-12.62
676.027	4.38
676.058	0.38
676.089	-11.62
676.119	-8.62
676.15	-5.62
676.181	5.38
676.212	1.38
676.243	11.38
676.274	5.38
676.304	19.38
676.335	1.38
676.366	-1.62
676.397	2.38
676.428	-2.62
676.459	5.38
676.489	15.38
676.52	6.38
676.551	0.38
676.582	0.38
676.613	-2.62
676.643	-15.62
676.674	5.38
676.705	-0.62
676.736	30.38
676.767	20.38
676.797	9.38
676.828	9.38
676.859	-6.62
676.89	5.38
676.92	7.38
676.951	7.38
676.982	-9.62
677.013	3.38
677.044	20.38
677.074	-3.62
677.105	-8.62
677.136	20.38
677.167	-5.62
677.197	15.38
677.228	-0.62
677.259	-8.62
677.289	12.38
677.32	-0.62
677.351	-10.62
677.382	-1.62
677.412	-10.62
677.443	6.38
677.474	7.38
677.505	3.38
677.535	9.38
677.566	-0.62
677.597	-5.62
677.627	-4.62
677.658	3.38
677.689	2.38
677.72	-1.62
677.75	-2.62
677.781	-6.62
677.812	14.38
677.842	8.38
677.873	8.38
677.904	11.38
677.934	6.38
677.965	6.38
677.996	-2.62
678.026	9.38
678.057	-17.62
678.088	4.38
678.118	7.38
678.149	-13.62
678.18	4.38
678.21	-7.62
678.241	11.38
678.272	-4.62
678.302	15.38
678.333	20.38
678.363	9.38
678.394	-3.62
678.425	-5.62
678.455	13.38
678.486	4.38
678.517	10.38
678.547	3.38
678.578	-2.62
678.608	-11.62
678.639	8.38
678.67	-4.62
678.7	-9.62
678.731	-0.62
678.761	4.38
678.792	12.38
678.823	8.38
678.853	5.38
678.884	-11.62
678.914	3.38
678.945	11.38
678.975	-6.62
679.006	-0.62
679.037	-3.62
679.067	27.38
679.098	6.38
679.128	-13.62
679.159	-7.62
679.189	10.38
679.22	-13.62
679.25	8.38
679.281	-8.62
679.312	-4.62
679.342	14.38
679.373	20.38
679.403	0.38
679.434	7.38
679.464	0.38
679.495	2.38
679.525	6.38
679.556	0.38
679.586	9.38
679.617	-7.62
679.647	-10.62
679.678	-1.62
679.708	5.38
679.739	7.38
679.769	-3.62
679.8	-2.62
679.83	-4.62
679.861	2.38
679.891	3.38
679.922	-5.62
679.952	-10.62
679.983	7.38
680.013	0.38
680.044	-10.62
680.074	12.38
680.105	3.38
680.135	5.38
680.165	-5.62
680.196	14.38
680.226	3.38
680.257	4.38
680.287	4.38
680.318	-8.62
680.348	-10.62
680.379	7.38
680.409	13.38
680.439	0.38
680.47	5.38
680.5	-4.62
680.531	-19.62
680.561	0.38
680.592	6.38
680.622	17.38
680.652	7.38
680.683	3.38
680.713	-4.62
680.744	-0.62
680.774	-15.62
680.804	12.38
680.835	6.38
680.865	-7.62
680.896	19.38
680.926	17.38
680.956	16.38
680.987	12.38
681.017	0.38
681.047	-1.62
681.078	-3.62
681.108	-1.62
681.139	-4.62
681.169	0.38
681.199	-21.62
681.23	11.38
681.26	7.38
681.29	33.38
681.321	7.38
681.351	5.38
681.381	2.38
681.412	8.38
681.442	-7.62
681.472	10.38
681.503	17.38
681.533	13.38
681.563	5.38
681.594	-4.62
681.624	-10.62
681.654	1.38
681.685	-6.62
681.715	-0.62
681.745	-8.62
681.775	0.38
681.806	0.38
681.836	0.38
681.866	-12.62
681.897	6.38
681.927	3.38
681.957	-15.62
681.987	-1.62
682.018	-9.62
682.048	-19.62
682.078	3.38
682.109	13.38
682.139	4.38
682.169	-13.62
682.199	-0.62
682.23	-9.62
682.26	19.38
682.29	-12.62
682.32	0.38
682.351	2.38
682.381	-0.62
682.411	-5.62
682.441	-11.62
682.472	-3.62
682.502	-4.62
682.532	-10.62
682.562	4.38
682.592	3.38
682.623	15.38
682.653	7.38
682.683	1.38
682.713	9.38
682.743	-1.62
682.774	1.38
682.804	6.38
682.834	10.38
682.864	-1.62
682.894	8.38
682.925	7.38
682.955	-6.62
682.985	-5.62
683.015	-6.62
683.045	19.38
683.076	-3.62
683.106	5.38
683.136	-0.62
683.166	1.38
683.196	-1.62
683.226	5.38
683.257	-6.62
683.287	-10.62
683.317	-4.62
683.347	5.38
683.377	-5.62
683.407	5.38
683.437	10.38
683.468	17.38
683.498	-10.62
683.528	-4.62
683.558	6.38
683.588	-10.62
683.618	-5.62
683.648	-10.62
683.678	2.38
683.708	23.38
683.739	8.38
683.769	1.38
683.799	-3.62
683.829	0.38
683.859	-4.62
683.889	11.38
683.919	5.38
683.949	3.38
683.979	-6.62
684.009	8.38
684.039	16.38
684.07	-2.62
684.1	13.38
684.13	8.38
684.16	10.38
684.19	0.38
684.22	-6.62
684.25	10.38
684.28	3.38
684.31	8.38
684.34	22.38
684.37	8.38
684.4	0.38
684.43	28.38
684.46	6.38
684.49	5.38
684.52	6.38
684.55	12.38
684.58	-7.62
684.61	13.38
684.64	18.38
684.67	14.38
684.7	-0.62
684.73	2.38
684.76	-7.62
684.79	6.38
684.82	5.38
684.85	-1.62
684.88	1.38
684.91	6.38
684.94	-9.62
684.97	4.38
685	-3.62
685.03	-2.62
685.06	-7.62
685.09	-14.62
685.12	12.38
685.15	-14.62
685.18	4.38
685.21	8.38
685.24	7.38
685.27	11.38
685.3	-2.62
685.33	-3.62
685.36	1.38
685.39	2.38
685.42	-19.62
685.45	10.38
685.48	-6.62
685.51	3.38
685.54	8.38
685.569	25.38
685.599	11.38
685.629	15.38
685.659	2.38
685.689	4.38
685.719	11.38
685.749	7.38
685.779	5.38
685.809	-0.62
685.839	1.38
685.869	4.38
685.898	8.38
685.928	0.38
685.958	3.38
685.988	-0.62
686.018	-0.62
686.048	9.38
686.078	3.38
686.108	8.38
686.137	5.38
686.167	3.38
686.197	-5.62
686.227	-4.62
686.257	26.38
686.287	22.38
686.317	15.38
686.346	13.38
686.376	-2.62
686.406	-5.62
686.436	23.38
686.466	1.38
686.496	14.38
686.525	17.38
686.555	10.38
686.585	7.38
686.615	21.38
686.645	1.38
686.675	4.38
686.704	6.38
686.734	-0.62
686.764	4.38
686.794	17.38
686.824	-3.62
686.853	12.38
686.883	0.38
686.913	14.38
686.943	-4.62
686.973	-7.62
687.002	4.38
687.032	15.38
687.062	-3.62
687.092	23.38
687.121	0.38
687.151	9.38
687.181	-4.62
687.211	2.38
687.24	12.38
687.27	7.38
687.3	-4.62
687.33	5.38
687.359	-7.62
687.389	10.38
687.419	0.38
687.449	-1.62
687.478	7.38
687.508	-3.62
687.538	11.38
687.568	7.38
687.597	9.38
687.627	-4.62
687.657	-1.62
687.686	8.38
687.716	31.38
687.746	-2.62
687.776	-11.62
687.805	2.38
687.835	-3.62
687.865	23.38
687.894	9.38
687.924	-16.62
687.954	-3.62
687.983	7.38
688.013	16.38
688.043	8.38
688.072	-14.62
688.102	-3.62
688.132	-19.62
688.161	10.38
688.191	9.38
688.221	19.38
688.25	-14.62
688.28	-2.62
688.31	-10.62
688.339	13.38
688.369	4.38
688.399	-0.62
688.428	-3.62
688.458	0.38
688.488	-6.62
688.517	24.38
688.547	-14.62
688.576	36.38
688.606	30.38
688.636	-6.62
688.665	-0.62
688.695	11.38
688.725	20.38
688.754	15.38
688.784	6.38
688.813	10.38
688.843	3.38
688.873	-5.62
688.902	-0.62
688.932	-11.62
688.961	-0.62
688.991	17.38
689.02	10.38
689.05	-3.62
689.08	13.38
689.109	12.38
689.139	7.38
689.168	4.38
689.198	-1.62
689.227	7.38
689.257	2.38
689.287	10.38
689.316	-0.62
689.346	-17.62
689.375	-7.62
689.405	1.38
689.434	-6.62
689.464	1.38
689.493	-13.62
689.523	-23.62
689.552	-7.62
689.582	-10.62
689.611	-1.62
689.641	7.38
689.67	0.38
689.7	12.38
689.73	8.38
689.759	-11.62
689.789	5.38
689.818	-6.62
689.848	5.38
689.877	7.38
689.906	-9.62
689.936	1.38
689.965	26.38
689.995	11.38
690.024	1.38
690.054	-0.62
690.083	10.38
690.113	10.38
690.142	1.38
690.172	3.38
690.201	12.38
690.231	-10.62
690.26	-3.62
690.29	-2.62
690.319	17.38
690.348	1.38
690.378	9.38
690.407	15.38
690.437	7.38
690.466	0.38
690.496	-1.62
690.525	13.38
690.555	-6.62
690.584	-6.62
690.613	-12.62
690.643	11.38
690.672	6.38
690.702	14.38
690.731	-1.62
690.76	-13.62
690.79	-6.62
690.819	-2.62
690.849	-4.62
690.878	-4.62
690.907	7.38
690.937	5.38
690.966	15.38
690.996	-6.62
691.025	-7.62
691.054	1.38
691.084	8.38
691.113	-3.62
691.142	0.38
691.172	12.38
691.201	5.38
691.23	11.38
691.26	19.38
691.289	9.38
691.319	-7.62
691.348	-5.62
691.377	5.38
691.407	-1.62
691.436	4.38
691.465	-1.62
691.495	-4.62
691.524	-2.62
691.553	5.38
691.583	-6.62
691.612	16.38
691.641	0.38
691.67	1.38
691.7	5.38
691.729	-20.62
691.758	-2.62
691.788	-6.62
691.817	-4.62
691.846	8.38
691.876	3.38
691.905	-1.62
691.934	-3.62
691.963	28.38
691.993	-7.62
692.022	9.38
692.051	-6.62
692.081	19.38
692.11	18.38
692.139	22.38
692.168	16.38
692.198	24.38
692.227	6.38
692.256	2.38
692.285	-6.62
692.315	2.38
692.344	20.38
692.373	6.38
692.402	-19.62
692.432	-14.62
692.461	2.38
692.49	-4.62
692.519	2.38
692.548	15.38
692.578	15.38
692.607	-10.62
692.636	-6.62
692.665	-0.62
692.694	-6.62
692.724	0.38
692.753	11.38
692.782	8.38
692.811	-3.62
692.84	1.38
692.87	5.38
692.899	5.38
692.928	-6.62
692.957	5.38
692.986	14.38
693.016	10.38
693.045	9.38
693.074	1.38
693.103	-1.62
693.132	-3.62
693.161	9.38
693.191	-4.62
693.22	-13.62
693.249	1.38
693.278	2.38
693.307	19.38
693.336	-7.62
693.365	-1.62
693.395	1.38
693.424	4.38
693.453	13.38
693.482	-0.62
693.511	4.38
693.54	11.38
693.569	8.38
693.598	3.38
693.628	16.38
693.657	17.38
693.686	17.38
693.715	5.38
693.744	21.38
693.773	2.38
693.802	9.38
693.831	-3.62
693.86	24.38
693.889	-3.62
693.919	2.38
693.948	1.38
693.977	15.38
694.006	3.38
694.035	-7.62
694.064	3.38
694.093	10.38
694.122	17.38
694.151	-0.62
694.18	4.38
694.209	23.38
694.238	16.38
694.267	32.38
694.296	9.38
694.325	-0.62
694.354	11.38
694.383	-0.62
694.412	10.38
694.441	0.38
694.471	-0.62
694.5	-17.62
694.529	0.38
694.558	10.38
694.587	17.38
694.616	-3.62
694.645	3.38
694.674	15.38
694.703	10.38
694.732	4.38
694.761	20.38
694.79	7.38
694.819	5.38
694.848	7.38
694.877	41.38
694.906	26.38
694.935	4.38
694.963	9.38
694.992	2.38
695.021	-2.62
695.05	16.38
695.079	7.38
695.108	3.38
695.137	17.38
695.166	11.38
695.195	-7.62
695.224	14.38
695.253	19.38
695.282	16.38
695.311	24.38
695.34	15.38
695.369	3.38
695.398	10.38
695.427	17.38
695.456	0.38
695.485	15.38
695.513	6.38
695.542	7.38
695.571	8.38
695.6	4.38
695.629	3.38
695.658	17.38
695.687	6.38
695.716	5.38
695.745	34.38
695.774	1.38
695.802	4.38
695.831	10.38
695.86	27.38
695.889	20.38
695.918	4.38
695.947	5.38
695.976	13.38
696.005	-15.62
696.033	2.38
696.062	28.38
696.091	-5.62
696.12	3.38
696.149	22.38
696.178	-16.62
696.207	6.38
696.235	-8.62
696.264	16.38
696.293	5.38
696.322	6.38
696.351	17.38
696.38	-11.62
696.408	-0.62
696.437	2.38
696.466	14.38
696.495	14.38
696.524	15.38
696.553	14.38
696.581	-1.62
696.61	-7.62
696.639	-0.62
696.668	2.38
696.697	-8.62
696.725	3.38
696.754	12.38
696.783	6.38
696.812	-11.62
696.84	-2.62
696.869	11.38
696.898	6.38
696.927	-4.62
696.956	13.38
696.984	-4.62
697.013	-3.62
697.042	5.38
697.071	9.38
697.099	9.38
697.128	-9.62
697.157	-0.62
697.186	-13.62
697.214	0.38
697.243	-7.62
697.272	10.38
697.301	4.38
697.329	10.38
697.358	7.38
697.387	34.38
697.415	23.38
697.444	12.38
697.473	0.38
697.502	-8.62
697.53	5.38
697.559	-0.62
697.588	18.38
697.616	-3.62
697.645	-0.62
697.674	11.38
697.703	16.38
697.731	18.38
697.76	3.38
697.789	14.38
697.817	-3.62
697.846	15.38
697.875	-8.62
697.903	4.38
697.932	2.38
697.961	8.38
697.989	16.38
698.018	10.38
698.047	-7.62
698.075	8.38
698.104	0.38
698.133	-6.62
698.161	-19.62
698.19	-1.62
698.218	4.38
698.247	11.38
698.276	-6.62
698.304	-10.62
698.333	8.38
698.362	5.38
698.39	24.38
698.419	14.38
698.447	7.38
698.476	4.38
698.505	7.38
698.533	5.38
698.562	13.38
698.591	2.38
698.619	-5.62
698.648	-1.62
698.676	9.38
698.705	-6.62
698.733	-5.62
698.762	24.38
698.791	6.38
698.819	7.38
698.848	7.38
698.876	23.38
698.905	11.38
698.933	13.38
698.962	11.38
698.991	-7.62
699.019	16.38
699.048	0.38
699.076	5.38
699.105	-15.62
699.133	-5.62
699.162	-2.62
699.19	-1.62
699.219	7.38
699.248	4.38
699.276	8.38
699.305	-0.62
699.333	4.38
699.362	17.38
699.39	0.38
699.419	5.38
699.447	24.38
699.476	17.38
699.504	7.38
699.533	-6.62
699.561	-18.62
699.59	3.38
699.618	10.38
699.647	4.38
699.675	6.38
699.704	2.38
699.732	1.38
699.761	11.38
699.789	-7.62
699.818	12.38
699.846	-5.62
699.874	-8.62
699.903	2.38
699.931	3.38
699.96	4.38
699.988	0.38
700.017	0.38
700.045	-4.62
700.074	-5.62
700.102	-0.62
700.13	1.38
700.159	4.38
700.187	21.38
700.216	7.38
700.244	1.38
700.273	5.38
700.301	13.38
700.329	20.38
700.358	5.38
700.386	7.38
700.415	7.38
700.443	-5.62
700.472	0.38
700.5	-1.62
700.528	14.38
700.557	4.38
700.585	0.38
700.614	-5.62
700.642	18.38
700.67	21.38
700.699	13.38
700.727	1.38
700.755	3.38
700.784	13.38
700.812	-4.62
700.841	-8.62
700.869	-10.62
700.897	4.38
700.926	0.38
700.954	4.38
700.982	9.38
701.011	-1.62
701.039	2.38
701.067	10.38
701.096	5.38
701.124	0.38
701.152	-2.62
701.181	-1.62
701.209	-16.62
701.237	9.38
701.266	9.38
701.294	-4.62
701.322	6.38
701.351	14.38
701.379	3.38
701.407	-8.62
701.435	-2.62
701.464	3.38
701.492	12.38
701.52	6.38
701.549	5.38
701.577	0.38
701.605	-5.62
701.634	9.38
701.662	20.38
701.69	5.38
701.718	-11.62
701.747	2.38
701.775	6.38
701.803	0.38
701.831	4.38
701.86	-10.62
701.888	8.38
701.916	10.38
701.944	15.38
701.973	-4.62
702.001	-26.62
702.029	-10.62
702.057	-20.62
702.086	-7.62
702.114	-11.62
702.142	-6.62
702.17	-13.62
702.199	-6.62
702.227	2.38
702.255	2.38
702.283	-16.62
702.311	2.38
702.34	-5.62
702.368	-0.62
702.396	9.38
702.424	-6.62
702.452	5.38
702.481	9.38
702.509	-3.62
702.537	11.38
702.565	11.38
702.593	-8.62
702.621	-6.62
702.65	7.38
702.678	18.38
702.706	2.38
702.734	-5.62
702.762	3.38
702.79	1.38
702.819	2.38
702.847	-4.62
702.875	10.38
702.903	9.38
702.931	-4.62
702.959	7.38
702.988	0.38
703.016	-11.62
703.044	-11.62
703.072	-1.62
703.1	-12.62
703.128	3.38
703.156	-0.62
703.184	-2.62
703.212	1.38
703.241	-4.62
703.269	4.38
703.297	7.38
703.325	1.38
703.353	-13.62
703.381	-13.62
703.409	-13.62
703.437	-10.62
703.465	-0.62
703.493	0.38
703.522	-0.62
703.55	8.38
703.578	11.38
703.606	-19.62
703.634	-2.62
703.662	0.38
703.69	-1.62
703.718	9.38
703.746	-0.62
703.774	3.38
703.802	29.38
703.83	-13.62
703.858	1.38
703.886	8.38
703.914	-10.62
703.942	6.38
703.97	-11.62
703.998	1.38
704.027	16.38
704.055	3.38
704.083	-2.62
704.111	-20.62
704.139	-19.62
704.167	-4.62
704.195	5.38
704.223	-22.62
704.251	3.38
704.279	16.38
704.307	5.38
704.335	-4.62
704.363	11.38
704.391	9.38
704.419	4.38
704.447	11.38
704.475	1.38
704.503	-7.62
704.531	-3.62
704.558	6.38
704.586	-11.62
704.614	-1.62
704.642	8.38
704.67	-14.62
704.698	2.38
704.726	4.38
704.754	21.38
704.782	6.38
704.81	5.38
704.838	26.38
704.866	3.38
704.894	-0.62
704.922	1.38
704.95	17.38
704.978	13.38
705.006	-14.62
705.034	4.38
705.061	-5.62
705.089	-6.62
705.117	-12.62
705.145	-1.62
705.173	-4.62
705.201	15.38
705.229	18.38
705.257	9.38
705.285	23.38
705.313	-1.62
705.34	19.38
705.368	4.38
705.396	19.38
705.424	10.38
705.452	9.38
705.48	10.38
705.508	-6.62
705.536	2.38
705.563	-0.62
705.591	1.38
705.619	-9.62
705.647	-13.62
705.675	-1.62
705.703	3.38
705.731	15.38
705.758	17.38
705.786	-2.62
705.814	12.38
705.842	8.38
705.87	6.38
705.898	22.38
705.925	-14.62
705.953	17.38
705.981	-7.62
706.009	-5.62
706.037	0.38
706.065	5.38
706.092	3.38
706.12	9.38
706.148	-2.62
706.176	-13.62
706.204	4.38
706.231	-6.62
706.259	-9.62
706.287	-5.62
706.315	-4.62
706.342	4.38
706.37	7.38
706.398	15.38
706.426	-3.62
706.454	13.38
706.481	10.38
706.509	2.38
706.537	-10.62
706.565	-15.62
706.592	10.38
706.62	13.38
706.648	6.38
706.676	11.38
706.703	1.38
706.731	11.38
706.759	-6.62
706.787	10.38
706.814	-8.62
706.842	4.38
706.87	7.38
706.897	3.38
706.925	5.38
706.953	4.38
706.981	22.38
707.008	8.38
707.036	-0.62
707.064	6.38
707.091	-4.62
707.119	13.38
707.147	2.38
707.174	-4.62
707.202	7.38
707.23	-4.62
707.258	-2.62
707.285	-12.62
707.313	-2.62
707.341	-3.62
707.368	6.38
707.396	11.38
707.424	22.38
707.451	0.38
707.479	7.38
707.507	4.38
707.534	12.38
707.562	-0.62
707.59	-14.62
707.617	2.38
707.645	0.38
707.672	-8.62
707.7	-3.62
707.728	4.38
707.755	11.38
707.783	-7.62
707.811	-2.62
707.838	-0.62
707.866	5.38
707.893	-3.62
707.921	-2.62
707.949	-7.62
707.976	-4.62
708.004	3.38
708.031	-11.62
708.059	-2.62
708.087	-8.62
708.114	-4.62
708.142	-10.62
708.169	-12.62
708.197	-22.62
708.225	-6.62
708.252	-2.62
708.28	6.38
708.307	-16.62
708.335	-12.62
708.362	-10.62
708.39	-8.62
708.418	-0.62
708.445	-1.62
708.473	-0.62
708.5	-8.62
708.528	-0.62
708.555	2.38
708.583	-10.62
708.61	-0.62
708.638	6.38
708.665	-17.62
708.693	8.38
708.72	-5.62
708.748	-9.62
708.776	4.38
708.803	21.38
708.831	-3.62
708.858	16.38
708.886	-12.62
708.913	2.38
708.941	-4.62
708.968	-0.62
708.996	-6.62
709.023	8.38
709.051	-1.62
709.078	-2.62
709.105	7.38
709.133	9.38
709.16	-4.62
709.188	7.38
709.215	7.38
709.243	-3.62
709.27	-4.62
709.298	-21.62
709.325	-1.62
709.353	-14.62
709.38	-2.62
709.408	-5.62
709.435	20.38
709.462	-6.62
709.49	11.38
709.517	-2.62
709.545	-1.62
709.572	-0.62
709.6	10.38
709.627	27.38
709.655	5.38
709.682	-2.62
709.709	0.38
709.737	6.38
709.764	-8.62
709.792	9.38
709.819	1.38
709.846	-12.62
709.874	6.38
709.901	4.38
709.929	2.38
709.956	8.38
709.983	-13.62
710.011	-0.62
710.038	-4.62
710.066	10.38
710.093	13.38
710.12	0.38
710.148	6.38
710.175	-18.62
710.202	-0.62
710.23	-8.62
710.257	-0.62
710.284	20.38
710.312	7.38
710.339	11.38
710.366	-19.62
710.394	-11.62
710.421	-11.62
710.448	-6.62
710.476	-3.62
710.503	15.38
710.53	19.38
710.558	17.38
710.585	5.38
710.612	0.38
710.64	-13.62
710.667	-4.62
710.694	-13.62
710.722	-8.62
710.749	-15.62
710.776	-6.62
710.804	13.38
710.831	2.38
710.858	6.38
710.885	-3.62
710.913	5.38
710.94	36.38
710.967	8.38
710.995	1.38
711.022	22.38
711.049	16.38
711.076	-15.62
711.104	0.38
711.131	-5.62
711.158	16.38
711.185	9.38
711.213	-6.62
711.24	-12.62
711.267	1.38
711.294	-3.62
711.322	3.38
711.349	1.38
711.376	1.38
711.403	15.38
711.431	-6.62
711.458	-0.62
711.485	1.38
711.512	7.38
711.54	-1.62
711.567	-4.62
711.594	-5.62
711.621	-4.62
711.648	12.38
711.676	19.38
711.703	1.38
711.73	-24.62
711.757	-7.62
711.784	-8.62
711.812	9.38
711.839	10.38
711.866	-3.62
711.893	6.38
711.92	16.38
711.947	-0.62
711.975	7.38
712.002	4.38
712.029	4.38
712.056	24.38
712.083	13.38
712.11	-19.62
712.138	3.38
712.165	-3.62
712.192	0.38
712.219	-6.62
712.246	-2.62
712.273	-7.62
712.3	-8.62
712.328	-11.62
712.355	-6.62
712.382	-10.62
712.409	3.38
712.436	-1.62
712.463	11.38
712.49	5.38
712.517	3.38
712.544	4.38
712.572	3.38
712.599	-10.62
712.626	-9.62
712.653	-13.62
712.68	-10.62
712.707	3.38
712.734	13.38
712.761	-1.62
712.788	19.38
712.815	2.38
712.842	11.38
712.87	2.38
712.897	-7.62
712.924	-14.62
712.951	-2.62
712.978	23.38
713.005	27.38
713.032	12.38
713.059	0.38
713.086	-0.62
713.113	-8.62
713.14	-5.62
713.167	1.38
713.194	4.38
713.221	-8.62
713.248	-12.62
713.275	-11.62
713.302	-4.62
713.329	12.38
713.356	8.38
713.383	-5.62
713.41	22.38
713.437	-8.62
713.464	4.38
713.491	11.38
713.518	5.38
713.545	-5.62
713.572	16.38
713.599	22.38
713.626	-7.62
713.653	-14.62
713.68	-11.62
713.707	0.38
713.734	-0.62
713.761	3.38
713.788	-0.62
713.815	14.38
713.842	3.38
713.869	-15.62
713.896	4.38
713.923	11.38
713.95	-0.62
713.977	-15.62
714.004	-3.62
714.031	-4.62
714.058	5.38
714.085	-0.62
714.112	7.38
714.139	1.38
714.165	5.38
714.192	5.38
714.219	-16.62
714.246	-3.62
714.273	8.38
714.3	6.38
714.327	4.38
714.354	-4.62
714.381	-6.62
714.408	12.38
714.435	-5.62
714.461	10.38
714.488	10.38
714.515	-0.62
714.542	-6.62
714.569	-1.62
714.596	-19.62
714.623	4.38
714.65	-16.62
714.677	-6.62
714.703	18.38
714.73	8.38
714.757	1.38
714.784	24.38
714.811	1.38
714.838	-0.62
714.865	-4.62
714.891	14.38
714.918	5.38
714.945	-5.62
714.972	-2.62
714.999	-5.62
715.026	-11.62
715.052	0.38
715.079	-5.62
715.106	11.38
715.133	10.38
715.16	-7.62
715.187	1.38
715.213	6.38
715.24	-5.62
715.267	3.38
715.294	-12.62
715.321	-0.62
715.347	-15.62
715.374	-10.62
715.401	-3.62
715.428	1.38
715.455	9.38
715.481	-2.62
715.508	2.38
715.535	1.38
715.562	15.38
715.588	-7.62
715.615	-20.62
715.642	0.38
715.669	14.38
715.695	1.38
715.722	6.38
715.749	14.38
715.776	9.38
715.802	-2.62
715.829	2.38
715.856	-11.62
715.883	12.38
715.909	-0.62
715.936	12.38
715.963	4.38
715.99	-2.62
716.016	6.38
716.043	-16.62
716.07	-7.62
716.096	-3.62
716.123	8.38
716.15	-7.62
716.177	2.38
716.203	10.38
716.23	5.38
716.257	-7.62
716.283	8.38
716.31	0.38
716.337	-6.62
716.363	8.38
716.39	9.38
716.417	16.38
716.443	-3.62
716.47	8.38
716.497	-5.62
716.523	6.38
716.55	13.38
716.577	1.38
716.603	2.38
716.63	-4.62
716.657	3.38
716.683	-11.62
716.71	5.38
716.737	9.38
716.763	0.38
716.79	-3.62
716.817	13.38
716.843	9.38
716.87	-10.62
716.897	6.38
716.923	18.38
716.95	-18.62
716.976	-3.62
717.003	0.38
717.03	7.38
717.056	1.38
717.083	-10.62
717.109	10.38
717.136	8.38
717.163	-11.62
717.189	-0.62
717.216	0.38
717.242	0.38
717.269	-5.62
717.296	7.38
717.322	2.38
717.349	3.38
717.375	-2.62
717.402	0.38
717.428	-0.62
717.455	5.38
717.481	10.38
717.508	4.38
717.535	-3.62
717.561	7.38
717.588	-1.62
717.614	-14.62
717.641	1.38
717.667	4.38
717.694	14.38
717.72	-0.62
717.747	-3.62
717.773	-9.62
717.8	2.38
717.826	9.38
717.853	-2.62
717.88	11.38
717.906	-0.62
717.933	14.38
717.959	14.38
717.986	0.38
718.012	-7.62
718.039	11.38
718.065	10.38
718.092	-8.62
718.118	-15.62
718.144	2.38
718.171	7.38
718.197	6.38
718.224	-5.62
718.25	0.38
718.277	7.38
718.303	12.38
718.33	-2.62
718.356	-2.62
718.383	-11.62
718.409	-4.62
718.436	5.38
718.462	-0.62
718.489	8.38
718.515	-2.62
718.541	18.38
718.568	14.38
718.594	7.38
718.621	7.38
718.647	4.38
718.674	15.38
718.7	10.38
718.726	-3.62
718.753	0.38
718.779	5.38
718.806	-4.62
718.832	-0.62
718.858	11.38
718.885	8.38
718.911	1.38
718.938	-5.62
718.964	-8.62
718.99	6.38
719.017	20.38
719.043	8.38
719.07	3.38
719.096	-4.62
719.122	10.38
719.149	9.38
719.175	2.38
719.201	0.38
719.228	2.38
719.254	-4.62
719.281	-16.62
719.307	-5.62
719.333	-6.62
719.36	5.38
719.386	-6.62
719.412	20.38
719.439	-9.62
719.465	16.38
719.491	-10.62
719.518	0.38
719.544	-0.62
719.57	18.38
719.597	15.38
719.623	-8.62
719.649	-0.62
719.675	8.38
719.702	2.38
719.728	13.38
719.754	-20.62
719.781	-10.62
719.807	-17.62
719.833	-4.62
719.86	-10.62
719.886	-10.62
719.912	2.38
719.938	5.38
719.965	-2.62
719.991	9.38
720.017	-1.62
720.044	-13.62
720.07	1.38
720.096	9.38
720.122	-1.62
720.149	-2.62
720.175	25.38
720.201	7.38
720.227	1.38
720.254	0.38
720.28	13.38
720.306	5.38
720.332	5.38
720.359	7.38
720.385	0.38
720.411	4.38
720.437	-1.62
720.463	3.38
720.49	18.38
720.516	0.38
720.542	4.38
720.568	4.38
720.595	26.38
720.621	-4.62
720.647	0.38
720.673	12.38
720.699	5.38
720.725	-4.62
720.752	3.38
720.778	-3.62
720.804	12.38
720.83	7.38
720.856	9.38
720.883	-10.62
720.909	-6.62
720.935	12.38
720.961	14.38
720.987	10.38
721.013	16.38
721.04	-8.62
721.066	7.38
721.092	-7.62
721.118	-2.62
721.144	-3.62
721.17	-0.62
721.196	-12.62
721.223	-3.62
721.249	8.38
721.275	12.38
721.301	-4.62
721.327	2.38
721.353	23.38
721.379	10.38
721.405	18.38
721.432	10.38
721.458	-13.62
721.484	0.38
721.51	-11.62
721.536	0.38
721.562	1.38
721.588	9.38
721.614	-3.62
721.64	2.38
721.666	2.38
721.693	14.38
721.719	4.38
721.745	-1.62
721.771	1.38
721.797	-3.62
721.823	7.38
721.849	24.38
721.875	-4.62
721.901	21.38
721.927	4.38
721.953	-5.62
721.979	1.38
722.005	0.38
722.031	-13.62
722.057	13.38
722.083	17.38
722.109	7.38
722.135	8.38
722.161	6.38
722.187	0.38
722.214	-11.62
722.24	9.38
722.266	-0.62
722.292	8.38
722.318	26.38
722.344	1.38
722.37	16.38
722.396	9.38
722.422	16.38
722.448	3.38
722.474	-6.62
722.5	5.38
722.526	16.38
722.552	2.38
722.578	5.38
722.603	17.38
722.629	-11.62
722.655	-4.62
722.681	-4.62
722.707	-1.62
722.733	9.38
722.759	-11.62
722.785	-2.62
722.811	0.38
722.837	0.38
722.863	17.38
722.889	20.38
722.915	5.38
722.941	-12.62
722.967	-3.62
722.993	0.38
723.019	16.38
723.045	16.38
723.071	-4.62
723.097	1.38
723.122	12.38
723.148	11.38
723.174	4.38
723.2	3.38
723.226	10.38
723.252	12.38
723.278	-2.62
723.304	-5.62
723.33	-6.62
723.356	-7.62
723.381	-3.62
723.407	-4.62
723.433	14.38
723.459	-10.62
723.485	-6.62
723.511	-3.62
723.537	-6.62
723.563	2.38
723.588	16.38
723.614	20.38
723.64	14.38
723.666	0.38
723.692	2.38
723.718	2.38
723.744	-2.62
723.769	-18.62
723.795	-6.62
723.821	-3.62
723.847	-7.62
723.873	7.38
723.899	-2.62
723.924	-1.62
723.95	6.38
723.976	-20.62
724.002	4.38
724.028	6.38
724.053	-13.62
724.079	6.38
724.105	4.38
724.131	-5.62
724.157	-2.62
724.182	13.38
724.208	3.38
724.234	0.38
724.26	4.38
724.286	15.38
724.311	10.38
724.337	-10.62
724.363	-6.62
724.389	8.38
724.415	7.38
724.44	26.38
724.466	-4.62
724.492	-8.62
724.518	5.38
724.543	1.38
724.569	-5.62
724.595	-5.62
724.621	-4.62
724.646	-4.62
724.672	-1.62
724.698	-10.62
724.723	4.38
724.749	-7.62
724.775	-2.62
724.801	12.38
724.826	3.38
724.852	-8.62
724.878	-3.62
724.904	-8.62
724.929	-0.62
724.955	-18.62
724.981	3.38
725.006	3.38
725.032	-3.62
725.058	16.38
725.083	-9.62
725.109	-3.62
725.135	19.38
725.161	8.38
725.186	8.38
725.212	5.38
725.238	-4.62
725.263	-9.62
725.289	-9.62
725.315	-4.62
725.34	-2.62
725.366	-6.62
725.392	-7.62
725.417	12.38
725.443	1.38
725.468	4.38
725.494	12.38
725.52	0.38
725.545	-0.62
725.571	-1.62
725.597	-6.62
725.622	-11.62
725.648	-4.62
725.674	9.38
725.699	6.38
725.725	-7.62
725.75	31.38
725.776	-3.62
725.802	16.38
725.827	7.38
725.853	-5.62
725.878	-7.62
725.904	-8.62
725.93	1.38
725.955	2.38
725.981	2.38
726.006	-2.62
726.032	21.38
726.057	-3.62
726.083	-10.62
726.109	12.38
726.134	8.38
726.16	1.38
726.185	20.38
726.211	1.38
726.236	9.38
726.262	6.38
726.288	2.38
726.313	-7.62
726.339	12.38
726.364	-4.62
726.39	-4.62
726.415	15.38
726.441	-7.62
726.466	-17.62
726.492	-7.62
726.517	-12.62
726.543	-5.62
726.568	-13.62
726.594	-2.62
726.619	8.38
726.645	3.38
726.67	15.38
726.696	8.38
726.721	-0.62
726.747	-1.62
726.772	4.38
726.798	4.38
726.823	7.38
726.849	3.38
726.874	-6.62
726.9	16.38
726.925	27.38
726.951	10.38
726.976	-4.62
727.002	-8.62
727.027	18.38
727.053	15.38
727.078	-5.62
727.104	17.38
727.129	-26.62
727.155	-3.62
727.18	4.38
727.205	4.38
727.231	-8.62
727.256	0.38
727.282	2.38
727.307	12.38
727.333	1.38
727.358	-1.62
727.383	-0.62
727.409	-13.62
727.434	0.38
727.46	-0.62
727.485	-9.62
727.511	4.38
727.536	-14.62
727.561	-13.62
727.587	3.38
727.612	-5.62
727.637	3.38
727.663	-10.62
727.688	14.38
727.714	-16.62
727.739	5.38
727.764	-11.62
727.79	-4.62
727.815	10.38
727.841	1.38
727.866	8.38
727.891	-6.62
727.917	-13.62
727.942	-6.62
727.967	2.38
727.993	-24.62
728.018	-12.62
728.043	5.38
728.069	-5.62
728.094	14.38
728.119	10.38
728.145	9.38
728.17	0.38
728.195	0.38
728.221	11.38
728.246	-0.62
728.271	-6.62
728.297	0.38
728.322	3.38
728.347	2.38
728.373	6.38
728.398	-2.62
728.423	-8.62
728.448	0.38
728.474	-7.62
728.499	3.38
728.524	-8.62
728.55	-12.62
728.575	2.38
728.6	2.38
728.625	-8.62
728.651	-6.62
728.676	-6.62
728.701	3.38
728.727	0.38
728.752	0.38
728.777	-11.62
728.802	-5.62
728.828	4.38
728.853	7.38
728.878	2.38
728.903	-1.62
728.929	-10.62
728.954	-0.62
728.979	0.38
729.004	-0.62
729.03	-19.62
729.055	17.38
729.08	3.38
729.105	-8.62
729.13	18.38
729.156	3.38
729.181	20.38
729.206	-14.62
729.231	-5.62
729.256	7.38
729.282	2.38
729.307	-6.62
729.332	-3.62
729.357	-4.62
729.382	-8.62
729.408	-4.62
729.433	10.38
729.458	-3.62
729.483	3.38
729.508	16.38
729.533	-4.62
729.559	-4.62
729.584	-9.62
729.609	6.38
729.634	13.38
729.659	4.38
729.684	-11.62
729.71	11.38
729.735	-10.62
729.76	-7.62
729.785	-5.62
729.81	11.38
729.835	-7.62
729.86	3.38
729.886	8.38
729.911	4.38
729.936	-6.62
729.961	7.38
729.986	7.38
730.011	-0.62
730.036	-0.62
730.061	-11.62
730.086	3.38
730.112	-19.62
730.137	3.38
730.162	0.38
730.187	-12.62
730.212	-1.62
730.237	1.38
730.262	-2.62
730.287	-2.62
730.312	21.38
730.337	3.38
730.362	2.38
730.387	3.38
730.413	-25.62
730.438	-10.62
730.463	4.38
730.488	-13.62
730.513	5.38
730.538	1.38
730.563	17.38
730.588	4.38
730.613	8.38
730.638	-6.62
730.663	-3.62
730.688	11.38
730.713	1.38
730.738	-2.62
730.763	7.38
730.788	-21.62
730.813	23.38
730.838	-2.62
730.863	4.38
730.888	2.38
730.913	1.38
730.938	-15.62
730.963	1.38
730.988	0.38
731.013	17.38
731.038	-6.62
731.063	-0.62
731.088	13.38
731.113	-3.62
731.138	-3.62
731.163	3.38
731.188	-10.62
731.213	-2.62
731.238	-0.62
731.263	0.38
731.288	9.38
731.313	3.38
731.338	-0.62
731.363	-0.62
731.388	-2.62
731.413	-1.62
731.438	5.38
731.463	-6.62
731.487	17.38
731.512	-11.62
731.537	-4.62
731.562	5.38
731.587	8.38
731.612	4.38
731.637	4.38
731.662	-0.62
731.687	-0.62
731.712	-3.62
731.737	0.38
731.762	0.38
731.786	17.38
731.811	4.38
731.836	19.38
731.861	-3.62
731.886	-17.62
731.911	3.38
731.936	8.38
731.961	-0.62
731.986	-5.62
732.01	3.38
732.035	5.38
732.06	12.38
732.085	3.38
732.11	6.38
732.135	-9.62
732.16	0.38
732.184	3.38
732.209	3.38
732.234	0.38
732.259	-2.62
732.284	6.38
732.309	-13.62
732.334	-6.62
732.358	-6.62
732.383	-11.62
732.408	-3.62
732.433	3.38
732.458	-4.62
732.482	4.38
732.507	3.38
732.532	8.38
732.557	5.38
732.582	-0.62
732.607	-0.62
732.631	-8.62
732.656	1.38
732.681	-6.62
732.706	-1.62
732.73	11.38
732.755	7.38
732.78	7.38
732.805	-10.62
732.83	-8.62
732.854	-0.62
732.879	20.38
732.904	2.38
732.929	-3.62
732.953	7.38
732.978	7.38
733.003	0.38
733.028	-7.62
733.052	10.38
733.077	8.38
733.102	9.38
733.127	-5.62
733.151	-5.62
733.176	12.38
733.201	-6.62
733.226	-9.62
733.25	2.38
733.275	6.38
733.3	-4.62
733.324	18.38
733.349	2.38
733.374	-0.62
733.399	-6.62
733.423	-6.62
733.448	-1.62
733.473	-3.62
733.497	-13.62
733.522	9.38
733.547	3.38
733.571	1.38
733.596	-3.62
733.621	11.38
733.646	-3.62
733.67	-7.62
733.695	-4.62
733.72	7.38
733.744	6.38
733.769	4.38
733.794	17.38
733.818	3.38
733.843	-2.62
733.867	-10.62
733.892	-6.62
733.917	-0.62
733.941	-1.62
733.966	-20.62
733.991	-7.62
734.015	8.38
734.04	1.38
734.065	15.38
734.089	14.38
734.114	12.38
734.138	10.38
734.163	5.38
734.188	3.38
734.212	15.38
734.237	10.38
734.261	-1.62
734.286	-3.62
734.311	-20.62
734.335	-4.62
734.36	-3.62
734.384	-3.62
734.409	-4.62
734.434	-3.62
734.458	-4.62
734.483	-7.62
734.507	-32.62
734.532	-0.62
734.556	3.38
734.581	-10.62
734.606	4.38
734.63	-1.62
734.655	15.38
734.679	2.38
734.704	-8.62
734.728	-21.62
734.753	1.38
734.777	7.38
734.802	-0.62
734.826	1.38
734.851	-0.62
734.876	12.38
734.9	3.38
734.925	-0.62
734.949	5.38
734.974	-1.62
734.998	13.38
735.023	11.38
735.047	-11.62
735.072	6.38
735.096	-2.62
735.121	1.38
735.145	-3.62
735.17	4.38
735.194	12.38
735.219	2.38
735.243	2.38
735.268	0.38
735.292	-4.62
735.317	4.38
735.341	-0.62
735.365	-14.62
735.39	6.38
735.414	9.38
735.439	3.38
735.463	3.38
735.488	5.38
735.512	5.38
735.537	9.38
735.561	4.38
735.586	-1.62
735.61	-0.62
735.634	-6.62
735.659	0.38
735.683	-2.62
735.708	-13.62
735.732	1.38
735.757	-4.62
735.781	20.38
735.805	1.38
735.83	-10.62
735.854	-5.62
735.879	0.38
735.903	3.38
735.927	10.38
735.952	-3.62
735.976	-4.62
736.001	-0.62
736.025	-9.62
736.049	7.38
736.074	14.38
736.098	-5.62
736.123	-2.62
736.147	-2.62
736.171	3.38
736.196	10.38
736.22	-19.62
736.244	9.38
736.269	-3.62
736.293	1.38
736.317	6.38
736.342	3.38
736.366	12.38
736.39	15.38
736.415	-10.62
736.439	-10.62
736.463	10.38
736.488	11.38
736.512	6.38
736.536	-2.62
736.561	24.38
736.585	-4.62
736.609	8.38
736.634	-8.62
736.658	0.38
736.682	3.38
736.707	-8.62
736.731	2.38
736.755	-1.62
736.78	3.38
736.804	27.38
736.828	12.38
736.852	-6.62
736.877	6.38
736.901	-0.62
736.925	4.38
736.949	4.38
736.974	8.38
736.998	-6.62
737.022	-4.62
737.047	-12.62
737.071	-9.62
737.095	23.38
737.119	16.38
737.144	11.38
737.168	-4.62
737.192	-2.62
737.216	3.38
737.241	-4.62
737.265	17.38
737.289	-2.62
737.313	7.38
737.337	11.38
737.362	3.38
737.386	-6.62
737.41	-8.62
737.434	16.38
737.459	7.38
737.483	10.38
737.507	12.38
737.531	3.38
737.555	-3.62
737.58	11.38
737.604	-0.62
737.628	-3.62
737.652	8.38
737.676	-0.62
737.701	-4.62
737.725	-3.62
737.749	22.38
737.773	6.38
737.797	2.38
737.821	9.38
737.846	8.38
737.87	32.38
737.894	8.38
737.918	1.38
737.942	3.38
737.966	9.38
737.99	15.38
738.015	17.38
738.039	8.38
738.063	-4.62
738.087	24.38
738.111	17.38
738.135	5.38
738.159	8.38
738.184	-15.62
738.208	-6.62
738.232	4.38
738.256	16.38
738.28	2.38
738.304	1.38
738.328	-0.62
738.352	16.38
738.376	-1.62
738.4	21.38
738.425	7.38
738.449	0.38
738.473	6.38
738.497	17.38
738.521	0.38
738.545	0.38
738.569	0.38
738.593	17.38
738.617	16.38
738.641	16.38
738.665	7.38
738.689	4.38
738.713	8.38
738.737	13.38
738.762	17.38
738.786	-1.62
738.81	-15.62
738.834	25.38
738.858	4.38
738.882	5.38
738.906	-10.62
738.93	5.38
738.954	-6.62
738.978	-2.62
739.002	-6.62
739.026	13.38
739.05	16.38
739.074	1.38
739.098	15.38
739.122	9.38
739.146	4.38
739.17	0.38
739.194	3.38
739.218	7.38
739.242	7.38
739.266	-9.62
739.29	0.38
739.314	16.38
739.338	8.38
739.362	-4.62
739.386	4.38
739.41	0.38
739.434	2.38
739.458	15.38
739.482	10.38
739.506	24.38
739.53	-7.62
739.554	18.38
739.577	-1.62
739.601	5.38
739.625	-8.62
739.649	-12.62
739.673	0.38
739.697	9.38
739.721	-4.62
739.745	8.38
739.769	13.38
739.793	15.38
739.817	16.38
739.841	-7.62
739.865	15.38
739.889	-9.62
739.912	17.38
739.936	0.38
739.96	6.38
739.984	7.38
740.008	2.38
740.032	1.38
740.056	-3.62
740.08	6.38
740.104	-10.62
740.127	13.38
740.151	3.38
740.175	17.38
740.199	5.38
740.223	47.38
740.247	24.38
740.271	16.38
740.295	-6.62
740.318	-15.62
740.342	2.38
740.366	10.38
740.39	15.38
740.414	-0.62
740.438	-2.62
740.461	6.38
740.485	-2.62
740.509	-11.62
740.533	-0.62
740.557	8.38
740.581	-0.62
740.604	-7.62
740.628	0.38
740.652	12.38
740.676	0.38
740.7	16.38
740.723	-9.62
740.747	1.38
740.771	7.38
740.795	-7.62
740.819	21.38
740.842	-0.62
740.866	11.38
740.89	12.38
740.914	-0.62
740.938	0.38
740.961	20.38
740.985	6.38
741.009	5.38
741.033	1.38
741.056	1.38
741.08	-7.62
741.104	-14.62
741.128	-21.62
741.151	-3.62
741.175	-6.62
741.199	-0.62
741.223	15.38
741.246	0.38
741.27	4.38
741.294	15.38
741.318	2.38
741.341	8.38
741.365	-1.62
741.389	3.38
741.413	3.38
741.436	17.38
741.46	21.38
741.484	1.38
741.507	0.38
741.531	20.38
741.555	18.38
741.579	4.38
741.602	18.38
741.626	7.38
741.65	9.38
741.673	11.38
741.697	0.38
741.721	5.38
741.744	-10.62
741.768	-5.62
741.792	-14.62
741.815	-0.62
741.839	17.38
741.863	19.38
741.886	26.38
741.91	9.38
741.934	4.38
741.957	-10.62
741.981	-2.62
742.005	-14.62
742.028	-0.62
742.052	-4.62
742.075	2.38
742.099	14.38
742.123	6.38
742.146	-0.62
742.17	-12.62
742.194	-12.62
742.217	-8.62
742.241	-14.62
742.264	1.38
742.288	12.38
742.312	4.38
742.335	5.38
742.359	17.38
742.382	10.38
742.406	21.38
742.43	6.38
742.453	-3.62
742.477	-6.62
742.5	14.38
742.524	-8.62
742.548	-14.62
742.571	-3.62
742.595	-8.62
742.618	-9.62
742.642	-3.62
742.665	3.38
742.689	-4.62
742.712	7.38
742.736	4.38
742.76	7.38
742.783	-13.62
742.807	7.38
742.83	23.38
742.854	0.38
742.877	-6.62
742.901	-5.62
742.924	-8.62
742.948	2.38
742.971	5.38
742.995	7.38
743.018	-0.62
743.042	-6.62
743.065	-0.62
743.089	-2.62
743.112	5.38
743.136	-7.62
743.159	-14.62
743.183	-7.62
743.206	9.38
743.23	5.38
743.253	14.38
743.277	11.38
743.3	-12.62
743.324	-2.62
743.347	0.38
743.371	11.38
743.394	3.38
743.418	14.38
743.441	5.38
743.465	14.38
743.488	-1.62
743.512	-5.62
743.535	23.38
743.558	-0.62
743.582	6.38
743.605	-0.62
743.629	1.38
743.652	14.38
743.676	10.38
743.699	5.38
743.723	8.38
743.746	9.38
743.769	11.38
743.793	7.38
743.816	-4.62
743.84	20.38
743.863	8.38
743.886	9.38
743.91	11.38
743.933	1.38
743.957	0.38
743.98	-7.62
744.003	4.38
744.027	-2.62
744.05	0.38
744.074	-6.62
744.097	-8.62
744.12	3.38
744.144	3.38
744.167	13.38
744.19	1.38
744.214	-2.62
744.237	-2.62
744.26	2.38
744.284	3.38
744.307	-8.62
744.331	-14.62
744.354	-19.62
744.377	7.38
744.401	-5.62
744.424	12.38
744.447	1.38
744.471	-14.62
