Data from HighRes_H2_15_09_11_07_2024_HR4C61891__76__15-11-04-002.txt Node

Date: Thu Nov 07 15:11:04 EST 2024
User: crc00042
Spectrometer: HR4C6189
Trigger mode: 4
Integration Time (sec): 1.000000E-1
Scans to average: 1
Electric dark correction enabled: true
Nonlinearity correction enabled: false
Boxcar width: 0
XAxis mode: Wavelengths
Number of Pixels in Spectrum: 3648
>>>>>Begin Spectral Data<<<<<
639.567	-48.92
639.602	-48.92
639.636	-48.92
639.67	-44.92
639.704	-18.92
639.738	-6.92
639.773	6.08
639.807	-24.92
639.841	5.08
639.875	21.08
639.909	-12.92
639.943	-12.92
639.978	5.08
640.012	11.08
640.046	5.08
640.08	7.08
640.114	-4.92
640.148	2.08
640.182	-9.92
640.217	-5.92
640.251	11.08
640.285	11.08
640.319	1.08
640.353	-0.92
640.387	-1.92
640.421	0.08
640.455	-14.92
640.49	-10.92
640.524	-0.92
640.558	18.08
640.592	-6.92
640.626	2.08
640.66	5.08
640.694	-6.92
640.728	15.08
640.762	12.08
640.796	14.08
640.83	8.08
640.865	-3.92
640.899	5.08
640.933	0.08
640.967	3.08
641.001	7.08
641.035	1.08
641.069	-11.92
641.103	-5.92
641.137	12.08
641.171	-15.92
641.205	5.08
641.239	2.08
641.273	23.08
641.307	7.08
641.341	-4.92
641.375	3.08
641.409	0.08
641.443	3.08
641.477	20.08
641.511	8.08
641.545	1.08
641.579	2.08
641.614	-3.92
641.648	11.08
641.682	-2.92
641.716	18.08
641.75	21.08
641.784	0.08
641.818	16.08
641.852	8.08
641.886	3.08
641.919	19.08
641.953	3.08
641.987	-6.92
642.021	-5.92
642.055	14.08
642.089	3.08
642.123	-1.92
642.157	3.08
642.191	-11.92
642.225	6.08
642.259	-0.92
642.293	19.08
642.327	1.08
642.361	1.08
642.395	16.08
642.429	11.08
642.463	11.08
642.497	1.08
642.531	6.08
642.565	-0.92
642.599	3.08
642.633	-21.92
642.666	10.08
642.7	36.08
642.734	30.08
642.768	-3.92
642.802	4.08
642.836	13.08
642.87	13.08
642.904	14.08
642.938	3.08
642.972	5.08
643.005	7.08
643.039	30.08
643.073	3.08
643.107	6.08
643.141	16.08
643.175	11.08
643.209	-0.92
643.243	2.08
643.276	5.08
643.31	9.08
643.344	-1.92
643.378	10.08
643.412	16.08
643.446	10.08
643.48	-10.92
643.513	-0.92
643.547	7.08
643.581	3.08
643.615	17.08
643.649	-4.92
643.683	3.08
643.716	8.08
643.75	7.08
643.784	0.08
643.818	3.08
643.852	-5.92
643.886	32.08
643.919	27.08
643.953	-0.92
643.987	3.08
644.021	12.08
644.055	10.08
644.088	-7.92
644.122	-5.92
644.156	-0.92
644.19	0.08
644.224	4.08
644.257	8.08
644.291	16.08
644.325	17.08
644.359	6.08
644.392	9.08
644.426	13.08
644.46	10.08
644.494	24.08
644.527	-16.92
644.561	-8.92
644.595	12.08
644.629	1.08
644.662	16.08
644.696	15.08
644.73	5.08
644.764	18.08
644.797	0.08
644.831	10.08
644.865	3.08
644.899	2.08
644.932	15.08
644.966	-2.92
645	11.08
645.033	26.08
645.067	9.08
645.101	-4.92
645.135	-2.92
645.168	9.08
645.202	-21.92
645.236	-2.92
645.269	25.08
645.303	8.08
645.337	-16.92
645.37	-11.92
645.404	18.08
645.438	10.08
645.471	8.08
645.505	15.08
645.539	1.08
645.572	-3.92
645.606	-0.92
645.64	-1.92
645.673	9.08
645.707	28.08
645.741	14.08
645.774	1.08
645.808	14.08
645.842	-3.92
645.875	22.08
645.909	-8.92
645.943	3.08
645.976	-5.92
646.01	2.08
646.043	14.08
646.077	11.08
646.111	13.08
646.144	26.08
646.178	27.08
646.212	-5.92
646.245	13.08
646.279	16.08
646.312	4.08
646.346	7.08
646.38	-1.92
646.413	-9.92
646.447	7.08
646.48	4.08
646.514	21.08
646.547	-5.92
646.581	5.08
646.615	-1.92
646.648	-15.92
646.682	-2.92
646.715	12.08
646.749	11.08
646.782	-1.92
646.816	-2.92
646.85	-0.92
646.883	8.08
646.917	26.08
646.95	22.08
646.984	6.08
647.017	12.08
647.051	14.08
647.084	9.08
647.118	-0.92
647.151	-1.92
647.185	-1.92
647.218	-12.92
647.252	-5.92
647.285	-10.92
647.319	-8.92
647.353	-9.92
647.386	18.08
647.42	2.08
647.453	8.08
647.487	18.08
647.52	9.08
647.553	1.08
647.587	20.08
647.62	7.08
647.654	10.08
647.687	14.08
647.721	16.08
647.754	2.08
647.788	5.08
647.821	-4.92
647.855	14.08
647.888	20.08
647.922	8.08
647.955	7.08
647.989	1.08
648.022	-3.92
648.055	9.08
648.089	2.08
648.122	25.08
648.156	11.08
648.189	5.08
648.223	14.08
648.256	12.08
648.29	22.08
648.323	5.08
648.356	14.08
648.39	11.08
648.423	3.08
648.457	-6.92
648.49	5.08
648.523	14.08
648.557	2.08
648.59	1.08
648.624	-8.92
648.657	4.08
648.69	21.08
648.724	14.08
648.757	11.08
648.791	11.08
648.824	16.08
648.857	14.08
648.891	9.08
648.924	13.08
648.957	30.08
648.991	2.08
649.024	18.08
649.057	-4.92
649.091	4.08
649.124	14.08
649.158	7.08
649.191	34.08
649.224	8.08
649.258	17.08
649.291	11.08
649.324	12.08
649.358	-8.92
649.391	16.08
649.424	14.08
649.458	11.08
649.491	-6.92
649.524	-9.92
649.557	9.08
649.591	-11.92
649.624	10.08
649.657	-8.92
649.691	4.08
649.724	7.08
649.757	10.08
649.791	4.08
649.824	10.08
649.857	-2.92
649.89	1.08
649.924	-2.92
649.957	2.08
649.99	-4.92
650.023	7.08
650.057	2.08
650.09	5.08
650.123	4.08
650.157	20.08
650.19	11.08
650.223	13.08
650.256	7.08
650.29	-0.92
650.323	7.08
650.356	4.08
650.389	7.08
650.423	-5.92
650.456	8.08
650.489	28.08
650.522	20.08
650.555	-0.92
650.589	12.08
650.622	2.08
650.655	20.08
650.688	11.08
650.721	-2.92
650.755	14.08
650.788	13.08
650.821	6.08
650.854	7.08
650.887	9.08
650.921	1.08
650.954	1.08
650.987	7.08
651.02	7.08
651.053	-18.92
651.087	-9.92
651.12	22.08
651.153	-0.92
651.186	-3.92
651.219	8.08
651.252	10.08
651.286	9.08
651.319	7.08
651.352	12.08
651.385	15.08
651.418	17.08
651.451	6.08
651.484	12.08
651.518	-7.92
651.551	17.08
651.584	-13.92
651.617	6.08
651.65	12.08
651.683	35.08
651.716	8.08
651.749	-10.92
651.783	-4.92
651.816	3.08
651.849	15.08
651.882	-1.92
651.915	-2.92
651.948	13.08
651.981	-2.92
652.014	-23.92
652.047	9.08
652.08	-5.92
652.114	9.08
652.147	9.08
652.18	14.08
652.213	37.08
652.246	-4.92
652.279	-2.92
652.312	-6.92
652.345	3.08
652.378	19.08
652.411	21.08
652.444	15.08
652.477	12.08
652.51	7.08
652.543	-1.92
652.576	7.08
652.609	7.08
652.642	3.08
652.675	11.08
652.709	7.08
652.742	8.08
652.775	15.08
652.808	12.08
652.841	-1.92
652.874	12.08
652.907	4.08
652.94	-1.92
652.973	-12.92
653.006	-2.92
653.039	12.08
653.072	-0.92
653.105	1.08
653.138	2.08
653.171	9.08
653.204	1.08
653.237	15.08
653.27	8.08
653.303	19.08
653.336	-9.92
653.368	14.08
653.401	6.08
653.434	4.08
653.467	12.08
653.5	-10.92
653.533	-3.92
653.566	3.08
653.599	5.08
653.632	3.08
653.665	4.08
653.698	-21.92
653.731	2.08
653.764	2.08
653.797	-0.92
653.83	15.08
653.863	19.08
653.896	9.08
653.929	8.08
653.961	20.08
653.994	-1.92
654.027	-4.92
654.06	7.08
654.093	16.08
654.126	13.08
654.159	-13.92
654.192	-2.92
654.225	2.08
654.258	6.08
654.29	-1.92
654.323	6.08
654.356	13.08
654.389	3.08
654.422	-4.92
654.455	-3.92
654.488	5.08
654.521	-11.92
654.553	-13.92
654.586	18.08
654.619	5.08
654.652	13.08
654.685	20.08
654.718	17.08
654.751	21.08
654.783	-3.92
654.816	7.08
654.849	7.08
654.882	4.08
654.915	6.08
654.948	9.08
654.98	3.08
655.013	3.08
655.046	2.08
655.079	14.08
655.112	15.08
655.144	-7.92
655.177	6.08
655.21	22.08
655.243	9.08
655.276	10.08
655.308	4.08
655.341	5.08
655.374	17.08
655.407	-1.92
655.44	7.08
655.472	15.08
655.505	3.08
655.538	5.08
655.571	26.08
655.603	10.08
655.636	14.08
655.669	26.08
655.702	18.08
655.734	8.08
655.767	16.08
655.8	23.08
655.833	34.08
655.865	41.08
655.898	32.08
655.931	46.08
655.964	67.08
655.996	46.08
656.029	70.08
656.062	70.08
656.095	79.08
656.127	77.08
656.16	99.08
656.193	144.08
656.225	189.08
656.258	288.08
656.291	558.08
656.324	1166.08
656.356	3499.08
656.389	7773.08
656.422	6307.08
656.454	2152.08
656.487	719.08
656.52	278.08
656.552	125.08
656.585	72.08
656.618	58.08
656.65	43.08
656.683	29.08
656.716	27.08
656.748	11.08
656.781	3.08
656.814	-6.92
656.846	0.08
656.879	16.08
656.912	7.08
656.944	-9.92
656.977	-9.92
657.01	-16.92
657.042	8.08
657.075	31.08
657.108	-3.92
657.14	20.08
657.173	15.08
657.205	23.08
657.238	7.08
657.271	2.08
657.303	-2.92
657.336	16.08
657.369	6.08
657.401	3.08
657.434	7.08
657.466	20.08
657.499	4.08
657.532	10.08
657.564	12.08
657.597	11.08
657.629	12.08
657.662	2.08
657.694	9.08
657.727	-17.92
657.76	26.08
657.792	-4.92
657.825	5.08
657.857	10.08
657.89	-5.92
657.922	16.08
657.955	-7.92
657.987	-5.92
658.02	21.08
658.053	15.08
658.085	4.08
658.118	-1.92
658.15	8.08
658.183	22.08
658.215	20.08
658.248	10.08
658.28	2.08
658.313	7.08
658.345	22.08
658.378	-8.92
658.41	-3.92
658.443	11.08
658.475	-5.92
658.508	-1.92
658.54	-6.92
658.573	5.08
658.605	6.08
658.638	-2.92
658.67	-5.92
658.703	10.08
658.735	-11.92
658.768	-3.92
658.8	-19.92
658.833	20.08
658.865	25.08
658.898	17.08
658.93	-10.92
658.963	-6.92
658.995	-32.92
659.028	-11.92
659.06	1.08
659.092	4.08
659.125	-8.92
659.157	-4.92
659.19	-4.92
659.222	9.08
659.255	28.08
659.287	6.08
659.32	2.08
659.352	-4.92
659.384	3.08
659.417	-7.92
659.449	-6.92
659.482	15.08
659.514	-9.92
659.546	2.08
659.579	-5.92
659.611	7.08
659.644	3.08
659.676	-14.92
659.708	-3.92
659.741	-6.92
659.773	-0.92
659.806	13.08
659.838	-2.92
659.87	-0.92
659.903	-15.92
659.935	4.08
659.967	14.08
660	5.08
660.032	-16.92
660.065	12.08
660.097	1.08
660.129	15.08
660.162	-0.92
660.194	2.08
660.226	-8.92
660.259	4.08
660.291	0.08
660.323	-8.92
660.356	5.08
660.388	-13.92
660.42	-3.92
660.453	14.08
660.485	25.08
660.517	2.08
660.55	0.08
660.582	-5.92
660.614	8.08
660.647	-5.92
660.679	-5.92
660.711	9.08
660.743	-13.92
660.776	-4.92
660.808	-6.92
660.84	-7.92
660.873	-12.92
660.905	-1.92
660.937	-1.92
660.969	5.08
661.002	3.08
661.034	10.08
661.066	-15.92
661.099	-0.92
661.131	19.08
661.163	-2.92
661.195	11.08
661.228	16.08
661.26	-14.92
661.292	-4.92
661.324	7.08
661.357	1.08
661.389	0.08
661.421	4.08
661.453	2.08
661.485	-2.92
661.518	-8.92
661.55	-2.92
661.582	-18.92
661.614	-0.92
661.647	-1.92
661.679	2.08
661.711	13.08
661.743	-2.92
661.775	-3.92
661.808	12.08
661.84	-4.92
661.872	0.08
661.904	-3.92
661.936	-5.92
661.969	-10.92
662.001	0.08
662.033	9.08
662.065	0.08
662.097	5.08
662.129	3.08
662.162	-10.92
662.194	6.08
662.226	-7.92
662.258	10.08
662.29	9.08
662.322	-6.92
662.355	-20.92
662.387	20.08
662.419	21.08
662.451	23.08
662.483	13.08
662.515	1.08
662.547	-7.92
662.58	-3.92
662.612	2.08
662.644	-7.92
662.676	12.08
662.708	5.08
662.74	8.08
662.772	5.08
662.804	9.08
662.836	8.08
662.869	-0.92
662.901	14.08
662.933	3.08
662.965	19.08
662.997	-0.92
663.029	-1.92
663.061	-23.92
663.093	-1.92
663.125	16.08
663.157	14.08
663.189	11.08
663.221	8.08
663.254	10.08
663.286	29.08
663.318	-2.92
663.35	4.08
663.382	-8.92
663.414	4.08
663.446	4.08
663.478	-7.92
663.51	23.08
663.542	-2.92
663.574	-5.92
663.606	6.08
663.638	-7.92
663.67	-19.92
663.702	-6.92
663.734	10.08
663.766	11.08
663.798	4.08
663.83	4.08
663.862	-6.92
663.894	4.08
663.926	7.08
663.958	14.08
663.99	-7.92
664.022	11.08
664.054	7.08
664.086	3.08
664.118	7.08
664.15	-3.92
664.182	-1.92
664.214	-9.92
664.246	13.08
664.278	12.08
664.31	12.08
664.342	16.08
664.374	12.08
664.406	-5.92
664.438	6.08
664.47	22.08
664.502	0.08
664.534	1.08
664.566	-19.92
664.598	4.08
664.63	-5.92
664.662	6.08
664.693	14.08
664.725	-15.92
664.757	-9.92
664.789	0.08
664.821	13.08
664.853	16.08
664.885	-1.92
664.917	-15.92
664.949	24.08
664.981	12.08
665.013	13.08
665.045	-5.92
665.076	5.08
665.108	5.08
665.14	-12.92
665.172	-0.92
665.204	-8.92
665.236	-1.92
665.268	24.08
665.3	1.08
665.331	-13.92
665.363	3.08
665.395	3.08
665.427	0.08
665.459	16.08
665.491	2.08
665.523	-8.92
665.555	5.08
665.586	6.08
665.618	5.08
665.65	-5.92
665.682	9.08
665.714	2.08
665.746	0.08
665.777	6.08
665.809	-10.92
665.841	6.08
665.873	-13.92
665.905	-4.92
665.937	8.08
665.968	-6.92
666	-18.92
666.032	19.08
666.064	3.08
666.096	0.08
666.127	11.08
666.159	9.08
666.191	2.08
666.223	7.08
666.255	3.08
666.286	6.08
666.318	6.08
666.35	27.08
666.382	7.08
666.413	-17.92
666.445	14.08
666.477	2.08
666.509	7.08
666.54	3.08
666.572	-6.92
666.604	3.08
666.636	-1.92
666.667	6.08
666.699	17.08
666.731	-5.92
666.763	-14.92
666.794	-3.92
666.826	13.08
666.858	-14.92
666.89	10.08
666.921	-8.92
666.953	4.08
666.985	13.08
667.017	20.08
667.048	12.08
667.08	6.08
667.112	1.08
667.143	-8.92
667.175	4.08
667.207	-1.92
667.238	-5.92
667.27	9.08
667.302	18.08
667.334	18.08
667.365	25.08
667.397	3.08
667.429	4.08
667.46	16.08
667.492	18.08
667.524	-11.92
667.555	5.08
667.587	6.08
667.619	15.08
667.65	-3.92
667.682	7.08
667.714	14.08
667.745	7.08
667.777	21.08
667.808	10.08
667.84	-8.92
667.872	-2.92
667.903	23.08
667.935	3.08
667.967	15.08
667.998	6.08
668.03	-2.92
668.061	8.08
668.093	-6.92
668.125	6.08
668.156	10.08
668.188	-9.92
668.22	-21.92
668.251	13.08
668.283	5.08
668.314	14.08
668.346	6.08
668.377	9.08
668.409	6.08
668.441	8.08
668.472	9.08
668.504	2.08
668.535	3.08
668.567	1.08
668.599	-0.92
668.63	5.08
668.662	0.08
668.693	20.08
668.725	13.08
668.756	7.08
668.788	1.08
668.819	10.08
668.851	4.08
668.882	16.08
668.914	-5.92
668.946	11.08
668.977	5.08
669.009	8.08
669.04	-8.92
669.072	5.08
669.103	-3.92
669.135	-5.92
669.166	6.08
669.198	4.08
669.229	6.08
669.261	-7.92
669.292	19.08
669.324	-6.92
669.355	-1.92
669.387	-6.92
669.418	14.08
669.45	-1.92
669.481	10.08
669.513	11.08
669.544	-4.92
669.576	-5.92
669.607	15.08
669.639	8.08
669.67	-4.92
669.701	11.08
669.733	-14.92
669.764	-2.92
669.796	-12.92
669.827	3.08
669.859	7.08
669.89	23.08
669.922	6.08
669.953	7.08
669.985	3.08
670.016	13.08
670.047	7.08
670.079	-2.92
670.11	4.08
670.142	10.08
670.173	6.08
670.204	4.08
670.236	16.08
670.267	3.08
670.299	1.08
670.33	7.08
670.362	11.08
670.393	-14.92
670.424	1.08
670.456	-13.92
670.487	-6.92
670.518	2.08
670.55	6.08
670.581	9.08
670.613	20.08
670.644	-2.92
670.675	-0.92
670.707	4.08
670.738	25.08
670.769	1.08
670.801	-8.92
670.832	3.08
670.864	-13.92
670.895	8.08
670.926	15.08
670.958	0.08
670.989	-3.92
671.02	-8.92
671.052	13.08
671.083	3.08
671.114	-5.92
671.146	1.08
671.177	5.08
671.208	-11.92
671.24	8.08
671.271	7.08
671.302	11.08
671.333	-5.92
671.365	-2.92
671.396	5.08
671.427	-1.92
671.459	8.08
671.49	10.08
671.521	25.08
671.553	10.08
671.584	17.08
671.615	-8.92
671.646	4.08
671.678	8.08
671.709	-9.92
671.74	-10.92
671.771	8.08
671.803	8.08
671.834	7.08
671.865	-4.92
671.896	8.08
671.928	6.08
671.959	-16.92
671.99	-11.92
672.021	-7.92
672.053	-16.92
672.084	-2.92
672.115	8.08
672.146	-4.92
672.178	-13.92
672.209	16.08
672.24	-4.92
672.271	27.08
672.303	4.08
672.334	11.08
672.365	3.08
672.396	-1.92
672.427	3.08
672.459	13.08
672.49	15.08
672.521	23.08
672.552	19.08
672.583	11.08
672.615	11.08
672.646	16.08
672.677	-8.92
672.708	7.08
672.739	9.08
672.77	14.08
672.802	-4.92
672.833	-10.92
672.864	13.08
672.895	-4.92
672.926	-5.92
672.957	-5.92
672.989	-10.92
673.02	11.08
673.051	-0.92
673.082	10.08
673.113	4.08
673.144	7.08
673.175	19.08
673.206	-0.92
673.238	-14.92
673.269	4.08
673.3	4.08
673.331	5.08
673.362	1.08
673.393	10.08
673.424	10.08
673.455	21.08
673.487	7.08
673.518	20.08
673.549	11.08
673.58	23.08
673.611	9.08
673.642	0.08
673.673	-17.92
673.704	9.08
673.735	0.08
673.766	-11.92
673.797	-0.92
673.828	7.08
673.86	-0.92
673.891	-10.92
673.922	-10.92
673.953	-14.92
673.984	11.08
674.015	7.08
674.046	10.08
674.077	-2.92
674.108	-9.92
674.139	-0.92
674.17	-6.92
674.201	0.08
674.232	-3.92
674.263	-4.92
674.294	-11.92
674.325	-23.92
674.356	3.08
674.387	8.08
674.418	10.08
674.449	-11.92
674.48	-17.92
674.511	-9.92
674.542	3.08
674.573	-18.92
674.604	24.08
674.635	2.08
674.666	8.08
674.697	14.08
674.728	15.08
674.759	-15.92
674.79	-5.92
674.821	2.08
674.852	7.08
674.883	6.08
674.914	-4.92
674.945	-9.92
674.976	-8.92
675.007	6.08
675.038	-5.92
675.069	-11.92
675.1	-5.92
675.131	15.08
675.162	-4.92
675.193	-10.92
675.224	2.08
675.254	0.08
675.285	16.08
675.316	13.08
675.347	7.08
675.378	-11.92
675.409	-4.92
675.44	21.08
675.471	4.08
675.502	-7.92
675.533	-0.92
675.564	6.08
675.595	-5.92
675.625	20.08
675.656	2.08
675.687	2.08
675.718	-3.92
675.749	12.08
675.78	13.08
675.811	8.08
675.842	12.08
675.873	5.08
675.903	-8.92
675.934	-6.92
675.965	5.08
675.996	1.08
676.027	11.08
676.058	2.08
676.089	-13.92
676.119	-1.92
676.15	9.08
676.181	22.08
676.212	-5.92
676.243	8.08
676.274	-13.92
676.304	5.08
676.335	-7.92
676.366	8.08
676.397	0.08
676.428	10.08
676.459	4.08
676.489	15.08
676.52	-3.92
676.551	1.08
676.582	1.08
676.613	-0.92
676.643	2.08
676.674	6.08
676.705	12.08
676.736	-4.92
676.767	3.08
676.797	3.08
676.828	10.08
676.859	11.08
676.89	-9.92
676.92	-1.92
676.951	4.08
676.982	21.08
677.013	8.08
677.044	10.08
677.074	-4.92
677.105	-12.92
677.136	5.08
677.167	10.08
677.197	8.08
677.228	7.08
677.259	2.08
677.289	10.08
677.32	-4.92
677.351	3.08
677.382	-3.92
677.412	-1.92
677.443	7.08
677.474	6.08
677.505	-10.92
677.535	-5.92
677.566	7.08
677.597	1.08
677.627	7.08
677.658	1.08
677.689	8.08
677.72	7.08
677.75	5.08
677.781	-8.92
677.812	16.08
677.842	12.08
677.873	27.08
677.904	2.08
677.934	2.08
677.965	1.08
677.996	2.08
678.026	-0.92
678.057	3.08
678.088	-4.92
678.118	-13.92
678.149	-12.92
678.18	-2.92
678.21	8.08
678.241	6.08
678.272	1.08
678.302	0.08
678.333	9.08
678.363	12.08
678.394	1.08
678.425	-0.92
678.455	18.08
678.486	5.08
678.517	-11.92
678.547	2.08
678.578	-2.92
678.608	-17.92
678.639	6.08
678.67	-8.92
678.7	-4.92
678.731	-13.92
678.761	-13.92
678.792	3.08
678.823	7.08
678.853	-0.92
678.884	-26.92
678.914	-21.92
678.945	9.08
678.975	-20.92
679.006	-3.92
679.037	-6.92
679.067	21.08
679.098	10.08
679.128	-7.92
679.159	11.08
679.189	9.08
679.22	0.08
679.25	2.08
679.281	3.08
679.312	6.08
679.342	5.08
679.373	27.08
679.403	4.08
679.434	-0.92
679.464	16.08
679.495	10.08
679.525	-3.92
679.556	6.08
679.586	6.08
679.617	17.08
679.647	7.08
679.678	5.08
679.708	20.08
679.739	-0.92
679.769	4.08
679.8	18.08
679.83	10.08
679.861	12.08
679.891	-11.92
679.922	-17.92
679.952	4.08
679.983	8.08
680.013	9.08
680.044	-12.92
680.074	3.08
680.105	5.08
680.135	-10.92
680.165	10.08
680.196	0.08
680.226	5.08
680.257	6.08
680.287	3.08
680.318	-6.92
680.348	-2.92
680.379	5.08
680.409	-11.92
680.439	-3.92
680.47	-1.92
680.5	7.08
680.531	4.08
680.561	13.08
680.592	7.08
680.622	13.08
680.652	6.08
680.683	17.08
680.713	2.08
680.744	3.08
680.774	-3.92
680.804	18.08
680.835	2.08
680.865	-17.92
680.896	14.08
680.926	18.08
680.956	1.08
680.987	-5.92
681.017	4.08
681.047	7.08
681.078	9.08
681.108	6.08
681.139	-0.92
681.169	10.08
681.199	-3.92
681.23	2.08
681.26	4.08
681.29	-0.92
681.321	-10.92
681.351	7.08
681.381	-19.92
681.412	10.08
681.442	-3.92
681.472	13.08
681.503	17.08
681.533	9.08
681.563	4.08
681.594	8.08
681.624	-6.92
681.654	13.08
681.685	-16.92
681.715	-22.92
681.745	5.08
681.775	-11.92
681.806	-1.92
681.836	17.08
681.866	-8.92
681.897	-4.92
681.927	-2.92
681.957	-28.92
681.987	-15.92
682.018	21.08
682.048	20.08
682.078	18.08
682.109	10.08
682.139	-6.92
682.169	-10.92
682.199	4.08
682.23	-4.92
682.26	13.08
682.29	-7.92
682.32	-10.92
682.351	-10.92
682.381	-14.92
682.411	-9.92
682.441	-4.92
682.472	-2.92
682.502	-6.92
682.532	-10.92
682.562	-8.92
682.592	-0.92
682.623	12.08
682.653	7.08
682.683	10.08
682.713	-7.92
682.743	-9.92
682.774	0.08
682.804	-1.92
682.834	6.08
682.864	-0.92
682.894	-18.92
682.925	-20.92
682.955	-1.92
682.985	-7.92
683.015	15.08
683.045	17.08
683.076	-21.92
683.106	0.08
683.136	6.08
683.166	6.08
683.196	12.08
683.226	5.08
683.257	-2.92
683.287	-0.92
683.317	5.08
683.347	4.08
683.377	6.08
683.407	-4.92
683.437	12.08
683.468	19.08
683.498	-23.92
683.528	5.08
683.558	6.08
683.588	-0.92
683.618	-12.92
683.648	-3.92
683.678	-1.92
683.708	3.08
683.739	-1.92
683.769	4.08
683.799	-8.92
683.829	11.08
683.859	17.08
683.889	21.08
683.919	-1.92
683.949	3.08
683.979	-2.92
684.009	2.08
684.039	9.08
684.07	-8.92
684.1	9.08
684.13	0.08
684.16	2.08
684.19	-10.92
684.22	4.08
684.25	7.08
684.28	4.08
684.31	17.08
684.34	5.08
684.37	-3.92
684.4	-14.92
684.43	6.08
684.46	7.08
684.49	11.08
684.52	3.08
684.55	6.08
684.58	-4.92
684.61	7.08
684.64	12.08
684.67	8.08
684.7	-4.92
684.73	17.08
684.76	-7.92
684.79	23.08
684.82	9.08
684.85	-16.92
684.88	15.08
684.91	6.08
684.94	8.08
684.97	-4.92
685	-1.92
685.03	-5.92
685.06	-18.92
685.09	4.08
685.12	18.08
685.15	2.08
685.18	8.08
685.21	15.08
685.24	20.08
685.27	29.08
685.3	-8.92
685.33	-5.92
685.36	3.08
685.39	-7.92
685.42	-0.92
685.45	4.08
685.48	6.08
685.51	-4.92
685.54	24.08
685.569	9.08
685.599	0.08
685.629	4.08
685.659	-10.92
685.689	-16.92
685.719	5.08
685.749	1.08
685.779	17.08
685.809	2.08
685.839	11.08
685.869	16.08
685.898	22.08
685.928	10.08
685.958	-0.92
685.988	8.08
686.018	-8.92
686.048	5.08
686.078	6.08
686.108	20.08
686.137	5.08
686.167	19.08
686.197	-0.92
686.227	15.08
686.257	27.08
686.287	4.08
686.317	1.08
686.346	-0.92
686.376	2.08
686.406	-0.92
686.436	14.08
686.466	-3.92
686.496	13.08
686.525	12.08
686.555	2.08
686.585	24.08
686.615	18.08
686.645	4.08
686.675	-0.92
686.704	-2.92
686.734	3.08
686.764	-4.92
686.794	6.08
686.824	4.08
686.853	11.08
686.883	18.08
686.913	7.08
686.943	12.08
686.973	-1.92
687.002	-0.92
687.032	2.08
687.062	1.08
687.092	19.08
687.121	-2.92
687.151	15.08
687.181	15.08
687.211	16.08
687.24	-0.92
687.27	14.08
687.3	5.08
687.33	3.08
687.359	-16.92
687.389	-9.92
687.419	2.08
687.449	3.08
687.478	-1.92
687.508	-8.92
687.538	5.08
687.568	1.08
687.597	-13.92
687.627	16.08
687.657	5.08
687.686	5.08
687.716	23.08
687.746	-7.92
687.776	-0.92
687.805	-4.92
687.835	-8.92
687.865	19.08
687.894	-3.92
687.924	2.08
687.954	-3.92
687.983	3.08
688.013	14.08
688.043	3.08
688.072	8.08
688.102	11.08
688.132	8.08
688.161	-2.92
688.191	0.08
688.221	14.08
688.25	4.08
688.28	6.08
688.31	-7.92
688.339	-7.92
688.369	-10.92
688.399	-6.92
688.428	0.08
688.458	-8.92
688.488	0.08
688.517	4.08
688.547	7.08
688.576	33.08
688.606	15.08
688.636	-8.92
688.665	12.08
688.695	8.08
688.725	22.08
688.754	9.08
688.784	1.08
688.813	14.08
688.843	5.08
688.873	3.08
688.902	-4.92
688.932	8.08
688.961	10.08
688.991	6.08
689.02	6.08
689.05	-18.92
689.08	9.08
689.109	9.08
689.139	3.08
689.168	1.08
689.198	-0.92
689.227	5.08
689.257	9.08
689.287	6.08
689.316	3.08
689.346	14.08
689.375	10.08
689.405	5.08
689.434	1.08
689.464	7.08
689.493	-3.92
689.523	-0.92
689.552	-6.92
689.582	-0.92
689.611	-3.92
689.641	0.08
689.67	1.08
689.7	12.08
689.73	10.08
689.759	11.08
689.789	13.08
689.818	-8.92
689.848	-14.92
689.877	17.08
689.906	2.08
689.936	-0.92
689.965	10.08
689.995	15.08
690.024	30.08
690.054	-9.92
690.083	9.08
690.113	-4.92
690.142	7.08
690.172	11.08
690.201	13.08
690.231	11.08
690.26	-0.92
690.29	0.08
690.319	-3.92
690.348	1.08
690.378	2.08
690.407	5.08
690.437	6.08
690.466	13.08
690.496	2.08
690.525	-0.92
690.555	-12.92
690.584	1.08
690.613	6.08
690.643	7.08
690.672	-1.92
690.702	14.08
690.731	-1.92
690.76	-1.92
690.79	2.08
690.819	-7.92
690.849	9.08
690.878	3.08
690.907	8.08
690.937	16.08
690.966	17.08
690.996	7.08
691.025	11.08
691.054	4.08
691.084	-0.92
691.113	6.08
691.142	-2.92
691.172	-0.92
691.201	16.08
691.23	-10.92
691.26	7.08
691.289	6.08
691.319	9.08
691.348	-4.92
691.377	25.08
691.407	-6.92
691.436	-1.92
691.465	12.08
691.495	-7.92
691.524	-0.92
691.553	-0.92
691.583	-9.92
691.612	22.08
691.641	-5.92
691.67	-13.92
691.7	10.08
691.729	-14.92
691.758	7.08
691.788	3.08
691.817	-12.92
691.846	-13.92
691.876	11.08
691.905	4.08
691.934	-2.92
691.963	17.08
691.993	14.08
692.022	-5.92
692.051	-12.92
692.081	5.08
692.11	3.08
692.139	17.08
692.168	15.08
692.198	15.08
692.227	4.08
692.256	5.08
692.285	2.08
692.315	2.08
692.344	11.08
692.373	21.08
692.402	-17.92
692.432	-4.92
692.461	-8.92
692.49	2.08
692.519	9.08
692.548	11.08
692.578	23.08
692.607	6.08
692.636	-2.92
692.665	27.08
692.694	10.08
692.724	10.08
692.753	14.08
692.782	6.08
692.811	0.08
692.84	-3.92
692.87	9.08
692.899	20.08
692.928	6.08
692.957	15.08
692.986	9.08
693.016	3.08
693.045	0.08
693.074	5.08
693.103	23.08
693.132	4.08
693.161	11.08
693.191	-13.92
693.22	-19.92
693.249	-0.92
693.278	-9.92
693.307	1.08
693.336	-3.92
693.365	-11.92
693.395	3.08
693.424	2.08
693.453	26.08
693.482	11.08
693.511	21.08
693.54	22.08
693.569	2.08
693.598	8.08
693.628	20.08
693.657	3.08
693.686	16.08
693.715	9.08
693.744	-0.92
693.773	9.08
693.802	13.08
693.831	8.08
693.86	16.08
693.889	11.08
693.919	4.08
693.948	-4.92
693.977	2.08
694.006	-3.92
694.035	8.08
694.064	-5.92
694.093	7.08
694.122	-0.92
694.151	-14.92
694.18	20.08
694.209	39.08
694.238	14.08
694.267	24.08
694.296	15.08
694.325	6.08
694.354	10.08
694.383	6.08
694.412	10.08
694.441	-1.92
694.471	-1.92
694.5	-0.92
694.529	6.08
694.558	14.08
694.587	19.08
694.616	-4.92
694.645	14.08
694.674	11.08
694.703	26.08
694.732	9.08
694.761	19.08
694.79	14.08
694.819	3.08
694.848	14.08
694.877	-3.92
694.906	26.08
694.935	2.08
694.963	25.08
694.992	6.08
695.021	-3.92
695.05	6.08
695.079	7.08
695.108	5.08
695.137	21.08
695.166	9.08
695.195	12.08
695.224	17.08
695.253	1.08
695.282	-1.92
695.311	17.08
695.34	9.08
695.369	16.08
695.398	11.08
695.427	5.08
695.456	9.08
695.485	1.08
695.513	6.08
695.542	4.08
695.571	0.08
695.6	14.08
695.629	13.08
695.658	13.08
695.687	2.08
695.716	2.08
695.745	25.08
695.774	0.08
695.802	2.08
695.831	5.08
695.86	12.08
695.889	11.08
695.918	-5.92
695.947	-3.92
695.976	5.08
696.005	11.08
696.033	28.08
696.062	29.08
696.091	13.08
696.12	18.08
696.149	23.08
696.178	10.08
696.207	6.08
696.235	-22.92
696.264	9.08
696.293	18.08
696.322	1.08
696.351	16.08
696.38	1.08
696.408	4.08
696.437	18.08
696.466	2.08
696.495	6.08
696.524	19.08
696.553	10.08
696.581	20.08
696.61	13.08
696.639	24.08
696.668	-7.92
696.697	-4.92
696.725	12.08
696.754	6.08
696.783	10.08
696.812	1.08
696.84	19.08
696.869	19.08
696.898	9.08
696.927	5.08
696.956	8.08
696.984	12.08
697.013	1.08
697.042	-5.92
697.071	14.08
697.099	6.08
697.128	12.08
697.157	7.08
697.186	-0.92
697.214	19.08
697.243	-0.92
697.272	-7.92
697.301	-0.92
697.329	2.08
697.358	9.08
697.387	9.08
697.415	11.08
697.444	5.08
697.473	11.08
697.502	-7.92
697.53	2.08
697.559	24.08
697.588	10.08
697.616	3.08
697.645	4.08
697.674	10.08
697.703	2.08
697.731	18.08
697.76	15.08
697.789	3.08
697.817	10.08
697.846	20.08
697.875	8.08
697.903	39.08
697.932	22.08
697.961	17.08
697.989	30.08
698.018	7.08
698.047	0.08
698.075	13.08
698.104	-5.92
698.133	6.08
698.161	11.08
698.19	6.08
698.218	-6.92
698.247	14.08
698.276	15.08
698.304	8.08
698.333	-7.92
698.362	7.08
698.39	14.08
698.419	-3.92
698.447	3.08
698.476	5.08
698.505	24.08
698.533	13.08
698.562	4.08
698.591	2.08
698.619	4.08
698.648	18.08
698.676	5.08
698.705	-2.92
698.733	0.08
698.762	2.08
698.791	6.08
698.819	4.08
698.848	-1.92
698.876	20.08
698.905	13.08
698.933	16.08
698.962	15.08
698.991	22.08
699.019	16.08
699.048	14.08
699.076	6.08
699.105	-24.92
699.133	-5.92
699.162	6.08
699.19	30.08
699.219	6.08
699.248	7.08
699.276	4.08
699.305	-0.92
699.333	20.08
699.362	-2.92
699.39	7.08
699.419	16.08
699.447	11.08
699.476	18.08
699.504	5.08
699.533	8.08
699.561	-9.92
699.59	3.08
699.618	-0.92
699.647	1.08
699.675	1.08
699.704	18.08
699.732	2.08
699.761	-0.92
699.789	12.08
699.818	23.08
699.846	7.08
699.874	0.08
699.903	4.08
699.931	1.08
699.96	1.08
699.988	1.08
700.017	21.08
700.045	16.08
700.074	-2.92
700.102	8.08
700.13	14.08
700.159	3.08
700.187	2.08
700.216	-8.92
700.244	7.08
700.273	3.08
700.301	13.08
700.329	23.08
700.358	15.08
700.386	-3.92
700.415	17.08
700.443	5.08
700.472	5.08
700.5	7.08
700.528	10.08
700.557	9.08
700.585	9.08
700.614	-7.92
700.642	9.08
700.67	8.08
700.699	40.08
700.727	6.08
700.755	16.08
700.784	-2.92
700.812	-2.92
700.841	16.08
700.869	-7.92
700.897	-13.92
700.926	-1.92
700.954	5.08
700.982	18.08
701.011	8.08
701.039	14.08
701.067	2.08
701.096	9.08
701.124	-4.92
701.152	2.08
701.181	-0.92
701.209	-14.92
701.237	4.08
701.266	-8.92
701.294	-7.92
701.322	2.08
701.351	10.08
701.379	11.08
701.407	2.08
701.435	8.08
701.464	9.08
701.492	6.08
701.52	-8.92
701.549	1.08
701.577	-12.92
701.605	5.08
701.634	2.08
701.662	19.08
701.69	-3.92
701.718	-4.92
701.747	2.08
701.775	9.08
701.803	9.08
701.831	13.08
701.86	-8.92
701.888	11.08
701.916	-8.92
701.944	-0.92
701.973	-3.92
702.001	-14.92
702.029	-2.92
702.057	0.08
702.086	-9.92
702.114	-9.92
702.142	13.08
702.17	-9.92
702.199	-6.92
702.227	-8.92
702.255	10.08
702.283	1.08
702.311	9.08
702.34	-2.92
702.368	-6.92
702.396	10.08
702.424	-2.92
702.452	4.08
702.481	-7.92
702.509	-7.92
702.537	12.08
702.565	2.08
702.593	-16.92
702.621	10.08
702.65	21.08
702.678	15.08
702.706	6.08
702.734	-5.92
702.762	7.08
702.79	-12.92
702.819	5.08
702.847	11.08
702.875	30.08
702.903	8.08
702.931	-14.92
702.959	-4.92
702.988	14.08
703.016	-10.92
703.044	9.08
703.072	5.08
703.1	-2.92
703.128	4.08
703.156	-2.92
703.184	-9.92
703.212	-1.92
703.241	5.08
703.269	1.08
703.297	-5.92
703.325	4.08
703.353	-12.92
703.381	-4.92
703.409	-9.92
703.437	-9.92
703.465	13.08
703.493	16.08
703.522	14.08
703.55	7.08
703.578	0.08
703.606	-1.92
703.634	-1.92
703.662	7.08
703.69	0.08
703.718	3.08
703.746	10.08
703.774	12.08
703.802	27.08
703.83	4.08
703.858	-11.92
703.886	-17.92
703.914	-3.92
703.942	9.08
703.97	3.08
703.998	-4.92
704.027	14.08
704.055	5.08
704.083	-14.92
704.111	-8.92
704.139	-0.92
704.167	14.08
704.195	10.08
704.223	-5.92
704.251	-4.92
704.279	13.08
704.307	12.08
704.335	-12.92
704.363	7.08
704.391	-5.92
704.419	11.08
704.447	5.08
704.475	15.08
704.503	-14.92
704.531	12.08
704.558	1.08
704.586	-2.92
704.614	13.08
704.642	16.08
704.67	2.08
704.698	-9.92
704.726	7.08
704.754	3.08
704.782	1.08
704.81	-2.92
704.838	11.08
704.866	7.08
704.894	-5.92
704.922	10.08
704.95	29.08
704.978	8.08
705.006	-5.92
705.034	15.08
705.061	-0.92
705.089	-1.92
705.117	1.08
705.145	-0.92
705.173	-4.92
705.201	-9.92
705.229	8.08
705.257	-0.92
705.285	1.08
705.313	4.08
705.34	10.08
705.368	13.08
705.396	6.08
705.424	-5.92
705.452	-2.92
705.48	1.08
705.508	-9.92
705.536	15.08
705.563	-1.92
705.591	10.08
705.619	2.08
705.647	-17.92
705.675	1.08
705.703	-1.92
705.731	12.08
705.758	19.08
705.786	13.08
705.814	8.08
705.842	-1.92
705.87	36.08
705.898	4.08
705.925	-3.92
705.953	14.08
705.981	5.08
706.009	3.08
706.037	4.08
706.065	2.08
706.092	-20.92
706.12	-11.92
706.148	-1.92
706.176	-2.92
706.204	2.08
706.231	9.08
706.259	-3.92
706.287	-4.92
706.315	-1.92
706.342	-3.92
706.37	9.08
706.398	5.08
706.426	-1.92
706.454	1.08
706.481	9.08
706.509	-0.92
706.537	1.08
706.565	-5.92
706.592	10.08
706.62	11.08
706.648	6.08
706.676	-9.92
706.703	9.08
706.731	-0.92
706.759	5.08
706.787	11.08
706.814	8.08
706.842	1.08
706.87	4.08
706.897	2.08
706.925	2.08
706.953	4.08
706.981	4.08
707.008	-0.92
707.036	-8.92
707.064	-12.92
707.091	-17.92
707.119	7.08
707.147	10.08
707.174	10.08
707.202	12.08
707.23	-19.92
707.258	-1.92
707.285	1.08
707.313	0.08
707.341	6.08
707.368	2.08
707.396	6.08
707.424	15.08
707.451	-1.92
707.479	19.08
707.507	-2.92
707.534	-7.92
707.562	2.08
707.59	-9.92
707.617	-13.92
707.645	10.08
707.672	1.08
707.7	2.08
707.728	4.08
707.755	1.08
707.783	14.08
707.811	2.08
707.838	3.08
707.866	9.08
707.893	-1.92
707.921	-13.92
707.949	0.08
707.976	5.08
708.004	5.08
708.031	7.08
708.059	-2.92
708.087	9.08
708.114	-1.92
708.142	9.08
708.169	-0.92
708.197	-9.92
708.225	-0.92
708.252	-14.92
708.28	-0.92
708.307	-14.92
708.335	0.08
708.362	-9.92
708.39	-20.92
708.418	-16.92
708.445	-13.92
708.473	-6.92
708.5	-0.92
708.528	1.08
708.555	-8.92
708.583	-3.92
708.61	-15.92
708.638	-2.92
708.665	-7.92
708.693	8.08
708.72	-11.92
708.748	-3.92
708.776	-2.92
708.803	19.08
708.831	29.08
708.858	17.08
708.886	-6.92
708.913	-1.92
708.941	3.08
708.968	13.08
708.996	-1.92
709.023	24.08
709.051	5.08
709.078	-4.92
709.105	1.08
709.133	12.08
709.16	1.08
709.188	10.08
709.215	11.08
709.243	8.08
709.27	-19.92
709.298	6.08
709.325	1.08
709.353	10.08
709.38	1.08
709.408	15.08
709.435	11.08
709.462	5.08
709.49	7.08
709.517	-17.92
709.545	-7.92
709.572	-5.92
709.6	-6.92
709.627	3.08
709.655	-2.92
709.682	-7.92
709.709	14.08
709.737	3.08
709.764	-8.92
709.792	11.08
709.819	3.08
709.846	-9.92
709.874	10.08
709.901	13.08
709.929	10.08
709.956	-2.92
709.983	-6.92
710.011	-9.92
710.038	-2.92
710.066	1.08
710.093	8.08
710.12	3.08
710.148	-11.92
710.175	-1.92
710.202	-14.92
710.23	7.08
710.257	8.08
710.284	12.08
710.312	0.08
710.339	4.08
710.366	10.08
710.394	-3.92
710.421	4.08
710.448	17.08
710.476	1.08
710.503	9.08
710.53	8.08
710.558	12.08
710.585	9.08
710.612	15.08
710.64	6.08
710.667	1.08
710.694	-8.92
710.722	4.08
710.749	-14.92
710.776	3.08
710.804	10.08
710.831	-8.92
710.858	4.08
710.885	-12.92
710.913	-0.92
710.94	23.08
710.967	4.08
710.995	5.08
711.022	6.08
711.049	9.08
711.076	-16.92
711.104	-2.92
711.131	-30.92
711.158	-2.92
711.185	7.08
711.213	-3.92
711.24	-4.92
711.267	4.08
711.294	-9.92
711.322	7.08
711.349	-1.92
711.376	2.08
711.403	3.08
711.431	-8.92
711.458	-11.92
711.485	-1.92
711.512	3.08
711.54	-3.92
711.567	3.08
711.594	-10.92
711.621	-8.92
711.648	-4.92
711.676	7.08
711.703	-3.92
711.73	-17.92
711.757	2.08
711.784	2.08
711.812	-1.92
711.839	-1.92
711.866	-7.92
711.893	2.08
711.92	11.08
711.947	6.08
711.975	19.08
712.002	9.08
712.029	7.08
712.056	2.08
712.083	21.08
712.11	-18.92
712.138	0.08
712.165	9.08
712.192	4.08
712.219	6.08
712.246	-10.92
712.273	-5.92
712.3	-9.92
712.328	11.08
712.355	12.08
712.382	8.08
712.409	25.08
712.436	-12.92
712.463	1.08
712.49	10.08
712.517	5.08
712.544	1.08
712.572	2.08
712.599	-9.92
712.626	-7.92
712.653	-2.92
712.68	-21.92
712.707	-10.92
712.734	12.08
712.761	5.08
712.788	12.08
712.815	6.08
712.842	17.08
712.87	5.08
712.897	-17.92
712.924	-9.92
712.951	17.08
712.978	8.08
713.005	15.08
713.032	15.08
713.059	3.08
713.086	3.08
713.113	-0.92
713.14	-9.92
713.167	6.08
713.194	8.08
713.221	5.08
713.248	14.08
713.275	4.08
713.302	3.08
713.329	3.08
713.356	-2.92
713.383	-2.92
713.41	14.08
713.437	2.08
713.464	10.08
713.491	27.08
713.518	-0.92
713.545	-13.92
713.572	2.08
713.599	26.08
713.626	4.08
713.653	15.08
713.68	-3.92
713.707	14.08
713.734	8.08
713.761	-6.92
713.788	-13.92
713.815	3.08
713.842	3.08
713.869	5.08
713.896	5.08
713.923	14.08
713.95	1.08
713.977	1.08
714.004	-2.92
714.031	-5.92
714.058	-2.92
714.085	2.08
714.112	15.08
714.139	2.08
714.165	-13.92
714.192	-5.92
714.219	1.08
714.246	11.08
714.273	-8.92
714.3	-5.92
714.327	-17.92
714.354	6.08
714.381	-3.92
714.408	-11.92
714.435	-9.92
714.461	-0.92
714.488	0.08
714.515	-18.92
714.542	-24.92
714.569	-9.92
714.596	-9.92
714.623	-9.92
714.65	-3.92
714.677	10.08
714.703	2.08
714.73	-3.92
714.757	2.08
714.784	10.08
714.811	-4.92
714.838	4.08
714.865	-9.92
714.891	21.08
714.918	8.08
714.945	-1.92
714.972	5.08
714.999	12.08
715.026	7.08
715.052	7.08
715.079	15.08
715.106	1.08
715.133	4.08
715.16	-2.92
715.187	-6.92
715.213	17.08
715.24	-9.92
715.267	-3.92
715.294	-10.92
715.321	-11.92
715.347	-12.92
715.374	1.08
715.401	9.08
715.428	4.08
715.455	9.08
715.481	1.08
715.508	6.08
715.535	-2.92
715.562	23.08
715.588	-3.92
715.615	-10.92
715.642	4.08
715.669	-2.92
715.695	-20.92
715.722	1.08
715.749	15.08
715.776	9.08
715.802	-11.92
715.829	7.08
715.856	2.08
715.883	16.08
715.909	4.08
715.936	6.08
715.963	-5.92
715.99	-13.92
716.016	6.08
716.043	12.08
716.07	1.08
716.096	-10.92
716.123	-4.92
716.15	-9.92
716.177	-1.92
716.203	2.08
716.23	2.08
716.257	14.08
716.283	6.08
716.31	8.08
716.337	14.08
716.363	-0.92
716.39	10.08
716.417	4.08
716.443	7.08
716.47	-1.92
716.497	14.08
716.523	13.08
716.55	6.08
716.577	6.08
716.603	-8.92
716.63	10.08
716.657	5.08
716.683	11.08
716.71	0.08
716.737	18.08
716.763	5.08
716.79	3.08
716.817	11.08
716.843	15.08
716.87	6.08
716.897	3.08
716.923	18.08
716.95	-1.92
716.976	-1.92
717.003	5.08
717.03	7.08
717.056	15.08
717.083	9.08
717.109	25.08
717.136	12.08
717.163	-2.92
717.189	1.08
717.216	3.08
717.242	-1.92
717.269	2.08
717.296	13.08
717.322	4.08
717.349	-0.92
717.375	-4.92
717.402	0.08
717.428	5.08
717.455	18.08
717.481	17.08
717.508	6.08
717.535	7.08
717.561	11.08
717.588	7.08
717.614	-13.92
717.641	-2.92
717.667	5.08
717.694	12.08
717.72	5.08
717.747	14.08
717.773	-13.92
717.8	-4.92
717.826	4.08
717.853	8.08
717.88	5.08
717.906	7.08
717.933	10.08
717.959	13.08
717.986	-4.92
718.012	5.08
718.039	10.08
718.065	25.08
718.092	-1.92
718.118	-12.92
718.144	-1.92
718.171	24.08
718.197	22.08
718.224	2.08
718.25	15.08
718.277	6.08
718.303	-0.92
718.33	-1.92
718.356	4.08
718.383	-9.92
718.409	10.08
718.436	1.08
718.462	3.08
718.489	-8.92
718.515	22.08
718.541	28.08
718.568	19.08
718.594	22.08
718.621	-0.92
718.647	-5.92
718.674	15.08
718.7	5.08
718.726	9.08
718.753	4.08
718.779	6.08
718.806	-4.92
718.832	-9.92
718.858	-13.92
718.885	-0.92
718.911	4.08
718.938	5.08
718.964	-1.92
718.99	4.08
719.017	-9.92
719.043	15.08
719.07	21.08
719.096	3.08
719.122	11.08
719.149	7.08
719.175	5.08
719.201	-1.92
719.228	-0.92
719.254	3.08
719.281	-2.92
719.307	8.08
719.333	1.08
719.36	2.08
719.386	-10.92
719.412	1.08
719.439	-9.92
719.465	-10.92
719.491	-6.92
719.518	5.08
719.544	10.08
719.57	25.08
719.597	12.08
719.623	-4.92
719.649	9.08
719.675	-0.92
719.702	13.08
719.728	15.08
719.754	-8.92
719.781	-3.92
719.807	-0.92
719.833	4.08
719.86	5.08
719.886	1.08
719.912	7.08
719.938	-4.92
719.965	2.08
719.991	6.08
720.017	-6.92
720.044	-2.92
720.07	7.08
720.096	19.08
720.122	5.08
720.149	8.08
720.175	28.08
720.201	6.08
720.227	10.08
720.254	9.08
720.28	5.08
720.306	-5.92
720.332	9.08
720.359	-0.92
720.385	7.08
720.411	3.08
720.437	10.08
720.463	3.08
720.49	0.08
720.516	-10.92
720.542	-10.92
720.568	5.08
720.595	7.08
720.621	5.08
720.647	2.08
720.673	1.08
720.699	10.08
720.725	16.08
720.752	19.08
720.778	-0.92
720.804	7.08
720.83	15.08
720.856	-2.92
720.883	-12.92
720.909	10.08
720.935	-0.92
720.961	23.08
720.987	7.08
721.013	6.08
721.04	-3.92
721.066	-6.92
721.092	-4.92
721.118	11.08
721.144	7.08
721.17	19.08
721.196	-0.92
721.223	-4.92
721.249	0.08
721.275	26.08
721.301	15.08
721.327	7.08
721.353	11.08
721.379	4.08
721.405	3.08
721.432	25.08
721.458	4.08
721.484	7.08
721.51	-9.92
721.536	-2.92
721.562	-2.92
721.588	8.08
721.614	-6.92
721.64	-2.92
721.666	0.08
721.693	-6.92
721.719	-1.92
721.745	-2.92
721.771	-0.92
721.797	4.08
721.823	-2.92
721.849	13.08
721.875	2.08
721.901	1.08
721.927	7.08
721.953	2.08
721.979	22.08
722.005	14.08
722.031	-12.92
722.057	1.08
722.083	-1.92
722.109	1.08
722.135	7.08
722.161	18.08
722.187	12.08
722.214	-9.92
722.24	2.08
722.266	5.08
722.292	3.08
722.318	17.08
722.344	-3.92
722.37	-1.92
722.396	10.08
722.422	5.08
722.448	-4.92
722.474	-1.92
722.5	6.08
722.526	-8.92
722.552	-1.92
722.578	11.08
722.603	10.08
722.629	1.08
722.655	8.08
722.681	-8.92
722.707	-0.92
722.733	-1.92
722.759	-17.92
722.785	-9.92
722.811	-1.92
722.837	7.08
722.863	7.08
722.889	19.08
722.915	-10.92
722.941	-1.92
722.967	2.08
722.993	12.08
723.019	1.08
723.045	14.08
723.071	-9.92
723.097	-0.92
723.122	13.08
723.148	-8.92
723.174	-2.92
723.2	10.08
723.226	2.08
723.252	9.08
723.278	-10.92
723.304	-3.92
723.33	0.08
723.356	-19.92
723.381	-14.92
723.407	-7.92
723.433	10.08
723.459	12.08
723.485	7.08
723.511	16.08
723.537	-5.92
723.563	-5.92
723.588	-1.92
723.614	9.08
723.64	11.08
723.666	8.08
723.692	6.08
723.718	-1.92
723.744	-4.92
723.769	-1.92
723.795	-5.92
723.821	6.08
723.847	1.08
723.873	2.08
723.899	7.08
723.924	13.08
723.95	-5.92
723.976	-6.92
724.002	8.08
724.028	6.08
724.053	-0.92
724.079	-4.92
724.105	10.08
724.131	11.08
724.157	-3.92
724.182	2.08
724.208	2.08
724.234	12.08
724.26	1.08
724.286	9.08
724.311	9.08
724.337	1.08
724.363	-2.92
724.389	6.08
724.415	7.08
724.44	29.08
724.466	4.08
724.492	17.08
724.518	7.08
724.543	-8.92
724.569	-2.92
724.595	13.08
724.621	6.08
724.646	-1.92
724.672	-2.92
724.698	-2.92
724.723	4.08
724.749	1.08
724.775	14.08
724.801	12.08
724.826	-18.92
724.852	-3.92
724.878	-8.92
724.904	-1.92
724.929	3.08
724.955	-12.92
724.981	7.08
725.006	6.08
725.032	4.08
725.058	6.08
725.083	-11.92
725.109	-6.92
725.135	-2.92
725.161	-4.92
725.186	1.08
725.212	2.08
725.238	13.08
725.263	14.08
725.289	0.08
725.315	-14.92
725.34	12.08
725.366	4.08
725.392	1.08
725.417	-0.92
725.443	-5.92
725.468	10.08
725.494	19.08
725.52	12.08
725.545	19.08
725.571	21.08
725.597	6.08
725.622	4.08
725.648	10.08
725.674	11.08
725.699	14.08
725.725	1.08
725.75	30.08
725.776	-2.92
725.802	-2.92
725.827	-1.92
725.853	6.08
725.878	8.08
725.904	3.08
725.93	6.08
725.955	4.08
725.981	6.08
726.006	5.08
726.032	10.08
726.057	6.08
726.083	5.08
726.109	-0.92
726.134	5.08
726.16	11.08
726.185	-2.92
726.211	0.08
726.236	11.08
726.262	6.08
726.288	16.08
726.313	13.08
726.339	12.08
726.364	-5.92
726.39	20.08
726.415	2.08
726.441	-13.92
726.466	12.08
726.492	3.08
726.517	22.08
726.543	10.08
726.568	1.08
726.594	9.08
726.619	0.08
726.645	15.08
726.67	7.08
726.696	-2.92
726.721	-4.92
726.747	-2.92
726.772	-1.92
726.798	2.08
726.823	6.08
726.849	-10.92
726.874	-1.92
726.9	34.08
726.925	16.08
726.951	-5.92
726.976	9.08
727.002	11.08
727.027	1.08
727.053	14.08
727.078	-4.92
727.104	-12.92
727.129	-12.92
727.155	9.08
727.18	8.08
727.205	-4.92
727.231	-3.92
727.256	3.08
727.282	7.08
727.307	2.08
727.333	-3.92
727.358	-2.92
727.383	0.08
727.409	-3.92
727.434	14.08
727.46	13.08
727.485	10.08
727.511	6.08
727.536	-3.92
727.561	3.08
727.587	-11.92
727.612	-8.92
727.637	-4.92
727.663	-0.92
727.688	13.08
727.714	1.08
727.739	-2.92
727.764	-2.92
727.79	-6.92
727.815	1.08
727.841	8.08
727.866	9.08
727.891	-0.92
727.917	-14.92
727.942	-1.92
727.967	-3.92
727.993	-22.92
728.018	-0.92
728.043	-7.92
728.069	10.08
728.094	15.08
728.119	-13.92
728.145	10.08
728.17	-3.92
728.195	7.08
728.221	15.08
728.246	-3.92
728.271	-8.92
728.297	4.08
728.322	13.08
728.347	17.08
728.373	13.08
728.398	-5.92
728.423	-5.92
728.448	0.08
728.474	6.08
728.499	-0.92
728.524	-10.92
728.55	-12.92
728.575	-1.92
728.6	-1.92
728.625	-15.92
728.651	4.08
728.676	14.08
728.701	13.08
728.727	0.08
728.752	6.08
728.777	7.08
728.802	-4.92
728.828	1.08
728.853	7.08
728.878	0.08
728.903	-9.92
728.929	-3.92
728.954	2.08
728.979	10.08
729.004	-3.92
729.03	-19.92
729.055	9.08
729.08	-6.92
729.105	1.08
729.13	2.08
729.156	11.08
729.181	2.08
729.206	-1.92
729.231	0.08
729.256	11.08
729.282	-5.92
729.307	-17.92
729.332	-12.92
729.357	-2.92
729.382	-3.92
729.408	21.08
729.433	2.08
729.458	2.08
729.483	-5.92
729.508	12.08
729.533	12.08
729.559	2.08
729.584	-2.92
729.609	3.08
729.634	-1.92
729.659	-0.92
729.684	-17.92
729.71	9.08
729.735	-14.92
729.76	-9.92
729.785	-2.92
729.81	3.08
729.835	-7.92
729.86	2.08
729.886	3.08
729.911	10.08
729.936	4.08
729.961	-5.92
729.986	-21.92
730.011	-6.92
730.036	2.08
730.061	-3.92
730.086	16.08
730.112	8.08
730.137	17.08
730.162	9.08
730.187	10.08
730.212	3.08
730.237	-22.92
730.262	-5.92
730.287	-11.92
730.312	16.08
730.337	-7.92
730.362	16.08
730.387	3.08
730.413	-9.92
730.438	-10.92
730.463	-15.92
730.488	-8.92
730.513	17.08
730.538	6.08
730.563	0.08
730.588	13.08
730.613	14.08
730.638	1.08
730.663	-13.92
730.688	25.08
730.713	5.08
730.738	-2.92
730.763	7.08
730.788	-17.92
730.813	7.08
730.838	5.08
730.863	-1.92
730.888	3.08
730.913	3.08
730.938	-26.92
730.963	7.08
730.988	13.08
731.013	-2.92
731.038	-17.92
731.063	1.08
731.088	27.08
731.113	-3.92
731.138	-17.92
731.163	8.08
731.188	-0.92
731.213	11.08
731.238	24.08
731.263	-8.92
731.288	6.08
731.313	4.08
731.338	3.08
731.363	5.08
731.388	-8.92
731.413	-0.92
731.438	10.08
731.463	6.08
731.487	-4.92
731.512	-6.92
731.537	-8.92
731.562	-0.92
731.587	2.08
731.612	-18.92
731.637	-4.92
731.662	6.08
731.687	-6.92
731.712	-19.92
731.737	7.08
731.762	-2.92
731.786	8.08
731.811	11.08
731.836	14.08
731.861	3.08
731.886	-4.92
731.911	-11.92
731.936	12.08
731.961	-2.92
731.986	-8.92
732.01	7.08
732.035	-5.92
732.06	9.08
732.085	1.08
732.11	-0.92
732.135	-8.92
732.16	0.08
732.184	3.08
732.209	14.08
732.234	19.08
732.259	-0.92
732.284	20.08
732.309	-0.92
732.334	-1.92
732.358	-16.92
732.383	-22.92
732.408	-5.92
732.433	6.08
732.458	4.08
732.482	13.08
732.507	-7.92
732.532	5.08
732.557	12.08
732.582	7.08
732.607	-14.92
732.631	-17.92
732.656	1.08
732.681	1.08
732.706	8.08
732.73	6.08
732.755	-11.92
732.78	6.08
732.805	1.08
732.83	-2.92
732.854	-0.92
732.879	8.08
732.904	-7.92
732.929	4.08
732.953	5.08
732.978	12.08
733.003	1.08
733.028	-14.92
733.052	10.08
733.077	5.08
733.102	8.08
733.127	-8.92
733.151	-13.92
733.176	2.08
733.201	3.08
733.226	1.08
733.25	-2.92
733.275	-9.92
733.3	5.08
733.324	7.08
733.349	-4.92
733.374	5.08
733.399	-2.92
733.423	-2.92
733.448	9.08
733.473	9.08
733.497	5.08
733.522	3.08
733.547	8.08
733.571	4.08
733.596	11.08
733.621	15.08
733.646	-1.92
733.67	13.08
733.695	3.08
733.72	7.08
733.744	31.08
733.769	13.08
733.794	23.08
733.818	12.08
733.843	-7.92
733.867	-21.92
733.892	11.08
733.917	-13.92
733.941	14.08
733.966	3.08
733.991	-14.92
734.015	7.08
734.04	1.08
734.065	5.08
734.089	27.08
734.114	9.08
734.138	14.08
734.163	-2.92
734.188	3.08
734.212	14.08
734.237	10.08
734.261	-4.92
734.286	7.08
734.311	-6.92
734.335	1.08
734.36	-8.92
734.384	6.08
734.409	5.08
734.434	-2.92
734.458	14.08
734.483	-9.92
734.507	-3.92
734.532	8.08
734.556	-2.92
734.581	0.08
734.606	8.08
734.63	-4.92
734.655	5.08
734.679	5.08
734.704	-0.92
734.728	1.08
734.753	0.08
734.777	-2.92
734.802	-1.92
734.826	-4.92
734.851	0.08
734.876	20.08
734.9	10.08
734.925	-3.92
734.949	-1.92
734.974	13.08
734.998	4.08
735.023	-5.92
735.047	-23.92
735.072	17.08
735.096	4.08
735.121	5.08
735.145	-4.92
735.17	0.08
735.194	15.08
735.219	9.08
735.243	0.08
735.268	11.08
735.292	0.08
735.317	-3.92
735.341	3.08
735.365	-13.92
735.39	10.08
735.414	12.08
735.439	12.08
735.463	6.08
735.488	9.08
735.512	-0.92
735.537	-1.92
735.561	0.08
735.586	-0.92
735.61	10.08
735.634	1.08
735.659	3.08
735.683	9.08
735.708	14.08
735.732	-2.92
735.757	1.08
735.781	9.08
735.805	1.08
735.83	-5.92
735.854	7.08
735.879	1.08
735.903	9.08
735.927	8.08
735.952	7.08
735.976	4.08
736.001	13.08
736.025	11.08
736.049	-1.92
736.074	4.08
736.098	-2.92
736.123	2.08
736.147	-3.92
736.171	5.08
736.196	24.08
736.22	0.08
736.244	15.08
736.269	-5.92
736.293	-2.92
736.317	2.08
736.342	3.08
736.366	22.08
736.39	15.08
736.415	1.08
736.439	-13.92
736.463	16.08
736.488	6.08
736.512	-3.92
736.536	21.08
736.561	16.08
736.585	-1.92
736.609	15.08
736.634	9.08
736.658	3.08
736.682	-6.92
736.707	-6.92
736.731	-14.92
736.755	3.08
736.78	17.08
736.804	22.08
736.828	7.08
736.852	-1.92
736.877	6.08
736.901	8.08
736.925	8.08
736.949	3.08
736.974	-4.92
736.998	-8.92
737.022	-6.92
737.047	-5.92
737.071	1.08
737.095	3.08
737.119	20.08
737.144	13.08
737.168	1.08
737.192	6.08
737.216	13.08
737.241	-12.92
737.265	-0.92
737.289	9.08
737.313	4.08
737.337	10.08
737.362	4.08
737.386	1.08
737.41	-20.92
737.434	-1.92
737.459	11.08
737.483	14.08
737.507	16.08
737.531	7.08
737.555	6.08
737.58	15.08
737.604	1.08
737.628	-5.92
737.652	-10.92
737.676	0.08
737.701	12.08
737.725	7.08
737.749	-1.92
737.773	-0.92
737.797	-22.92
737.821	0.08
737.846	6.08
737.87	21.08
737.894	19.08
737.918	-1.92
737.942	3.08
737.966	23.08
737.99	16.08
738.015	5.08
738.039	2.08
738.063	-0.92
738.087	14.08
738.111	1.08
738.135	13.08
738.159	10.08
738.184	1.08
738.208	0.08
738.232	1.08
738.256	0.08
738.28	16.08
738.304	10.08
738.328	9.08
738.352	-0.92
738.376	-7.92
738.4	21.08
738.425	9.08
738.449	-2.92
738.473	9.08
738.497	5.08
738.521	5.08
738.545	5.08
738.569	8.08
738.593	15.08
738.617	4.08
738.641	3.08
738.665	9.08
738.689	21.08
738.713	11.08
738.737	8.08
738.762	13.08
738.786	9.08
738.81	-3.92
738.834	22.08
738.858	-2.92
738.882	5.08
738.906	15.08
738.93	1.08
738.954	-3.92
738.978	9.08
739.002	-4.92
739.026	4.08
739.05	-1.92
739.074	-3.92
739.098	38.08
739.122	31.08
739.146	6.08
739.17	-1.92
739.194	4.08
739.218	-2.92
739.242	21.08
739.266	-6.92
739.29	2.08
739.314	-1.92
739.338	5.08
739.362	-1.92
739.386	-0.92
739.41	-3.92
739.434	-3.92
739.458	23.08
739.482	7.08
739.506	11.08
739.53	5.08
739.554	15.08
739.577	-2.92
739.601	15.08
739.625	-13.92
739.649	14.08
739.673	4.08
739.697	29.08
739.721	2.08
739.745	-2.92
739.769	-7.92
739.793	-6.92
739.817	11.08
739.841	-3.92
739.865	7.08
739.889	10.08
739.912	11.08
739.936	-6.92
739.96	-5.92
739.984	6.08
740.008	-0.92
740.032	-3.92
740.056	7.08
740.08	14.08
740.104	13.08
740.127	16.08
740.151	10.08
740.175	6.08
740.199	17.08
740.223	37.08
740.247	7.08
740.271	-2.92
740.295	-11.92
740.318	-7.92
740.342	6.08
740.366	-4.92
740.39	5.08
740.414	0.08
740.438	-2.92
740.461	8.08
740.485	16.08
740.509	3.08
740.533	17.08
740.557	-0.92
740.581	-1.92
740.604	-11.92
740.628	-2.92
740.652	14.08
740.676	3.08
740.7	11.08
740.723	5.08
740.747	8.08
740.771	-5.92
740.795	-6.92
740.819	19.08
740.842	13.08
740.866	11.08
740.89	7.08
740.914	-8.92
740.938	-12.92
740.961	5.08
740.985	8.08
741.009	-8.92
741.033	6.08
741.056	-1.92
741.08	-13.92
741.104	-18.92
741.128	-17.92
741.151	20.08
741.175	10.08
741.199	11.08
741.223	15.08
741.246	5.08
741.27	15.08
741.294	-4.92
741.318	-9.92
741.341	7.08
741.365	2.08
741.389	-3.92
741.413	22.08
741.436	13.08
741.46	8.08
741.484	22.08
741.507	2.08
741.531	19.08
741.555	29.08
741.579	9.08
741.602	1.08
741.626	18.08
741.65	2.08
741.673	-3.92
741.697	7.08
741.721	1.08
741.744	-13.92
741.768	-5.92
741.792	-4.92
741.815	5.08
741.839	27.08
741.863	34.08
741.886	24.08
741.91	0.08
741.934	-8.92
741.957	-22.92
741.981	7.08
742.005	-4.92
742.028	-20.92
742.052	1.08
742.075	7.08
742.099	31.08
742.123	7.08
742.146	-4.92
742.17	2.08
742.194	-5.92
742.217	7.08
742.241	-1.92
742.264	-2.92
742.288	14.08
742.312	17.08
742.335	-3.92
742.359	1.08
742.382	12.08
742.406	14.08
742.43	-5.92
742.453	-0.92
742.477	-3.92
742.5	25.08
742.524	-0.92
742.548	-16.92
742.571	-2.92
742.595	2.08
742.618	-7.92
742.642	-2.92
742.665	25.08
742.689	-2.92
742.712	3.08
742.736	-3.92
742.76	1.08
742.783	-3.92
742.807	14.08
742.83	8.08
742.854	6.08
742.877	7.08
742.901	6.08
742.924	0.08
742.948	2.08
742.971	2.08
742.995	5.08
743.018	-8.92
743.042	2.08
743.065	3.08
743.089	2.08
743.112	7.08
743.136	-10.92
743.159	4.08
743.183	2.08
743.206	0.08
743.23	-1.92
743.253	13.08
743.277	15.08
743.3	7.08
743.324	-0.92
743.347	-10.92
743.371	17.08
743.394	22.08
743.418	14.08
743.441	13.08
743.465	16.08
743.488	5.08
743.512	-3.92
743.535	2.08
743.558	9.08
743.582	8.08
743.605	11.08
743.629	-3.92
743.652	12.08
743.676	-6.92
743.699	22.08
743.723	6.08
743.746	1.08
743.769	-5.92
743.793	18.08
743.816	9.08
743.84	19.08
743.863	10.08
743.886	26.08
743.91	3.08
743.933	4.08
743.957	18.08
743.98	13.08
744.003	9.08
744.027	18.08
744.05	3.08
744.074	4.08
744.097	-1.92
744.12	-3.92
744.144	-6.92
744.167	-2.92
744.19	-7.92
744.214	2.08
744.237	-3.92
744.26	25.08
744.284	-4.92
744.307	1.08
744.331	5.08
744.354	-3.92
744.377	-16.92
744.401	-2.92
744.424	-6.92
744.447	-4.92
744.471	-12.92
