Data from HighRes_H2_15_09_11_07_2024_HR4C61891__105__15-11-06-901.txt Node

Date: Thu Nov 07 15:11:06 EST 2024
User: crc00042
Spectrometer: HR4C6189
Trigger mode: 4
Integration Time (sec): 1.000000E-1
Scans to average: 1
Electric dark correction enabled: true
Nonlinearity correction enabled: false
Boxcar width: 0
XAxis mode: Wavelengths
Number of Pixels in Spectrum: 3648
>>>>>Begin Spectral Data<<<<<
639.567	-36.08
639.602	-36.08
639.636	-36.08
639.67	-35.08
639.704	-12.08
639.738	-8.08
639.773	10.92
639.807	-19.08
639.841	-4.08
639.875	3.92
639.909	6.92
639.943	4.92
639.978	0.92
640.012	-2.08
640.046	9.92
640.08	-0.08
640.114	-0.08
640.148	-4.08
640.182	-15.08
640.217	-2.08
640.251	10.92
640.285	12.92
640.319	-17.08
640.353	5.92
640.387	10.92
640.421	10.92
640.455	-10.08
640.49	-8.08
640.524	8.92
640.558	18.92
640.592	5.92
640.626	-6.08
640.66	6.92
640.694	-0.08
640.728	25.92
640.762	8.92
640.796	15.92
640.83	6.92
640.865	3.92
640.899	-2.08
640.933	8.92
640.967	2.92
641.001	22.92
641.035	11.92
641.069	10.92
641.103	6.92
641.137	-10.08
641.171	-0.08
641.205	5.92
641.239	2.92
641.273	14.92
641.307	10.92
641.341	-4.08
641.375	-0.08
641.409	-1.08
641.443	5.92
641.477	6.92
641.511	9.92
641.545	3.92
641.579	2.92
641.614	14.92
641.648	16.92
641.682	-20.08
641.716	-6.08
641.75	17.92
641.784	2.92
641.818	5.92
641.852	11.92
641.886	12.92
641.919	25.92
641.953	-10.08
641.987	-21.08
642.021	-3.08
642.055	11.92
642.089	3.92
642.123	12.92
642.157	-1.08
642.191	1.92
642.225	-7.08
642.259	8.92
642.293	4.92
642.327	-3.08
642.361	-12.08
642.395	28.92
642.429	25.92
642.463	6.92
642.497	32.92
642.531	18.92
642.565	-8.08
642.599	12.92
642.633	-11.08
642.666	-0.08
642.7	15.92
642.734	28.92
642.768	-11.08
642.802	2.92
642.836	10.92
642.87	-7.08
642.904	6.92
642.938	-4.08
642.972	-3.08
643.005	9.92
643.039	12.92
643.073	-4.08
643.107	18.92
643.141	14.92
643.175	6.92
643.209	7.92
643.243	-6.08
643.276	12.92
643.31	-4.08
643.344	-5.08
643.378	3.92
643.412	14.92
643.446	4.92
643.48	-8.08
643.513	13.92
643.547	8.92
643.581	-8.08
643.615	23.92
643.649	-7.08
643.683	4.92
643.716	1.92
643.75	3.92
643.784	-3.08
643.818	-1.08
643.852	13.92
643.886	10.92
643.919	-8.08
643.953	-14.08
643.987	-2.08
644.021	7.92
644.055	14.92
644.088	-3.08
644.122	-6.08
644.156	1.92
644.19	-7.08
644.224	7.92
644.257	11.92
644.291	16.92
644.325	11.92
644.359	-16.08
644.392	0.92
644.426	-4.08
644.46	0.92
644.494	-6.08
644.527	-7.08
644.561	8.92
644.595	5.92
644.629	-8.08
644.662	2.92
644.696	12.92
644.73	9.92
644.764	8.92
644.797	14.92
644.831	6.92
644.865	7.92
644.899	0.92
644.932	13.92
644.966	6.92
645	16.92
645.033	27.92
645.067	7.92
645.101	8.92
645.135	-5.08
645.168	-2.08
645.202	-10.08
645.236	4.92
645.269	0.92
645.303	4.92
645.337	-8.08
645.37	-2.08
645.404	2.92
645.438	-1.08
645.471	8.92
645.505	16.92
645.539	12.92
645.572	-5.08
645.606	-15.08
645.64	13.92
645.673	17.92
645.707	25.92
645.741	8.92
645.774	-10.08
645.808	1.92
645.842	-7.08
645.875	14.92
645.909	0.92
645.943	-3.08
645.976	13.92
646.01	9.92
646.043	20.92
646.077	14.92
646.111	7.92
646.144	8.92
646.178	11.92
646.212	-5.08
646.245	1.92
646.279	1.92
646.312	24.92
646.346	13.92
646.38	-28.08
646.413	-4.08
646.447	5.92
646.48	-1.08
646.514	6.92
646.547	-4.08
646.581	-8.08
646.615	-11.08
646.648	-4.08
646.682	4.92
646.715	-7.08
646.749	14.92
646.782	8.92
646.816	7.92
646.85	0.92
646.883	5.92
646.917	-3.08
646.95	3.92
646.984	-6.08
647.017	-18.08
647.051	-2.08
647.084	13.92
647.118	-1.08
647.151	-2.08
647.185	14.92
647.218	-1.08
647.252	7.92
647.285	-2.08
647.319	0.92
647.353	4.92
647.386	19.92
647.42	-5.08
647.453	2.92
647.487	3.92
647.52	-16.08
647.553	8.92
647.587	5.92
647.62	5.92
647.654	3.92
647.687	4.92
647.721	17.92
647.754	6.92
647.788	11.92
647.821	7.92
647.855	10.92
647.888	7.92
647.922	19.92
647.955	15.92
647.989	15.92
648.022	9.92
648.055	2.92
648.089	-0.08
648.122	15.92
648.156	10.92
648.189	-1.08
648.223	15.92
648.256	15.92
648.29	13.92
648.323	-7.08
648.356	10.92
648.39	4.92
648.423	9.92
648.457	11.92
648.49	1.92
648.523	14.92
648.557	14.92
648.59	-2.08
648.624	8.92
648.657	4.92
648.69	14.92
648.724	7.92
648.757	10.92
648.791	10.92
648.824	5.92
648.857	24.92
648.891	8.92
648.924	-6.08
648.957	5.92
648.991	3.92
649.024	14.92
649.057	-6.08
649.091	-5.08
649.124	23.92
649.158	11.92
649.191	19.92
649.224	4.92
649.258	10.92
649.291	0.92
649.324	12.92
649.358	-17.08
649.391	5.92
649.424	17.92
649.458	6.92
649.491	-8.08
649.524	-10.08
649.557	-8.08
649.591	-17.08
649.624	-3.08
649.657	10.92
649.691	8.92
649.724	15.92
649.757	5.92
649.791	-24.08
649.824	7.92
649.857	13.92
649.89	7.92
649.924	-7.08
649.957	0.92
649.99	-4.08
650.023	-1.08
650.057	10.92
650.09	13.92
650.123	13.92
650.157	7.92
650.19	43.92
650.223	-0.08
650.256	2.92
650.29	0.92
650.323	5.92
650.356	22.92
650.389	6.92
650.423	7.92
650.456	13.92
650.489	-8.08
650.522	0.92
650.555	20.92
650.589	11.92
650.622	3.92
650.655	4.92
650.688	-10.08
650.721	17.92
650.755	9.92
650.788	5.92
650.821	-2.08
650.854	0.92
650.887	-1.08
650.921	0.92
650.954	8.92
650.987	10.92
651.02	6.92
651.053	-12.08
651.087	-3.08
651.12	19.92
651.153	9.92
651.186	5.92
651.219	-2.08
651.252	34.92
651.286	13.92
651.319	4.92
651.352	5.92
651.385	12.92
651.418	3.92
651.451	26.92
651.484	5.92
651.518	-4.08
651.551	9.92
651.584	-2.08
651.617	26.92
651.65	9.92
651.683	23.92
651.716	3.92
651.749	-7.08
651.783	5.92
651.816	-2.08
651.849	10.92
651.882	14.92
651.915	-7.08
651.948	8.92
651.981	-15.08
652.014	-20.08
652.047	-8.08
652.08	-14.08
652.114	-2.08
652.147	-12.08
652.18	20.92
652.213	37.92
652.246	-3.08
652.279	3.92
652.312	3.92
652.345	-8.08
652.378	0.92
652.411	13.92
652.444	7.92
652.477	11.92
652.51	4.92
652.543	-14.08
652.576	-4.08
652.609	6.92
652.642	14.92
652.675	19.92
652.709	13.92
652.742	10.92
652.775	8.92
652.808	11.92
652.841	31.92
652.874	7.92
652.907	5.92
652.94	10.92
652.973	12.92
653.006	6.92
653.039	7.92
653.072	21.92
653.105	11.92
653.138	-8.08
653.171	4.92
653.204	10.92
653.237	30.92
653.27	5.92
653.303	2.92
653.336	8.92
653.368	-3.08
653.401	9.92
653.434	7.92
653.467	-3.08
653.5	1.92
653.533	-1.08
653.566	7.92
653.599	10.92
653.632	2.92
653.665	-25.08
653.698	0.92
653.731	-11.08
653.764	8.92
653.797	10.92
653.83	10.92
653.863	21.92
653.896	7.92
653.929	3.92
653.961	13.92
653.994	-3.08
654.027	-3.08
654.06	22.92
654.093	11.92
654.126	5.92
654.159	7.92
654.192	2.92
654.225	7.92
654.258	-14.08
654.29	-13.08
654.323	2.92
654.356	-7.08
654.389	12.92
654.422	10.92
654.455	21.92
654.488	17.92
654.521	-12.08
654.553	-0.08
654.586	16.92
654.619	7.92
654.652	-0.08
654.685	14.92
654.718	32.92
654.751	16.92
654.783	-1.08
654.816	26.92
654.849	15.92
654.882	5.92
654.915	-12.08
654.948	7.92
654.98	0.92
655.013	12.92
655.046	-5.08
655.079	-0.08
655.112	3.92
655.144	7.92
655.177	10.92
655.21	18.92
655.243	-2.08
655.276	2.92
655.308	13.92
655.341	1.92
655.374	15.92
655.407	10.92
655.44	18.92
655.472	34.92
655.505	19.92
655.538	2.92
655.571	14.92
655.603	6.92
655.636	9.92
655.669	24.92
655.702	20.92
655.734	1.92
655.767	14.92
655.8	35.92
655.833	17.92
655.865	30.92
655.898	29.92
655.931	42.92
655.964	30.92
655.996	57.92
656.029	70.92
656.062	40.92
656.095	61.92
656.127	61.92
656.16	110.92
656.193	133.92
656.225	183.92
656.258	281.92
656.291	518.92
656.324	1119.92
656.356	3369.92
656.389	7454.92
656.422	5987.92
656.454	2056.92
656.487	683.92
656.52	277.92
656.552	113.92
656.585	62.92
656.618	56.92
656.65	36.92
656.683	26.92
656.716	26.92
656.748	7.92
656.781	4.92
656.814	6.92
656.846	2.92
656.879	19.92
656.912	16.92
656.944	-9.08
656.977	1.92
657.01	-16.08
657.042	14.92
657.075	31.92
657.108	-3.08
657.14	14.92
657.173	27.92
657.205	38.92
657.238	15.92
657.271	0.92
657.303	-9.08
657.336	-2.08
657.369	17.92
657.401	3.92
657.434	7.92
657.466	33.92
657.499	20.92
657.532	0.92
657.564	16.92
657.597	-9.08
657.629	10.92
657.662	14.92
657.694	9.92
657.727	-14.08
657.76	16.92
657.792	-5.08
657.825	-6.08
657.857	-0.08
657.89	-3.08
657.922	16.92
657.955	-17.08
657.987	9.92
658.02	11.92
658.053	15.92
658.085	4.92
658.118	11.92
658.15	17.92
658.183	21.92
658.215	4.92
658.248	-5.08
658.28	0.92
658.313	15.92
658.345	12.92
658.378	19.92
658.41	6.92
658.443	12.92
658.475	-3.08
658.508	10.92
658.54	-9.08
658.573	-0.08
658.605	4.92
658.638	-17.08
658.67	-5.08
658.703	9.92
658.735	0.92
658.768	12.92
658.8	-13.08
658.833	9.92
658.865	2.92
658.898	-6.08
658.93	-18.08
658.963	2.92
658.995	-5.08
659.028	6.92
659.06	6.92
659.092	-4.08
659.125	3.92
659.157	4.92
659.19	4.92
659.222	2.92
659.255	6.92
659.287	11.92
659.32	1.92
659.352	7.92
659.384	17.92
659.417	7.92
659.449	-0.08
659.482	-3.08
659.514	-2.08
659.546	-2.08
659.579	-12.08
659.611	0.92
659.644	-8.08
659.676	-13.08
659.708	13.92
659.741	-3.08
659.773	15.92
659.806	2.92
659.838	9.92
659.87	-2.08
659.903	-10.08
659.935	-3.08
659.967	16.92
660	3.92
660.032	-9.08
660.065	22.92
660.097	5.92
660.129	16.92
660.162	-17.08
660.194	1.92
660.226	10.92
660.259	5.92
660.291	14.92
660.323	-7.08
660.356	-1.08
660.388	-5.08
660.42	8.92
660.453	7.92
660.485	18.92
660.517	15.92
660.55	33.92
660.582	8.92
660.614	8.92
660.647	2.92
660.679	-5.08
660.711	15.92
660.743	-12.08
660.776	-4.08
660.808	-9.08
660.84	-5.08
660.873	7.92
660.905	10.92
660.937	13.92
660.969	15.92
661.002	2.92
661.034	13.92
661.066	1.92
661.099	5.92
661.131	27.92
661.163	14.92
661.195	16.92
661.228	13.92
661.26	-9.08
661.292	0.92
661.324	-0.08
661.357	-2.08
661.389	10.92
661.421	17.92
661.453	18.92
661.485	13.92
661.518	-4.08
661.55	-0.08
661.582	-13.08
661.614	12.92
661.647	12.92
661.679	-0.08
661.711	14.92
661.743	-15.08
661.775	0.92
661.808	17.92
661.84	-3.08
661.872	25.92
661.904	0.92
661.936	-2.08
661.969	-6.08
662.001	-9.08
662.033	-2.08
662.065	1.92
662.097	10.92
662.129	0.92
662.162	4.92
662.194	11.92
662.226	15.92
662.258	15.92
662.29	16.92
662.322	0.92
662.355	-27.08
662.387	17.92
662.419	27.92
662.451	13.92
662.483	6.92
662.515	-0.08
662.547	4.92
662.58	-5.08
662.612	4.92
662.644	-0.08
662.676	11.92
662.708	18.92
662.74	-1.08
662.772	6.92
662.804	9.92
662.836	11.92
662.869	-1.08
662.901	13.92
662.933	10.92
662.965	11.92
662.997	9.92
663.029	-8.08
663.061	-11.08
663.093	-1.08
663.125	7.92
663.157	-7.08
663.189	7.92
663.221	10.92
663.254	1.92
663.286	23.92
663.318	-3.08
663.35	4.92
663.382	-2.08
663.414	-1.08
663.446	-3.08
663.478	-3.08
663.51	6.92
663.542	-3.08
663.574	10.92
663.606	1.92
663.638	1.92
663.67	-7.08
663.702	-6.08
663.734	10.92
663.766	-3.08
663.798	-7.08
663.83	-16.08
663.862	6.92
663.894	0.92
663.926	0.92
663.958	20.92
663.99	5.92
664.022	-18.08
664.054	23.92
664.086	10.92
664.118	-17.08
664.15	-1.08
664.182	7.92
664.214	1.92
664.246	18.92
664.278	6.92
664.31	15.92
664.342	8.92
664.374	3.92
664.406	6.92
664.438	12.92
664.47	14.92
664.502	-2.08
664.534	8.92
664.566	-11.08
664.598	15.92
664.63	-9.08
664.662	-1.08
664.693	-7.08
664.725	-0.08
664.757	-5.08
664.789	1.92
664.821	9.92
664.853	25.92
664.885	2.92
664.917	-0.08
664.949	3.92
664.981	14.92
665.013	10.92
665.045	-2.08
665.076	-4.08
665.108	20.92
665.14	2.92
665.172	10.92
665.204	7.92
665.236	7.92
665.268	27.92
665.3	-0.08
665.331	-3.08
665.363	-2.08
665.395	2.92
665.427	4.92
665.459	3.92
665.491	11.92
665.523	-2.08
665.555	-5.08
665.586	9.92
665.618	-1.08
665.65	-17.08
665.682	10.92
665.714	12.92
665.746	8.92
665.777	10.92
665.809	2.92
665.841	9.92
665.873	2.92
665.905	-3.08
665.937	15.92
665.968	9.92
666	12.92
666.032	7.92
666.064	-6.08
666.096	-3.08
666.127	5.92
666.159	26.92
666.191	15.92
666.223	-6.08
666.255	-7.08
666.286	-2.08
666.318	-5.08
666.35	3.92
666.382	2.92
666.413	-4.08
666.445	-5.08
666.477	-1.08
666.509	-18.08
666.54	2.92
666.572	-9.08
666.604	7.92
666.636	7.92
666.667	11.92
666.699	7.92
666.731	-16.08
666.763	-12.08
666.794	-8.08
666.826	0.92
666.858	-0.08
666.89	18.92
666.921	2.92
666.953	2.92
666.985	14.92
667.017	12.92
667.048	-9.08
667.08	14.92
667.112	8.92
667.143	-15.08
667.175	2.92
667.207	0.92
667.238	7.92
667.27	8.92
667.302	7.92
667.334	-13.08
667.365	9.92
667.397	-4.08
667.429	-4.08
667.46	6.92
667.492	-4.08
667.524	-10.08
667.555	-0.08
667.587	-1.08
667.619	-1.08
667.65	-17.08
667.682	-2.08
667.714	16.92
667.745	-0.08
667.777	9.92
667.808	15.92
667.84	13.92
667.872	6.92
667.903	23.92
667.935	0.92
667.967	13.92
667.998	5.92
668.03	-1.08
668.061	4.92
668.093	5.92
668.125	5.92
668.156	11.92
668.188	8.92
668.22	-0.08
668.251	2.92
668.283	12.92
668.314	6.92
668.346	-13.08
668.377	3.92
668.409	4.92
668.441	8.92
668.472	22.92
668.504	17.92
668.535	17.92
668.567	12.92
668.599	-5.08
668.63	-8.08
668.662	-5.08
668.693	22.92
668.725	12.92
668.756	20.92
668.788	13.92
668.819	8.92
668.851	-1.08
668.882	3.92
668.914	12.92
668.946	2.92
668.977	-11.08
669.009	-3.08
669.04	-0.08
669.072	5.92
669.103	-10.08
669.135	-11.08
669.166	6.92
669.198	-5.08
669.229	25.92
669.261	10.92
669.292	7.92
669.324	-2.08
669.355	3.92
669.387	1.92
669.418	-4.08
669.45	-10.08
669.481	-2.08
669.513	-6.08
669.544	-3.08
669.576	4.92
669.607	26.92
669.639	16.92
669.67	-4.08
669.701	12.92
669.733	-4.08
669.764	-4.08
669.796	-5.08
669.827	6.92
669.859	-10.08
669.89	-0.08
669.922	4.92
669.953	25.92
669.985	10.92
670.016	22.92
670.047	-2.08
670.079	-7.08
670.11	0.92
670.142	3.92
670.173	6.92
670.204	13.92
670.236	9.92
670.267	-18.08
670.299	-7.08
670.33	-3.08
670.362	10.92
670.393	-14.08
670.424	-6.08
670.456	4.92
670.487	2.92
670.518	6.92
670.55	-10.08
670.581	-6.08
670.613	2.92
670.644	-1.08
670.675	-9.08
670.707	1.92
670.738	1.92
670.769	18.92
670.801	-0.08
670.832	-4.08
670.864	2.92
670.895	17.92
670.926	1.92
670.958	-0.08
670.989	3.92
671.02	-4.08
671.052	4.92
671.083	10.92
671.114	-7.08
671.146	8.92
671.177	-1.08
671.208	-4.08
671.24	-12.08
671.271	-12.08
671.302	3.92
671.333	1.92
671.365	-16.08
671.396	-2.08
671.427	1.92
671.459	9.92
671.49	27.92
671.521	7.92
671.553	10.92
671.584	8.92
671.615	7.92
671.646	4.92
671.678	8.92
671.709	-19.08
671.74	-16.08
671.771	-17.08
671.803	-24.08
671.834	8.92
671.865	-5.08
671.896	12.92
671.928	-12.08
671.959	-8.08
671.99	-13.08
672.021	-2.08
672.053	0.92
672.084	15.92
672.115	2.92
672.146	5.92
672.178	6.92
672.209	14.92
672.24	-4.08
672.271	27.92
672.303	15.92
672.334	3.92
672.365	6.92
672.396	11.92
672.427	-1.08
672.459	7.92
672.49	19.92
672.521	7.92
672.552	7.92
672.583	-8.08
672.615	13.92
672.646	12.92
672.677	-3.08
672.708	-11.08
672.739	10.92
672.77	9.92
672.802	7.92
672.833	-1.08
672.864	10.92
672.895	-7.08
672.926	-10.08
672.957	-13.08
672.989	0.92
673.02	1.92
673.051	7.92
673.082	14.92
673.113	-4.08
673.144	2.92
673.175	1.92
673.206	-5.08
673.238	-8.08
673.269	5.92
673.3	-8.08
673.331	6.92
673.362	3.92
673.393	-3.08
673.424	-11.08
673.455	7.92
673.487	-0.08
673.518	2.92
673.549	-2.08
673.58	-6.08
673.611	11.92
673.642	-3.08
673.673	-17.08
673.704	-20.08
673.735	-2.08
673.766	-7.08
673.797	6.92
673.828	2.92
673.86	-3.08
673.891	-2.08
673.922	-5.08
673.953	-1.08
673.984	12.92
674.015	6.92
674.046	2.92
674.077	14.92
674.108	7.92
674.139	-11.08
674.17	-4.08
674.201	-0.08
674.232	2.92
674.263	-10.08
674.294	-4.08
674.325	-7.08
674.356	2.92
674.387	3.92
674.418	3.92
674.449	-4.08
674.48	-3.08
674.511	-6.08
674.542	6.92
674.573	-7.08
674.604	15.92
674.635	15.92
674.666	11.92
674.697	12.92
674.728	-1.08
674.759	-3.08
674.79	-17.08
674.821	-11.08
674.852	18.92
674.883	4.92
674.914	8.92
674.945	2.92
674.976	-1.08
675.007	-12.08
675.038	-12.08
675.069	-3.08
675.1	7.92
675.131	7.92
675.162	-15.08
675.193	9.92
675.224	9.92
675.254	25.92
675.285	7.92
675.316	6.92
675.347	8.92
675.378	-11.08
675.409	2.92
675.44	14.92
675.471	4.92
675.502	-2.08
675.533	16.92
675.564	1.92
675.595	15.92
675.625	22.92
675.656	2.92
675.687	-2.08
675.718	-14.08
675.749	5.92
675.78	7.92
675.811	-3.08
675.842	6.92
675.873	5.92
675.903	8.92
675.934	10.92
675.965	-2.08
675.996	-7.08
676.027	12.92
676.058	-1.08
676.089	-16.08
676.119	-13.08
676.15	-14.08
676.181	-3.08
676.212	19.92
676.243	11.92
676.274	5.92
676.304	17.92
676.335	-6.08
676.366	2.92
676.397	-3.08
676.428	-5.08
676.459	2.92
676.489	7.92
676.52	18.92
676.551	6.92
676.582	-2.08
676.613	9.92
676.643	3.92
676.674	5.92
676.705	5.92
676.736	11.92
676.767	16.92
676.797	10.92
676.828	23.92
676.859	4.92
676.89	-5.08
676.92	8.92
676.951	14.92
676.982	5.92
677.013	-6.08
677.044	12.92
677.074	-10.08
677.105	-17.08
677.136	-12.08
677.167	1.92
677.197	8.92
677.228	2.92
677.259	-11.08
677.289	-1.08
677.32	-6.08
677.351	-14.08
677.382	-24.08
677.412	-13.08
677.443	13.92
677.474	10.92
677.505	4.92
677.535	11.92
677.566	-8.08
677.597	-5.08
677.627	-11.08
677.658	-11.08
677.689	15.92
677.72	6.92
677.75	-7.08
677.781	6.92
677.812	2.92
677.842	4.92
677.873	9.92
677.904	-5.08
677.934	6.92
677.965	-5.08
677.996	-16.08
678.026	11.92
678.057	11.92
678.088	-3.08
678.118	-2.08
678.149	-23.08
678.18	-9.08
678.21	0.92
678.241	13.92
678.272	-11.08
678.302	2.92
678.333	5.92
678.363	11.92
678.394	-3.08
678.425	-11.08
678.455	8.92
678.486	9.92
678.517	6.92
678.547	9.92
678.578	6.92
678.608	-17.08
678.639	3.92
678.67	7.92
678.7	-2.08
678.731	-4.08
678.761	-3.08
678.792	4.92
678.823	2.92
678.853	2.92
678.884	-17.08
678.914	30.92
678.945	6.92
678.975	-18.08
679.006	0.92
679.037	-7.08
679.067	7.92
679.098	-10.08
679.128	-12.08
679.159	0.92
679.189	13.92
679.22	-1.08
679.25	10.92
679.281	7.92
679.312	13.92
679.342	15.92
679.373	32.92
679.403	5.92
679.434	9.92
679.464	0.92
679.495	-1.08
679.525	19.92
679.556	4.92
679.586	10.92
679.617	4.92
679.647	9.92
679.678	-2.08
679.708	-0.08
679.739	-2.08
679.769	9.92
679.8	-0.08
679.83	8.92
679.861	10.92
679.891	-3.08
679.922	-9.08
679.952	-8.08
679.983	11.92
680.013	16.92
680.044	5.92
680.074	20.92
680.105	9.92
680.135	11.92
680.165	17.92
680.196	15.92
680.226	4.92
680.257	9.92
680.287	8.92
680.318	-4.08
680.348	2.92
680.379	14.92
680.409	0.92
680.439	2.92
680.47	4.92
680.5	4.92
680.531	-0.08
680.561	-4.08
680.592	11.92
680.622	18.92
680.652	10.92
680.683	15.92
680.713	-7.08
680.744	-1.08
680.774	-5.08
680.804	10.92
680.835	-10.08
680.865	8.92
680.896	26.92
680.926	13.92
680.956	12.92
680.987	14.92
681.017	8.92
681.047	0.92
681.078	-17.08
681.108	-17.08
681.139	4.92
681.169	7.92
681.199	7.92
681.23	4.92
681.26	10.92
681.29	15.92
681.321	7.92
681.351	10.92
681.381	-13.08
681.412	12.92
681.442	1.92
681.472	-0.08
681.503	5.92
681.533	4.92
681.563	-12.08
681.594	-6.08
681.624	1.92
681.654	-13.08
681.685	1.92
681.715	11.92
681.745	9.92
681.775	1.92
681.806	11.92
681.836	9.92
681.866	-11.08
681.897	14.92
681.927	8.92
681.957	-14.08
681.987	13.92
682.018	-11.08
682.048	-3.08
682.078	-1.08
682.109	48.92
682.139	12.92
682.169	8.92
682.199	-12.08
682.23	-2.08
682.26	10.92
682.29	2.92
682.32	9.92
682.351	-8.08
682.381	-1.08
682.411	8.92
682.441	-1.08
682.472	-0.08
682.502	-8.08
682.532	-3.08
682.562	5.92
682.592	19.92
682.623	2.92
682.653	8.92
682.683	16.92
682.713	10.92
682.743	-1.08
682.774	-10.08
682.804	13.92
682.834	23.92
682.864	3.92
682.894	-16.08
682.925	-1.08
682.955	1.92
682.985	-1.08
683.015	0.92
683.045	10.92
683.076	-1.08
683.106	0.92
683.136	6.92
683.166	2.92
683.196	5.92
683.226	2.92
683.257	-3.08
683.287	3.92
683.317	-11.08
683.347	-7.08
683.377	4.92
683.407	8.92
683.437	10.92
683.468	18.92
683.498	2.92
683.528	0.92
683.558	6.92
683.588	-4.08
683.618	-0.08
683.648	-4.08
683.678	7.92
683.708	20.92
683.739	3.92
683.769	2.92
683.799	12.92
683.829	10.92
683.859	19.92
683.889	17.92
683.919	14.92
683.949	0.92
683.979	10.92
684.009	12.92
684.039	16.92
684.07	2.92
684.1	25.92
684.13	7.92
684.16	3.92
684.19	5.92
684.22	-4.08
684.25	6.92
684.28	-0.08
684.31	28.92
684.34	15.92
684.37	13.92
684.4	2.92
684.43	4.92
684.46	0.92
684.49	-0.08
684.52	2.92
684.55	11.92
684.58	-9.08
684.61	13.92
684.64	34.92
684.67	2.92
684.7	-8.08
684.73	-4.08
684.76	-20.08
684.79	16.92
684.82	8.92
684.85	-7.08
684.88	20.92
684.91	1.92
684.94	-0.08
684.97	-1.08
685	-10.08
685.03	-5.08
685.06	-2.08
685.09	5.92
685.12	19.92
685.15	-8.08
685.18	7.92
685.21	12.92
685.24	3.92
685.27	13.92
685.3	4.92
685.33	9.92
685.36	4.92
685.39	5.92
685.42	-16.08
685.45	-1.08
685.48	-5.08
685.51	1.92
685.54	25.92
685.569	10.92
685.599	13.92
685.629	1.92
685.659	-5.08
685.689	-2.08
685.719	3.92
685.749	1.92
685.779	20.92
685.809	1.92
685.839	10.92
685.869	7.92
685.898	5.92
685.928	-13.08
685.958	0.92
685.988	21.92
686.018	2.92
686.048	6.92
686.078	13.92
686.108	22.92
686.137	6.92
686.167	-2.08
686.197	-14.08
686.227	-9.08
686.257	34.92
686.287	19.92
686.317	5.92
686.346	1.92
686.376	-24.08
686.406	-3.08
686.436	16.92
686.466	-2.08
686.496	-1.08
686.525	14.92
686.555	7.92
686.585	23.92
686.615	30.92
686.645	8.92
686.675	3.92
686.704	15.92
686.734	18.92
686.764	3.92
686.794	14.92
686.824	1.92
686.853	24.92
686.883	8.92
686.913	14.92
686.943	3.92
686.973	3.92
687.002	5.92
687.032	4.92
687.062	-0.08
687.092	17.92
687.121	10.92
687.151	2.92
687.181	-7.08
687.211	16.92
687.24	1.92
687.27	2.92
687.3	-11.08
687.33	3.92
687.359	1.92
687.389	3.92
687.419	-7.08
687.449	-2.08
687.478	17.92
687.508	3.92
687.538	5.92
687.568	18.92
687.597	-11.08
687.627	31.92
687.657	17.92
687.686	14.92
687.716	15.92
687.746	-12.08
687.776	-25.08
687.805	-0.08
687.835	6.92
687.865	24.92
687.894	0.92
687.924	-0.08
687.954	-2.08
687.983	-7.08
688.013	10.92
688.043	10.92
688.072	7.92
688.102	6.92
688.132	0.92
688.161	0.92
688.191	-0.08
688.221	14.92
688.25	-3.08
688.28	11.92
688.31	13.92
688.339	16.92
688.369	-2.08
688.399	1.92
688.428	6.92
688.458	5.92
688.488	-1.08
688.517	1.92
688.547	1.92
688.576	11.92
688.606	4.92
688.636	-10.08
688.665	-1.08
688.695	-3.08
688.725	14.92
688.754	7.92
688.784	8.92
688.813	13.92
688.843	19.92
688.873	0.92
688.902	-5.08
688.932	-0.08
688.961	7.92
688.991	29.92
689.02	13.92
689.05	-0.08
689.08	1.92
689.109	12.92
689.139	-3.08
689.168	1.92
689.198	13.92
689.227	18.92
689.257	14.92
689.287	7.92
689.316	-1.08
689.346	1.92
689.375	-3.08
689.405	9.92
689.434	6.92
689.464	1.92
689.493	-6.08
689.523	-21.08
689.552	2.92
689.582	0.92
689.611	1.92
689.641	8.92
689.67	4.92
689.7	6.92
689.73	9.92
689.759	11.92
689.789	19.92
689.818	2.92
689.848	-2.08
689.877	28.92
689.906	-0.08
689.936	-4.08
689.965	17.92
689.995	3.92
690.024	2.92
690.054	-2.08
690.083	13.92
690.113	11.92
690.142	-3.08
690.172	4.92
690.201	6.92
690.231	-4.08
690.26	22.92
690.29	12.92
690.319	12.92
690.348	4.92
690.378	1.92
690.407	-4.08
690.437	2.92
690.466	5.92
690.496	14.92
690.525	19.92
690.555	0.92
690.584	0.92
690.613	2.92
690.643	9.92
690.672	7.92
690.702	10.92
690.731	6.92
690.76	19.92
690.79	5.92
690.819	-4.08
690.849	14.92
690.878	-2.08
690.907	14.92
690.937	23.92
690.966	12.92
690.996	-0.08
691.025	7.92
691.054	3.92
691.084	12.92
691.113	-3.08
691.142	13.92
691.172	17.92
691.201	2.92
691.23	-4.08
691.26	10.92
691.289	11.92
691.319	9.92
691.348	6.92
691.377	12.92
691.407	10.92
691.436	17.92
691.465	6.92
691.495	4.92
691.524	-20.08
691.553	-0.08
691.583	7.92
691.612	14.92
691.641	12.92
691.67	18.92
691.7	2.92
691.729	-17.08
691.758	0.92
691.788	5.92
691.817	5.92
691.846	2.92
691.876	6.92
691.905	15.92
691.934	-1.08
691.963	19.92
691.993	5.92
692.022	-2.08
692.051	-4.08
692.081	11.92
692.11	22.92
692.139	19.92
692.168	15.92
692.198	6.92
692.227	-0.08
692.256	15.92
692.285	-2.08
692.315	-2.08
692.344	11.92
692.373	3.92
692.402	-9.08
692.432	1.92
692.461	-5.08
692.49	24.92
692.519	5.92
692.548	6.92
692.578	-0.08
692.607	4.92
692.636	-2.08
692.665	9.92
692.694	-0.08
692.724	-1.08
692.753	11.92
692.782	23.92
692.811	-3.08
692.84	2.92
692.87	10.92
692.899	5.92
692.928	-4.08
692.957	12.92
692.986	6.92
693.016	6.92
693.045	8.92
693.074	-3.08
693.103	-5.08
693.132	-0.08
693.161	5.92
693.191	-4.08
693.22	-11.08
693.249	8.92
693.278	6.92
693.307	24.92
693.336	4.92
693.365	-4.08
693.395	11.92
693.424	8.92
693.453	8.92
693.482	-13.08
693.511	9.92
693.54	15.92
693.569	14.92
693.598	-2.08
693.628	-5.08
693.657	6.92
693.686	22.92
693.715	17.92
693.744	5.92
693.773	7.92
693.802	8.92
693.831	1.92
693.86	37.92
693.889	9.92
693.919	14.92
693.948	-1.08
693.977	1.92
694.006	2.92
694.035	1.92
694.064	6.92
694.093	9.92
694.122	13.92
694.151	9.92
694.18	12.92
694.209	28.92
694.238	3.92
694.267	27.92
694.296	10.92
694.325	6.92
694.354	7.92
694.383	0.92
694.412	-1.08
694.441	-16.08
694.471	-1.08
694.5	-8.08
694.529	18.92
694.558	26.92
694.587	15.92
694.616	17.92
694.645	13.92
694.674	20.92
694.703	9.92
694.732	-5.08
694.761	9.92
694.79	13.92
694.819	-25.08
694.848	4.92
694.877	30.92
694.906	21.92
694.935	-0.08
694.963	26.92
694.992	5.92
695.021	10.92
695.05	10.92
695.079	6.92
695.108	-2.08
695.137	25.92
695.166	8.92
695.195	-11.08
695.224	3.92
695.253	17.92
695.282	-1.08
695.311	14.92
695.34	16.92
695.369	7.92
695.398	17.92
695.427	12.92
695.456	12.92
695.485	1.92
695.513	17.92
695.542	-3.08
695.571	29.92
695.6	32.92
695.629	15.92
695.658	29.92
695.687	12.92
695.716	-1.08
695.745	28.92
695.774	2.92
695.802	0.92
695.831	-4.08
695.86	17.92
695.889	11.92
695.918	18.92
695.947	0.92
695.976	11.92
696.005	11.92
696.033	23.92
696.062	24.92
696.091	5.92
696.12	18.92
696.149	31.92
696.178	3.92
696.207	8.92
696.235	-5.08
696.264	1.92
696.293	7.92
696.322	8.92
696.351	18.92
696.38	6.92
696.408	6.92
696.437	-5.08
696.466	4.92
696.495	14.92
696.524	17.92
696.553	12.92
696.581	20.92
696.61	1.92
696.639	6.92
696.668	-8.08
696.697	3.92
696.725	12.92
696.754	10.92
696.783	9.92
696.812	9.92
696.84	20.92
696.869	10.92
696.898	10.92
696.927	2.92
696.956	17.92
696.984	10.92
697.013	5.92
697.042	6.92
697.071	30.92
697.099	11.92
697.128	16.92
697.157	1.92
697.186	-4.08
697.214	-6.08
697.243	-4.08
697.272	-9.08
697.301	-7.08
697.329	0.92
697.358	3.92
697.387	23.92
697.415	2.92
697.444	-7.08
697.473	3.92
697.502	-9.08
697.53	1.92
697.559	7.92
697.588	2.92
697.616	-6.08
697.645	-1.08
697.674	16.92
697.703	3.92
697.731	6.92
697.76	4.92
697.789	6.92
697.817	-1.08
697.846	11.92
697.875	15.92
697.903	22.92
697.932	6.92
697.961	-4.08
697.989	-7.08
698.018	10.92
698.047	2.92
698.075	17.92
698.104	1.92
698.133	1.92
698.161	-13.08
698.19	-7.08
698.218	-2.08
698.247	4.92
698.276	9.92
698.304	13.92
698.333	11.92
698.362	8.92
698.39	12.92
698.419	-4.08
698.447	-1.08
698.476	-18.08
698.505	-2.08
698.533	5.92
698.562	6.92
698.591	3.92
698.619	-10.08
698.648	5.92
698.676	3.92
698.705	5.92
698.733	-10.08
698.762	18.92
698.791	22.92
698.819	-0.08
698.848	-6.08
698.876	16.92
698.905	12.92
698.933	13.92
698.962	-6.08
698.991	3.92
699.019	12.92
699.048	3.92
699.076	18.92
699.105	-1.08
699.133	-0.08
699.162	16.92
699.19	21.92
699.219	7.92
699.248	0.92
699.276	7.92
699.305	3.92
699.333	4.92
699.362	5.92
699.39	18.92
699.419	8.92
699.447	14.92
699.476	8.92
699.504	-1.08
699.533	-1.08
699.561	-6.08
699.59	-6.08
699.618	1.92
699.647	7.92
699.675	1.92
699.704	9.92
699.732	-13.08
699.761	7.92
699.789	-3.08
699.818	15.92
699.846	11.92
699.874	-1.08
699.903	-4.08
699.931	5.92
699.96	2.92
699.988	1.92
700.017	-10.08
700.045	2.92
700.074	-0.08
700.102	-7.08
700.13	-2.08
700.159	15.92
700.187	16.92
700.216	-0.08
700.244	1.92
700.273	1.92
700.301	19.92
700.329	9.92
700.358	15.92
700.386	4.92
700.415	15.92
700.443	8.92
700.472	10.92
700.5	10.92
700.528	9.92
700.557	5.92
700.585	-7.08
700.614	-1.08
700.642	13.92
700.67	30.92
700.699	8.92
700.727	9.92
700.755	2.92
700.784	17.92
700.812	-0.08
700.841	-0.08
700.869	-4.08
700.897	-17.08
700.926	-1.08
700.954	6.92
700.982	11.92
701.011	2.92
701.039	14.92
701.067	8.92
701.096	-3.08
701.124	-5.08
701.152	3.92
701.181	-1.08
701.209	-15.08
701.237	4.92
701.266	1.92
701.294	-0.08
701.322	-1.08
701.351	25.92
701.379	2.92
701.407	-1.08
701.435	3.92
701.464	18.92
701.492	37.92
701.52	-3.08
701.549	26.92
701.577	-20.08
701.605	-5.08
701.634	-0.08
701.662	6.92
701.69	-8.08
701.718	-17.08
701.747	6.92
701.775	3.92
701.803	-0.08
701.831	-0.08
701.86	-3.08
701.888	7.92
701.916	-1.08
701.944	-4.08
701.973	6.92
702.001	-14.08
702.029	-3.08
702.057	-4.08
702.086	-2.08
702.114	5.92
702.142	-1.08
702.17	-2.08
702.199	9.92
702.227	8.92
702.255	-1.08
702.283	3.92
702.311	4.92
702.34	-3.08
702.368	2.92
702.396	2.92
702.424	-2.08
702.452	12.92
702.481	-4.08
702.509	9.92
702.537	18.92
702.565	6.92
702.593	-21.08
702.621	5.92
702.65	12.92
702.678	1.92
702.706	13.92
702.734	-6.08
702.762	11.92
702.79	13.92
702.819	-9.08
702.847	2.92
702.875	15.92
702.903	6.92
702.931	-3.08
702.959	4.92
702.988	12.92
703.016	-6.08
703.044	7.92
703.072	17.92
703.1	-3.08
703.128	-9.08
703.156	1.92
703.184	-9.08
703.212	5.92
703.241	7.92
703.269	1.92
703.297	6.92
703.325	-5.08
703.353	-16.08
703.381	-9.08
703.409	2.92
703.437	-11.08
703.465	13.92
703.493	-5.08
703.522	-2.08
703.55	4.92
703.578	10.92
703.606	-5.08
703.634	-11.08
703.662	2.92
703.69	3.92
703.718	17.92
703.746	30.92
703.774	5.92
703.802	13.92
703.83	10.92
703.858	10.92
703.886	-8.08
703.914	-1.08
703.942	15.92
703.97	4.92
703.998	10.92
704.027	6.92
704.055	16.92
704.083	-2.08
704.111	-12.08
704.139	12.92
704.167	1.92
704.195	10.92
704.223	5.92
704.251	-1.08
704.279	11.92
704.307	6.92
704.335	-3.08
704.363	-1.08
704.391	3.92
704.419	7.92
704.447	1.92
704.475	9.92
704.503	5.92
704.531	2.92
704.558	10.92
704.586	10.92
704.614	7.92
704.642	8.92
704.67	2.92
704.698	16.92
704.726	4.92
704.754	-5.08
704.782	12.92
704.81	10.92
704.838	20.92
704.866	1.92
704.894	-5.08
704.922	-6.08
704.95	14.92
704.978	18.92
705.006	10.92
705.034	7.92
705.061	-19.08
705.089	3.92
705.117	-2.08
705.145	3.92
705.173	3.92
705.201	12.92
705.229	13.92
705.257	1.92
705.285	12.92
705.313	6.92
705.34	-0.08
705.368	2.92
705.396	4.92
705.424	7.92
705.452	-10.08
705.48	-0.08
705.508	-0.08
705.536	-16.08
705.563	-5.08
705.591	5.92
705.619	6.92
705.647	-2.08
705.675	21.92
705.703	12.92
705.731	1.92
705.758	1.92
705.786	5.92
705.814	30.92
705.842	1.92
705.87	11.92
705.898	8.92
705.925	-3.08
705.953	3.92
705.981	-6.08
706.009	-0.08
706.037	10.92
706.065	-0.08
706.092	-9.08
706.12	2.92
706.148	-1.08
706.176	4.92
706.204	17.92
706.231	4.92
706.259	11.92
706.287	8.92
706.315	-1.08
706.342	11.92
706.37	9.92
706.398	0.92
706.426	-8.08
706.454	4.92
706.481	6.92
706.509	12.92
706.537	4.92
706.565	8.92
706.592	5.92
706.62	14.92
706.648	10.92
706.676	-17.08
706.703	9.92
706.731	-5.08
706.759	-9.08
706.787	6.92
706.814	0.92
706.842	-11.08
706.87	-3.08
706.897	-9.08
706.925	-13.08
706.953	-0.08
706.981	26.92
707.008	13.92
707.036	6.92
707.064	14.92
707.091	-22.08
707.119	-9.08
707.147	-2.08
707.174	-4.08
707.202	11.92
707.23	-11.08
707.258	-1.08
707.285	7.92
707.313	-13.08
707.341	6.92
707.368	-8.08
707.396	-3.08
707.424	9.92
707.451	4.92
707.479	-5.08
707.507	-2.08
707.534	-4.08
707.562	18.92
707.59	-2.08
707.617	-1.08
707.645	1.92
707.672	12.92
707.7	15.92
707.728	17.92
707.755	7.92
707.783	3.92
707.811	2.92
707.838	3.92
707.866	24.92
707.893	13.92
707.921	11.92
707.949	14.92
707.976	11.92
708.004	21.92
708.031	-2.08
708.059	-6.08
708.087	13.92
708.114	1.92
708.142	-6.08
708.169	0.92
708.197	8.92
708.225	3.92
708.252	-3.08
708.28	-2.08
708.307	-1.08
708.335	-3.08
708.362	-0.08
708.39	-6.08
708.418	-3.08
708.445	1.92
708.473	-3.08
708.5	3.92
708.528	15.92
708.555	-2.08
708.583	4.92
708.61	7.92
708.638	10.92
708.665	-12.08
708.693	-3.08
708.72	-8.08
708.748	-5.08
708.776	-5.08
708.803	16.92
708.831	10.92
708.858	1.92
708.886	9.92
708.913	-9.08
708.941	-11.08
708.968	14.92
708.996	-1.08
709.023	26.92
709.051	4.92
709.078	-6.08
709.105	-9.08
709.133	4.92
709.16	1.92
709.188	16.92
709.215	18.92
709.243	-6.08
709.27	-3.08
709.298	-9.08
709.325	-19.08
709.353	-1.08
709.38	14.92
709.408	3.92
709.435	2.92
709.462	5.92
709.49	13.92
709.517	6.92
709.545	-1.08
709.572	3.92
709.6	25.92
709.627	22.92
709.655	3.92
709.682	3.92
709.709	7.92
709.737	-2.08
709.764	-1.08
709.792	15.92
709.819	-9.08
709.846	6.92
709.874	11.92
709.901	13.92
709.929	27.92
709.956	9.92
709.983	-4.08
710.011	6.92
710.038	-0.08
710.066	0.92
710.093	16.92
710.12	-3.08
710.148	-6.08
710.175	-3.08
710.202	-3.08
710.23	1.92
710.257	-3.08
710.284	4.92
710.312	-3.08
710.339	-7.08
710.366	-1.08
710.394	0.92
710.421	7.92
710.448	-0.08
710.476	-7.08
710.503	6.92
710.53	25.92
710.558	19.92
710.585	18.92
710.612	8.92
710.64	-1.08
710.667	2.92
710.694	12.92
710.722	13.92
710.749	5.92
710.776	-5.08
710.804	6.92
710.831	-5.08
710.858	-0.08
710.885	5.92
710.913	1.92
710.94	29.92
710.967	15.92
710.995	14.92
711.022	9.92
711.049	-0.08
711.076	-4.08
711.104	-8.08
711.131	-10.08
711.158	1.92
711.185	-4.08
711.213	-4.08
711.24	-13.08
711.267	-9.08
711.294	18.92
711.322	19.92
711.349	1.92
711.376	-4.08
711.403	20.92
711.431	-4.08
711.458	-3.08
711.485	2.92
711.512	10.92
711.54	-0.08
711.567	7.92
711.594	2.92
711.621	-4.08
711.648	-0.08
711.676	7.92
711.703	1.92
711.73	-9.08
711.757	13.92
711.784	4.92
711.812	18.92
711.839	21.92
711.866	-5.08
711.893	3.92
711.92	18.92
711.947	3.92
711.975	16.92
712.002	-3.08
712.029	23.92
712.056	10.92
712.083	10.92
712.11	-23.08
712.138	18.92
712.165	6.92
712.192	9.92
712.219	5.92
712.246	-2.08
712.273	-0.08
712.3	-6.08
712.328	14.92
712.355	6.92
712.382	-0.08
712.409	3.92
712.436	-2.08
712.463	14.92
712.49	7.92
712.517	4.92
712.544	16.92
712.572	3.92
712.599	-0.08
712.626	7.92
712.653	2.92
712.68	2.92
712.707	16.92
712.734	19.92
712.761	18.92
712.788	19.92
712.815	-2.08
712.842	10.92
712.87	2.92
712.897	4.92
712.924	7.92
712.951	-1.08
712.978	22.92
713.005	6.92
713.032	11.92
713.059	-6.08
713.086	0.92
713.113	-5.08
713.14	-12.08
713.167	17.92
713.194	16.92
713.221	-6.08
713.248	5.92
713.275	-1.08
713.302	5.92
713.329	-0.08
713.356	12.92
713.383	7.92
713.41	9.92
713.437	-6.08
713.464	-0.08
713.491	5.92
713.518	10.92
713.545	-7.08
713.572	-4.08
713.599	9.92
713.626	-1.08
713.653	23.92
713.68	-14.08
713.707	-14.08
713.734	7.92
713.761	6.92
713.788	5.92
713.815	2.92
713.842	-2.08
713.869	6.92
713.896	3.92
713.923	-2.08
713.95	5.92
713.977	2.92
714.004	-2.08
714.031	-4.08
714.058	-9.08
714.085	8.92
714.112	19.92
714.139	8.92
714.165	2.92
714.192	-3.08
714.219	1.92
714.246	6.92
714.273	2.92
714.3	-0.08
714.327	1.92
714.354	-4.08
714.381	-3.08
714.408	2.92
714.435	-4.08
714.461	6.92
714.488	11.92
714.515	-12.08
714.542	-8.08
714.569	-2.08
714.596	-3.08
714.623	-5.08
714.65	-11.08
714.677	-4.08
714.703	-8.08
714.73	-11.08
714.757	3.92
714.784	17.92
714.811	-3.08
714.838	14.92
714.865	2.92
714.891	4.92
714.918	12.92
714.945	-14.08
714.972	5.92
714.999	23.92
715.026	-12.08
715.052	1.92
715.079	-0.08
715.106	6.92
715.133	8.92
715.16	-13.08
715.187	13.92
715.213	1.92
715.24	-10.08
715.267	3.92
715.294	10.92
715.321	1.92
715.347	-3.08
715.374	-2.08
715.401	-2.08
715.428	-2.08
715.455	20.92
715.481	8.92
715.508	25.92
715.535	-9.08
715.562	34.92
715.588	12.92
715.615	4.92
715.642	9.92
715.669	14.92
715.695	3.92
715.722	-11.08
715.749	7.92
715.776	9.92
715.802	15.92
715.829	5.92
715.856	2.92
715.883	21.92
715.909	-5.08
715.936	1.92
715.963	15.92
715.99	-5.08
716.016	-9.08
716.043	6.92
716.07	-1.08
716.096	-12.08
716.123	2.92
716.15	2.92
716.177	15.92
716.203	19.92
716.23	9.92
716.257	12.92
716.283	-2.08
716.31	-4.08
716.337	-1.08
716.363	-6.08
716.39	9.92
716.417	6.92
716.443	1.92
716.47	23.92
716.497	12.92
716.523	9.92
716.55	5.92
716.577	11.92
716.603	18.92
716.63	-1.08
716.657	4.92
716.683	8.92
716.71	9.92
716.737	1.92
716.763	4.92
716.79	-0.08
716.817	-1.08
716.843	-1.08
716.87	-7.08
716.897	-5.08
716.923	22.92
716.95	-2.08
716.976	-1.08
717.003	-4.08
717.03	5.92
717.056	15.92
717.083	1.92
717.109	6.92
717.136	13.92
717.163	-11.08
717.189	6.92
717.216	-6.08
717.242	-6.08
717.269	11.92
717.296	10.92
717.322	15.92
717.349	2.92
717.375	-3.08
717.402	-10.08
717.428	4.92
717.455	18.92
717.481	7.92
717.508	11.92
717.535	-0.08
717.561	-3.08
717.588	11.92
717.614	12.92
717.641	6.92
717.667	4.92
717.694	12.92
717.72	-9.08
717.747	-4.08
717.773	-10.08
717.8	-2.08
717.826	-2.08
717.853	5.92
717.88	17.92
717.906	13.92
717.933	10.92
717.959	-6.08
717.986	-9.08
718.012	-6.08
718.039	5.92
718.065	11.92
718.092	6.92
718.118	-3.08
718.144	-1.08
718.171	19.92
718.197	28.92
718.224	7.92
718.25	2.92
718.277	-0.08
718.303	5.92
718.33	12.92
718.356	-9.08
718.383	-9.08
718.409	18.92
718.436	13.92
718.462	5.92
718.489	15.92
718.515	17.92
718.541	21.92
718.568	14.92
718.594	14.92
718.621	2.92
718.647	-2.08
718.674	-0.08
718.7	9.92
718.726	4.92
718.753	12.92
718.779	23.92
718.806	9.92
718.832	9.92
718.858	6.92
718.885	1.92
718.911	11.92
718.938	1.92
718.964	-1.08
718.99	7.92
719.017	1.92
719.043	10.92
719.07	20.92
719.096	-8.08
719.122	14.92
719.149	4.92
719.175	11.92
719.201	7.92
719.228	3.92
719.254	6.92
719.281	3.92
719.307	1.92
719.333	-3.08
719.36	4.92
719.386	5.92
719.412	7.92
719.439	-5.08
719.465	1.92
719.491	-13.08
719.518	9.92
719.544	-1.08
719.57	6.92
719.597	1.92
719.623	4.92
719.649	6.92
719.675	-3.08
719.702	4.92
719.728	4.92
719.754	4.92
719.781	7.92
719.807	-8.08
719.833	-8.08
719.86	5.92
719.886	3.92
719.912	-1.08
719.938	2.92
719.965	11.92
719.991	10.92
720.017	-1.08
720.044	-0.08
720.07	-9.08
720.096	18.92
720.122	-5.08
720.149	11.92
720.175	11.92
720.201	-3.08
720.227	-6.08
720.254	-6.08
720.28	-3.08
720.306	-9.08
720.332	2.92
720.359	6.92
720.385	18.92
720.411	0.92
720.437	15.92
720.463	-1.08
720.49	-0.08
720.516	3.92
720.542	-4.08
720.568	5.92
720.595	15.92
720.621	0.92
720.647	1.92
720.673	10.92
720.699	3.92
720.725	10.92
720.752	-2.08
720.778	12.92
720.804	5.92
720.83	3.92
720.856	-2.08
720.883	7.92
720.909	9.92
720.935	12.92
720.961	13.92
720.987	-5.08
721.013	13.92
721.04	5.92
721.066	-6.08
721.092	8.92
721.118	14.92
721.144	20.92
721.17	1.92
721.196	5.92
721.223	-4.08
721.249	7.92
721.275	29.92
721.301	-2.08
721.327	6.92
721.353	1.92
721.379	-9.08
721.405	15.92
721.432	19.92
721.458	18.92
721.484	9.92
721.51	-2.08
721.536	4.92
721.562	-3.08
721.588	-8.08
721.614	12.92
721.64	6.92
721.666	11.92
721.693	-1.08
721.719	14.92
721.745	-1.08
721.771	-8.08
721.797	6.92
721.823	18.92
721.849	24.92
721.875	11.92
721.901	10.92
721.927	1.92
721.953	-1.08
721.979	9.92
722.005	13.92
722.031	-3.08
722.057	10.92
722.083	-1.08
722.109	-8.08
722.135	8.92
722.161	9.92
722.187	14.92
722.214	0.92
722.24	4.92
722.266	15.92
722.292	21.92
722.318	16.92
722.344	2.92
722.37	8.92
722.396	7.92
722.422	-4.08
722.448	-17.08
722.474	-14.08
722.5	7.92
722.526	9.92
722.552	1.92
722.578	14.92
722.603	7.92
722.629	-8.08
722.655	2.92
722.681	-8.08
722.707	-7.08
722.733	3.92
722.759	-1.08
722.785	12.92
722.811	8.92
722.837	-0.08
722.863	18.92
722.889	10.92
722.915	-6.08
722.941	-1.08
722.967	-1.08
722.993	15.92
723.019	11.92
723.045	-4.08
723.071	3.92
723.097	9.92
723.122	2.92
723.148	-5.08
723.174	10.92
723.2	-5.08
723.226	-2.08
723.252	-1.08
723.278	-13.08
723.304	-3.08
723.33	-2.08
723.356	1.92
723.381	-3.08
723.407	-10.08
723.433	13.92
723.459	-8.08
723.485	-5.08
723.511	-0.08
723.537	5.92
723.563	-5.08
723.588	11.92
723.614	1.92
723.64	11.92
723.666	18.92
723.692	0.92
723.718	4.92
723.744	5.92
723.769	3.92
723.795	-6.08
723.821	-2.08
723.847	2.92
723.873	-0.08
723.899	8.92
723.924	-14.08
723.95	0.92
723.976	-21.08
724.002	6.92
724.028	12.92
724.053	-1.08
724.079	-1.08
724.105	1.92
724.131	1.92
724.157	11.92
724.182	17.92
724.208	-11.08
724.234	-1.08
724.26	5.92
724.286	15.92
724.311	-0.08
724.337	1.92
724.363	3.92
724.389	20.92
724.415	-0.08
724.44	6.92
724.466	-0.08
724.492	-5.08
724.518	5.92
724.543	3.92
724.569	6.92
724.595	2.92
724.621	5.92
724.646	8.92
724.672	3.92
724.698	-0.08
724.723	-3.08
724.749	5.92
724.775	7.92
724.801	2.92
724.826	-18.08
724.852	-7.08
724.878	-16.08
724.904	-23.08
724.929	1.92
724.955	6.92
724.981	7.92
725.006	6.92
725.032	6.92
725.058	20.92
725.083	14.92
725.109	13.92
725.135	2.92
725.161	6.92
725.186	3.92
725.212	4.92
725.238	0.92
725.263	-7.08
725.289	2.92
725.315	-0.08
725.34	14.92
725.366	17.92
725.392	2.92
725.417	-9.08
725.443	5.92
725.468	10.92
725.494	14.92
725.52	15.92
725.545	8.92
725.571	7.92
725.597	6.92
725.622	4.92
725.648	-5.08
725.674	12.92
725.699	5.92
725.725	0.92
725.75	29.92
725.776	-5.08
725.802	2.92
725.827	-0.08
725.853	5.92
725.878	12.92
725.904	-0.08
725.93	2.92
725.955	-10.08
725.981	-11.08
726.006	-5.08
726.032	22.92
726.057	2.92
726.083	6.92
726.109	9.92
726.134	22.92
726.16	1.92
726.185	-7.08
726.211	-11.08
726.236	18.92
726.262	12.92
726.288	-1.08
726.313	9.92
726.339	5.92
726.364	5.92
726.39	11.92
726.415	5.92
726.441	-6.08
726.466	-10.08
726.492	11.92
726.517	-5.08
726.543	16.92
726.568	-10.08
726.594	7.92
726.619	14.92
726.645	15.92
726.67	25.92
726.696	11.92
726.721	-8.08
726.747	-1.08
726.772	7.92
726.798	9.92
726.823	16.92
726.849	-0.08
726.874	8.92
726.9	-1.08
726.925	-0.08
726.951	-11.08
726.976	-1.08
727.002	-2.08
727.027	-4.08
727.053	14.92
727.078	2.92
727.104	13.92
727.129	-14.08
727.155	5.92
727.18	5.92
727.205	-8.08
727.231	-7.08
727.256	-4.08
727.282	-5.08
727.307	7.92
727.333	-2.08
727.358	1.92
727.383	10.92
727.409	-6.08
727.434	8.92
727.46	-3.08
727.485	-2.08
727.511	17.92
727.536	-1.08
727.561	-3.08
727.587	-1.08
727.612	-3.08
727.637	5.92
727.663	-19.08
727.688	36.92
727.714	14.92
727.739	-19.08
727.764	-1.08
727.79	17.92
727.815	-5.08
727.841	12.92
727.866	20.92
727.891	13.92
727.917	10.92
727.942	-8.08
727.967	-1.08
727.993	-2.08
728.018	4.92
728.043	-2.08
728.069	3.92
728.094	19.92
728.119	-7.08
728.145	6.92
728.17	14.92
728.195	-5.08
728.221	12.92
728.246	7.92
728.271	-7.08
728.297	-4.08
728.322	-3.08
728.347	19.92
728.373	2.92
728.398	8.92
728.423	-8.08
728.448	1.92
728.474	1.92
728.499	6.92
728.524	-0.08
728.55	-1.08
728.575	-0.08
728.6	13.92
728.625	5.92
728.651	15.92
728.676	16.92
728.701	4.92
728.727	22.92
728.752	-10.08
728.777	2.92
728.802	-5.08
728.828	7.92
728.853	-11.08
728.878	-2.08
728.903	-0.08
728.929	-11.08
728.954	-3.08
728.979	13.92
729.004	-5.08
729.03	-8.08
729.055	1.92
729.08	-5.08
729.105	-4.08
729.13	9.92
729.156	15.92
729.181	14.92
729.206	-11.08
729.231	-8.08
729.256	2.92
729.282	-4.08
729.307	2.92
729.332	-8.08
729.357	-0.08
729.382	1.92
729.408	-12.08
729.433	-1.08
729.458	15.92
729.483	5.92
729.508	10.92
729.533	9.92
729.559	15.92
729.584	-5.08
729.609	6.92
729.634	12.92
729.659	4.92
729.684	-8.08
729.71	22.92
729.735	20.92
729.76	-1.08
729.785	12.92
729.81	22.92
729.835	-11.08
729.86	-13.08
729.886	5.92
729.911	20.92
729.936	-4.08
729.961	10.92
729.986	-20.08
730.011	18.92
730.036	2.92
730.061	13.92
730.086	-4.08
730.112	5.92
730.137	17.92
730.162	-9.08
730.187	-0.08
730.212	9.92
730.237	8.92
730.262	8.92
730.287	0.92
730.312	20.92
730.337	2.92
730.362	34.92
730.387	5.92
730.413	-13.08
730.438	-14.08
730.463	-9.08
730.488	-3.08
730.513	-5.08
730.538	1.92
730.563	31.92
730.588	17.92
730.613	17.92
730.638	2.92
730.663	6.92
730.688	29.92
730.713	12.92
730.738	1.92
730.763	2.92
730.788	-8.08
730.813	16.92
730.838	8.92
730.863	-4.08
730.888	-1.08
730.913	10.92
730.938	-9.08
730.963	-0.08
730.988	13.92
731.013	1.92
731.038	3.92
731.063	-14.08
731.088	-4.08
731.113	-7.08
731.138	1.92
731.163	-2.08
731.188	-2.08
731.213	0.92
731.238	1.92
731.263	-9.08
731.288	-9.08
731.313	13.92
731.338	2.92
731.363	15.92
731.388	10.92
731.413	-11.08
731.438	-2.08
731.463	12.92
731.487	15.92
731.512	1.92
731.537	-6.08
731.562	-1.08
731.587	18.92
731.612	-4.08
731.637	-5.08
731.662	9.92
731.687	5.92
731.712	-13.08
731.737	-13.08
731.762	-6.08
731.786	3.92
731.811	2.92
731.836	4.92
731.861	2.92
731.886	-4.08
731.911	6.92
731.936	26.92
731.961	-9.08
731.986	-3.08
732.01	3.92
732.035	-1.08
732.06	5.92
732.085	2.92
732.11	2.92
732.135	-11.08
732.16	-5.08
732.184	-5.08
732.209	2.92
732.234	7.92
732.259	5.92
732.284	19.92
732.309	-9.08
732.334	-6.08
732.358	-9.08
732.383	-14.08
732.408	1.92
732.433	7.92
732.458	6.92
732.482	15.92
732.507	6.92
732.532	0.92
732.557	-2.08
732.582	7.92
732.607	1.92
732.631	-14.08
732.656	-6.08
732.681	2.92
732.706	11.92
732.73	1.92
732.755	7.92
732.78	4.92
732.805	8.92
732.83	3.92
732.854	2.92
732.879	5.92
732.904	1.92
732.929	2.92
732.953	8.92
732.978	-2.08
733.003	0.92
733.028	7.92
733.052	-0.08
733.077	10.92
733.102	13.92
733.127	13.92
733.151	-3.08
733.176	2.92
733.201	-4.08
733.226	-3.08
733.25	-7.08
733.275	4.92
733.3	-6.08
733.324	17.92
733.349	18.92
733.374	11.92
733.399	-8.08
733.423	8.92
733.448	-4.08
733.473	-10.08
733.497	-8.08
733.522	-1.08
733.547	21.92
733.571	10.92
733.596	-0.08
733.621	11.92
733.646	-1.08
733.67	8.92
733.695	5.92
733.72	7.92
733.744	10.92
733.769	1.92
733.794	6.92
733.818	8.92
733.843	-6.08
733.867	-6.08
733.892	5.92
733.917	10.92
733.941	2.92
733.966	-16.08
733.991	-6.08
734.015	11.92
734.04	9.92
734.065	6.92
734.089	14.92
734.114	5.92
734.138	5.92
734.163	-2.08
734.188	5.92
734.212	23.92
734.237	21.92
734.261	-0.08
734.286	3.92
734.311	-4.08
734.335	6.92
734.36	1.92
734.384	13.92
734.409	-4.08
734.434	-13.08
734.458	-2.08
734.483	-3.08
734.507	-14.08
734.532	13.92
734.556	-0.08
734.581	6.92
734.606	1.92
734.63	-2.08
734.655	6.92
734.679	5.92
734.704	9.92
734.728	22.92
734.753	1.92
734.777	-5.08
734.802	-6.08
734.826	10.92
734.851	9.92
734.876	12.92
734.9	1.92
734.925	9.92
734.949	24.92
734.974	5.92
734.998	25.92
735.023	-8.08
735.047	-5.08
735.072	14.92
735.096	1.92
735.121	8.92
735.145	12.92
735.17	6.92
735.194	15.92
735.219	1.92
735.243	4.92
735.268	2.92
735.292	6.92
735.317	7.92
735.341	8.92
735.365	-16.08
735.39	0.92
735.414	12.92
735.439	4.92
735.463	-5.08
735.488	3.92
735.512	1.92
735.537	4.92
735.561	-3.08
735.586	-4.08
735.61	12.92
735.634	-11.08
735.659	26.92
735.683	22.92
735.708	4.92
735.732	-1.08
735.757	2.92
735.781	9.92
735.805	-6.08
735.83	-0.08
735.854	-1.08
735.879	-0.08
735.903	27.92
735.927	9.92
735.952	-9.08
735.976	-3.08
736.001	3.92
736.025	-7.08
736.049	0.92
736.074	11.92
736.098	-1.08
736.123	3.92
736.147	9.92
736.171	5.92
736.196	-4.08
736.22	-2.08
736.244	12.92
736.269	4.92
736.293	2.92
736.317	0.92
736.342	7.92
736.366	22.92
736.39	-3.08
736.415	9.92
736.439	10.92
736.463	10.92
736.488	9.92
736.512	-6.08
736.536	0.92
736.561	29.92
736.585	-7.08
736.609	11.92
736.634	-4.08
736.658	7.92
736.682	-3.08
736.707	-8.08
736.731	-1.08
736.755	-6.08
736.78	5.92
736.804	21.92
736.828	4.92
736.852	3.92
736.877	15.92
736.901	18.92
736.925	6.92
736.949	13.92
736.974	-5.08
736.998	-10.08
737.022	-5.08
737.047	-14.08
737.071	11.92
737.095	16.92
737.119	19.92
737.144	10.92
737.168	-11.08
737.192	-3.08
737.216	7.92
737.241	-0.08
737.265	-0.08
737.289	-0.08
737.313	-2.08
737.337	12.92
737.362	26.92
737.386	4.92
737.41	-10.08
737.434	11.92
737.459	1.92
737.483	14.92
737.507	18.92
737.531	14.92
737.555	17.92
737.58	9.92
737.604	9.92
737.628	-18.08
737.652	-3.08
737.676	-12.08
737.701	2.92
737.725	26.92
737.749	3.92
737.773	-11.08
737.797	-1.08
737.821	18.92
737.846	10.92
737.87	16.92
737.894	7.92
737.918	9.92
737.942	4.92
737.966	12.92
737.99	15.92
738.015	5.92
738.039	-3.08
738.063	7.92
738.087	1.92
738.111	-8.08
738.135	13.92
738.159	11.92
738.184	5.92
738.208	10.92
738.232	9.92
738.256	26.92
738.28	-0.08
738.304	-6.08
738.328	-5.08
738.352	1.92
738.376	-6.08
738.4	-8.08
738.425	5.92
738.449	20.92
738.473	10.92
738.497	7.92
738.521	17.92
738.545	13.92
738.569	12.92
738.593	-5.08
738.617	-2.08
738.641	-1.08
738.665	10.92
738.689	7.92
738.713	-2.08
738.737	7.92
738.762	22.92
738.786	12.92
738.81	3.92
738.834	9.92
738.858	-2.08
738.882	5.92
738.906	-8.08
738.93	0.92
738.954	4.92
738.978	14.92
739.002	-5.08
739.026	1.92
739.05	6.92
739.074	-8.08
739.098	19.92
739.122	15.92
739.146	5.92
739.17	0.92
739.194	11.92
739.218	-1.08
739.242	-0.08
739.266	6.92
739.29	19.92
739.314	19.92
739.338	-8.08
739.362	-0.08
739.386	-4.08
739.41	2.92
739.434	-2.08
739.458	15.92
739.482	3.92
739.506	3.92
739.53	-1.08
739.554	16.92
739.577	13.92
739.601	6.92
739.625	-12.08
739.649	-11.08
739.673	-13.08
739.697	2.92
739.721	2.92
739.745	21.92
739.769	15.92
739.793	14.92
739.817	6.92
739.841	-7.08
739.865	17.92
739.889	-10.08
739.912	-0.08
739.936	-1.08
739.96	-12.08
739.984	19.92
740.008	-0.08
740.032	1.92
740.056	1.92
740.08	-6.08
740.104	-13.08
740.127	6.92
740.151	2.92
740.175	6.92
740.199	7.92
740.223	54.92
740.247	17.92
740.271	9.92
740.295	5.92
740.318	-13.08
740.342	-6.08
740.366	-1.08
740.39	14.92
740.414	2.92
740.438	4.92
740.461	21.92
740.485	9.92
740.509	-7.08
740.533	-1.08
740.557	-4.08
740.581	-0.08
740.604	-20.08
740.628	1.92
740.652	-4.08
740.676	5.92
740.7	6.92
740.723	-12.08
740.747	-2.08
740.771	-3.08
740.795	-3.08
740.819	15.92
740.842	8.92
740.866	21.92
740.89	9.92
740.914	-4.08
740.938	0.92
740.961	17.92
740.985	13.92
741.009	2.92
741.033	17.92
741.056	19.92
741.08	7.92
741.104	-2.08
741.128	2.92
741.151	3.92
741.175	4.92
741.199	5.92
741.223	10.92
741.246	-2.08
741.27	10.92
741.294	-2.08
741.318	-10.08
741.341	-2.08
741.365	-3.08
741.389	10.92
741.413	21.92
741.436	20.92
741.46	16.92
741.484	6.92
741.507	5.92
741.531	26.92
741.555	9.92
741.579	7.92
741.602	13.92
741.626	12.92
741.65	6.92
741.673	3.92
741.697	-2.08
741.721	1.92
741.744	-9.08
741.768	3.92
741.792	1.92
741.815	-2.08
741.839	12.92
741.863	13.92
741.886	17.92
741.91	29.92
741.934	7.92
741.957	-2.08
741.981	11.92
742.005	8.92
742.028	-5.08
742.052	4.92
742.075	10.92
742.099	9.92
742.123	8.92
742.146	13.92
742.17	-0.08
742.194	-5.08
742.217	-7.08
742.241	2.92
742.264	-2.08
742.288	21.92
742.312	21.92
742.335	-10.08
742.359	2.92
742.382	3.92
742.406	3.92
742.43	-8.08
742.453	13.92
742.477	-13.08
742.5	10.92
742.524	1.92
742.548	16.92
742.571	-0.08
742.595	-5.08
742.618	-5.08
742.642	4.92
742.665	2.92
742.689	-11.08
742.712	18.92
742.736	19.92
742.76	11.92
742.783	8.92
742.807	9.92
742.83	4.92
742.854	-9.08
742.877	-4.08
742.901	6.92
742.924	7.92
742.948	-0.08
742.971	-8.08
742.995	7.92
743.018	-4.08
743.042	-2.08
743.065	4.92
743.089	13.92
743.112	12.92
743.136	1.92
743.159	13.92
743.183	-1.08
743.206	4.92
743.23	-2.08
743.253	2.92
743.277	19.92
743.3	0.92
743.324	-1.08
743.347	2.92
743.371	6.92
743.394	21.92
743.418	23.92
743.441	5.92
743.465	-4.08
743.488	5.92
743.512	-5.08
743.535	-2.08
743.558	2.92
743.582	15.92
743.605	26.92
743.629	12.92
743.652	12.92
743.676	-4.08
743.699	16.92
743.723	18.92
743.746	10.92
743.769	9.92
743.793	18.92
743.816	-3.08
743.84	13.92
743.863	7.92
743.886	3.92
743.91	5.92
743.933	8.92
743.957	5.92
743.98	-1.08
744.003	-10.08
744.027	5.92
744.05	6.92
744.074	9.92
744.097	-13.08
744.12	-8.08
744.144	7.92
744.167	11.92
744.19	-5.08
744.214	-1.08
744.237	-9.08
744.26	10.92
744.284	-1.08
744.307	-11.08
744.331	8.92
744.354	-4.08
744.377	-0.08
744.401	4.92
744.424	-6.08
744.447	-12.08
744.471	-1.08
