Data from HighRes_H2_15_09_11_07_2024_HR4C61891__114__15-11-07-801.txt Node

Date: Thu Nov 07 15:11:07 EST 2024
User: crc00042
Spectrometer: HR4C6189
Trigger mode: 4
Integration Time (sec): 1.000000E-1
Scans to average: 1
Electric dark correction enabled: true
Nonlinearity correction enabled: false
Boxcar width: 0
XAxis mode: Wavelengths
Number of Pixels in Spectrum: 3648
>>>>>Begin Spectral Data<<<<<
639.567	-58.69
639.602	-58.69
639.636	-58.69
639.67	-44.69
639.704	-22.69
639.738	2.31
639.773	9.31
639.807	-16.69
639.841	-12.69
639.875	9.31
639.909	5.31
639.943	-2.69
639.978	2.31
640.012	-0.69
640.046	6.31
640.08	-4.69
640.114	1.31
640.148	1.31
640.182	2.31
640.217	-4.69
640.251	14.31
640.285	10.31
640.319	-4.69
640.353	-11.69
640.387	1.31
640.421	6.31
640.455	-5.69
640.49	-0.69
640.524	-4.69
640.558	0.31
640.592	8.31
640.626	-9.69
640.66	-5.69
640.694	-14.69
640.728	3.31
640.762	-7.69
640.796	-6.69
640.83	5.31
640.865	5.31
640.899	1.31
640.933	3.31
640.967	10.31
641.001	-3.69
641.035	0.31
641.069	-4.69
641.103	2.31
641.137	2.31
641.171	-5.69
641.205	6.31
641.239	2.31
641.273	12.31
641.307	14.31
641.341	1.31
641.375	-1.69
641.409	9.31
641.443	9.31
641.477	-3.69
641.511	2.31
641.545	-2.69
641.579	-4.69
641.614	-0.69
641.648	5.31
641.682	-4.69
641.716	0.31
641.75	11.31
641.784	11.31
641.818	3.31
641.852	13.31
641.886	-10.69
641.919	10.31
641.953	-2.69
641.987	-13.69
642.021	-5.69
642.055	0.31
642.089	5.31
642.123	-5.69
642.157	-11.69
642.191	-7.69
642.225	0.31
642.259	3.31
642.293	8.31
642.327	7.31
642.361	-0.69
642.395	21.31
642.429	16.31
642.463	8.31
642.497	36.31
642.531	-3.69
642.565	3.31
642.599	4.31
642.633	-4.69
642.666	1.31
642.7	5.31
642.734	4.31
642.768	-0.69
642.802	-7.69
642.836	10.31
642.87	-8.69
642.904	14.31
642.938	4.31
642.972	-3.69
643.005	-6.69
643.039	7.31
643.073	-8.69
643.107	2.31
643.141	-3.69
643.175	5.31
643.209	8.31
643.243	5.31
643.276	-5.69
643.31	-11.69
643.344	-4.69
643.378	-2.69
643.412	14.31
643.446	10.31
643.48	6.31
643.513	16.31
643.547	-6.69
643.581	-17.69
643.615	8.31
643.649	1.31
643.683	-5.69
643.716	-8.69
643.75	1.31
643.784	-18.69
643.818	-10.69
643.852	-11.69
643.886	6.31
643.919	-1.69
643.953	-2.69
643.987	-12.69
644.021	10.31
644.055	8.31
644.088	-2.69
644.122	-12.69
644.156	-1.69
644.19	5.31
644.224	6.31
644.257	8.31
644.291	14.31
644.325	5.31
644.359	0.31
644.392	11.31
644.426	9.31
644.46	4.31
644.494	7.31
644.527	4.31
644.561	-12.69
644.595	-1.69
644.629	3.31
644.662	-7.69
644.696	-0.69
644.73	0.31
644.764	1.31
644.797	-0.69
644.831	-13.69
644.865	14.31
644.899	5.31
644.932	26.31
644.966	-9.69
645	13.31
645.033	21.31
645.067	2.31
645.101	12.31
645.135	4.31
645.168	0.31
645.202	-4.69
645.236	4.31
645.269	5.31
645.303	-6.69
645.337	-18.69
645.37	-0.69
645.404	15.31
645.438	12.31
645.471	1.31
645.505	6.31
645.539	8.31
645.572	-12.69
645.606	-4.69
645.64	1.31
645.673	14.31
645.707	24.31
645.741	3.31
645.774	1.31
645.808	13.31
645.842	-1.69
645.875	5.31
645.909	-7.69
645.943	5.31
645.976	19.31
646.01	12.31
646.043	7.31
646.077	-1.69
646.111	1.31
646.144	20.31
646.178	24.31
646.212	2.31
646.245	-7.69
646.279	5.31
646.312	19.31
646.346	14.31
646.38	-0.69
646.413	18.31
646.447	5.31
646.48	-8.69
646.514	4.31
646.547	6.31
646.581	-17.69
646.615	-2.69
646.648	-26.69
646.682	-16.69
646.715	-3.69
646.749	4.31
646.782	3.31
646.816	-9.69
646.85	12.31
646.883	1.31
646.917	6.31
646.95	14.31
646.984	4.31
647.017	-11.69
647.051	16.31
647.084	6.31
647.118	-16.69
647.151	3.31
647.185	1.31
647.218	-3.69
647.252	2.31
647.285	-4.69
647.319	-16.69
647.353	0.31
647.386	14.31
647.42	14.31
647.453	7.31
647.487	7.31
647.52	-5.69
647.553	-3.69
647.587	-5.69
647.62	2.31
647.654	-0.69
647.687	3.31
647.721	12.31
647.754	-3.69
647.788	0.31
647.821	-22.69
647.855	-5.69
647.888	18.31
647.922	16.31
647.955	7.31
647.989	10.31
648.022	-9.69
648.055	5.31
648.089	0.31
648.122	20.31
648.156	3.31
648.189	-2.69
648.223	1.31
648.256	2.31
648.29	-6.69
648.323	3.31
648.356	-2.69
648.39	-3.69
648.423	7.31
648.457	9.31
648.49	11.31
648.523	2.31
648.557	-1.69
648.59	-8.69
648.624	9.31
648.657	1.31
648.69	31.31
648.724	16.31
648.757	17.31
648.791	3.31
648.824	13.31
648.857	13.31
648.891	2.31
648.924	10.31
648.957	15.31
648.991	-13.69
649.024	3.31
649.057	-11.69
649.091	3.31
649.124	3.31
649.158	2.31
649.191	34.31
649.224	0.31
649.258	21.31
649.291	12.31
649.324	9.31
649.358	4.31
649.391	9.31
649.424	11.31
649.458	2.31
649.491	12.31
649.524	-19.69
649.557	-10.69
649.591	-9.69
649.624	2.31
649.657	-3.69
649.691	4.31
649.724	18.31
649.757	13.31
649.791	-11.69
649.824	9.31
649.857	5.31
649.89	-6.69
649.924	-16.69
649.957	5.31
649.99	-6.69
650.023	-1.69
650.057	3.31
650.09	6.31
650.123	-2.69
650.157	20.31
650.19	20.31
650.223	-8.69
650.256	-7.69
650.29	2.31
650.323	1.31
650.356	5.31
650.389	-12.69
650.423	1.31
650.456	5.31
650.489	7.31
650.522	12.31
650.555	25.31
650.589	6.31
650.622	9.31
650.655	0.31
650.688	-2.69
650.721	9.31
650.755	8.31
650.788	7.31
650.821	5.31
650.854	-5.69
650.887	-0.69
650.921	3.31
650.954	-3.69
650.987	6.31
651.02	-4.69
651.053	-9.69
651.087	-7.69
651.12	21.31
651.153	2.31
651.186	3.31
651.219	-4.69
651.252	13.31
651.286	16.31
651.319	-8.69
651.352	4.31
651.385	21.31
651.418	7.31
651.451	-0.69
651.484	8.31
651.518	-7.69
651.551	20.31
651.584	-10.69
651.617	10.31
651.65	14.31
651.683	0.31
651.716	-9.69
651.749	-12.69
651.783	-3.69
651.816	12.31
651.849	2.31
651.882	-1.69
651.915	-6.69
651.948	6.31
651.981	-0.69
652.014	-20.69
652.047	-11.69
652.08	-10.69
652.114	-12.69
652.147	-2.69
652.18	11.31
652.213	19.31
652.246	3.31
652.279	-5.69
652.312	4.31
652.345	-0.69
652.378	10.31
652.411	21.31
652.444	-0.69
652.477	-0.69
652.51	-9.69
652.543	-11.69
652.576	-7.69
652.609	-2.69
652.642	15.31
652.675	3.31
652.709	4.31
652.742	-1.69
652.775	-3.69
652.808	3.31
652.841	6.31
652.874	6.31
652.907	15.31
652.94	11.31
652.973	-1.69
653.006	12.31
653.039	-4.69
653.072	-6.69
653.105	6.31
653.138	-11.69
653.171	8.31
653.204	3.31
653.237	12.31
653.27	1.31
653.303	-2.69
653.336	7.31
653.368	-1.69
653.401	15.31
653.434	-14.69
653.467	9.31
653.5	-8.69
653.533	-11.69
653.566	-1.69
653.599	14.31
653.632	8.31
653.665	10.31
653.698	0.31
653.731	-4.69
653.764	4.31
653.797	-4.69
653.83	3.31
653.863	0.31
653.896	6.31
653.929	-0.69
653.961	-4.69
653.994	7.31
654.027	-4.69
654.06	6.31
654.093	1.31
654.126	5.31
654.159	-13.69
654.192	26.31
654.225	-1.69
654.258	-1.69
654.29	4.31
654.323	5.31
654.356	-20.69
654.389	10.31
654.422	11.31
654.455	9.31
654.488	-4.69
654.521	2.31
654.553	-7.69
654.586	7.31
654.619	-3.69
654.652	7.31
654.685	-0.69
654.718	5.31
654.751	17.31
654.783	-3.69
654.816	9.31
654.849	13.31
654.882	-4.69
654.915	-8.69
654.948	5.31
654.98	-1.69
655.013	7.31
655.046	12.31
655.079	-7.69
655.112	-0.69
655.144	-10.69
655.177	20.31
655.21	24.31
655.243	18.31
655.276	-0.69
655.308	4.31
655.341	-10.69
655.374	6.31
655.407	-7.69
655.44	-4.69
655.472	23.31
655.505	7.31
655.538	-10.69
655.571	17.31
655.603	7.31
655.636	10.31
655.669	25.31
655.702	27.31
655.734	6.31
655.767	15.31
655.8	10.31
655.833	31.31
655.865	28.31
655.898	22.31
655.931	34.31
655.964	47.31
655.996	59.31
656.029	70.31
656.062	54.31
656.095	73.31
656.127	59.31
656.16	93.31
656.193	132.31
656.225	182.31
656.258	265.31
656.291	501.31
656.324	1123.31
656.356	3331.31
656.389	7497.31
656.422	6003.31
656.454	2071.31
656.487	688.31
656.52	251.31
656.552	134.31
656.585	75.31
656.618	48.31
656.65	42.31
656.683	21.31
656.716	23.31
656.748	24.31
656.781	9.31
656.814	8.31
656.846	20.31
656.879	-0.69
656.912	-2.69
656.944	-14.69
656.977	-13.69
657.01	-12.69
657.042	12.31
657.075	20.31
657.108	3.31
657.14	15.31
657.173	12.31
657.205	30.31
657.238	22.31
657.271	-16.69
657.303	-10.69
657.336	6.31
657.369	-3.69
657.401	-16.69
657.434	-14.69
657.466	6.31
657.499	3.31
657.532	9.31
657.564	12.31
657.597	-0.69
657.629	2.31
657.662	3.31
657.694	18.31
657.727	-21.69
657.76	9.31
657.792	7.31
657.825	-14.69
657.857	-5.69
657.89	-4.69
657.922	3.31
657.955	-23.69
657.987	-0.69
658.02	9.31
658.053	0.31
658.085	9.31
658.118	5.31
658.15	-1.69
658.183	22.31
658.215	14.31
658.248	4.31
658.28	-2.69
658.313	6.31
658.345	3.31
658.378	0.31
658.41	-8.69
658.443	13.31
658.475	0.31
658.508	-5.69
658.54	-10.69
658.573	-5.69
658.605	0.31
658.638	6.31
658.67	2.31
658.703	-11.69
658.735	10.31
658.768	4.31
658.8	-11.69
658.833	10.31
658.865	-12.69
658.898	-3.69
658.93	-2.69
658.963	-4.69
658.995	-3.69
659.028	0.31
659.06	-11.69
659.092	-1.69
659.125	-7.69
659.157	1.31
659.19	-7.69
659.222	-14.69
659.255	-7.69
659.287	-9.69
659.32	-1.69
659.352	17.31
659.384	15.31
659.417	-4.69
659.449	17.31
659.482	22.31
659.514	-2.69
659.546	4.31
659.579	-17.69
659.611	8.31
659.644	-21.69
659.676	-22.69
659.708	-1.69
659.741	-10.69
659.773	2.31
659.806	-0.69
659.838	-6.69
659.87	-14.69
659.903	-8.69
659.935	-5.69
659.967	-2.69
660	0.31
660.032	-24.69
660.065	9.31
660.097	6.31
660.129	-5.69
660.162	-0.69
660.194	7.31
660.226	-3.69
660.259	12.31
660.291	-16.69
660.323	-17.69
660.356	1.31
660.388	5.31
660.42	19.31
660.453	10.31
660.485	4.31
660.517	10.31
660.55	19.31
660.582	0.31
660.614	8.31
660.647	-11.69
660.679	-14.69
660.711	11.31
660.743	-0.69
660.776	4.31
660.808	1.31
660.84	-2.69
660.873	6.31
660.905	12.31
660.937	7.31
660.969	16.31
661.002	11.31
661.034	4.31
661.066	-7.69
661.099	9.31
661.131	12.31
661.163	10.31
661.195	2.31
661.228	16.31
661.26	-4.69
661.292	3.31
661.324	4.31
661.357	7.31
661.389	0.31
661.421	-3.69
661.453	-2.69
661.485	11.31
661.518	3.31
661.55	-12.69
661.582	-2.69
661.614	-6.69
661.647	-12.69
661.679	-10.69
661.711	-1.69
661.743	6.31
661.775	11.31
661.808	19.31
661.84	-5.69
661.872	6.31
661.904	-2.69
661.936	-8.69
661.969	-12.69
662.001	-12.69
662.033	1.31
662.065	1.31
662.097	12.31
662.129	9.31
662.162	5.31
662.194	10.31
662.226	11.31
662.258	2.31
662.29	0.31
662.322	-13.69
662.355	-19.69
662.387	15.31
662.419	13.31
662.451	17.31
662.483	2.31
662.515	-10.69
662.547	-7.69
662.58	-4.69
662.612	-4.69
662.644	-11.69
662.676	3.31
662.708	7.31
662.74	-5.69
662.772	4.31
662.804	11.31
662.836	-7.69
662.869	-15.69
662.901	1.31
662.933	-1.69
662.965	13.31
662.997	10.31
663.029	-6.69
663.061	-2.69
663.093	-9.69
663.125	4.31
663.157	3.31
663.189	-6.69
663.221	22.31
663.254	14.31
663.286	27.31
663.318	3.31
663.35	-7.69
663.382	9.31
663.414	21.31
663.446	-3.69
663.478	-0.69
663.51	16.31
663.542	-5.69
663.574	-6.69
663.606	-5.69
663.638	-12.69
663.67	-6.69
663.702	-19.69
663.734	-1.69
663.766	-3.69
663.798	-6.69
663.83	-12.69
663.862	6.31
663.894	5.31
663.926	1.31
663.958	4.31
663.99	2.31
664.022	-14.69
664.054	2.31
664.086	-0.69
664.118	-11.69
664.15	1.31
664.182	11.31
664.214	-0.69
664.246	11.31
664.278	3.31
664.31	9.31
664.342	-2.69
664.374	-4.69
664.406	-11.69
664.438	3.31
664.47	9.31
664.502	10.31
664.534	-2.69
664.566	-36.69
664.598	7.31
664.63	-7.69
664.662	5.31
664.693	-16.69
664.725	-8.69
664.757	-11.69
664.789	-8.69
664.821	2.31
664.853	14.31
664.885	-6.69
664.917	-13.69
664.949	2.31
664.981	13.31
665.013	-0.69
665.045	-5.69
665.076	-2.69
665.108	2.31
665.14	-5.69
665.172	-8.69
665.204	-24.69
665.236	4.31
665.268	17.31
665.3	-4.69
665.331	-12.69
665.363	-2.69
665.395	-6.69
665.427	-6.69
665.459	1.31
665.491	10.31
665.523	-5.69
665.555	4.31
665.586	-4.69
665.618	-12.69
665.65	3.31
665.682	9.31
665.714	16.31
665.746	6.31
665.777	-6.69
665.809	-21.69
665.841	-5.69
665.873	-21.69
665.905	-10.69
665.937	9.31
665.968	3.31
666	2.31
666.032	-9.69
666.064	-0.69
666.096	2.31
666.127	12.31
666.159	17.31
666.191	6.31
666.223	-5.69
666.255	9.31
666.286	8.31
666.318	2.31
666.35	18.31
666.382	1.31
666.413	-21.69
666.445	-7.69
666.477	-14.69
666.509	-14.69
666.54	-5.69
666.572	4.31
666.604	15.31
666.636	-3.69
666.667	7.31
666.699	21.31
666.731	16.31
666.763	-1.69
666.794	8.31
666.826	0.31
666.858	-23.69
666.89	20.31
666.921	0.31
666.953	14.31
666.985	12.31
667.017	22.31
667.048	11.31
667.08	-8.69
667.112	-2.69
667.143	-12.69
667.175	17.31
667.207	-11.69
667.238	-9.69
667.27	-3.69
667.302	-5.69
667.334	-4.69
667.365	-1.69
667.397	0.31
667.429	-5.69
667.46	3.31
667.492	3.31
667.524	-13.69
667.555	5.31
667.587	11.31
667.619	-0.69
667.65	-20.69
667.682	6.31
667.714	10.31
667.745	19.31
667.777	7.31
667.808	4.31
667.84	-4.69
667.872	13.31
667.903	11.31
667.935	-0.69
667.967	0.31
667.998	-6.69
668.03	-6.69
668.061	2.31
668.093	10.31
668.125	4.31
668.156	5.31
668.188	-0.69
668.22	-6.69
668.251	4.31
668.283	6.31
668.314	19.31
668.346	-16.69
668.377	2.31
668.409	-6.69
668.441	4.31
668.472	-16.69
668.504	8.31
668.535	0.31
668.567	4.31
668.599	5.31
668.63	-2.69
668.662	-5.69
668.693	19.31
668.725	0.31
668.756	-0.69
668.788	6.31
668.819	-1.69
668.851	-8.69
668.882	3.31
668.914	-2.69
668.946	2.31
668.977	-8.69
669.009	4.31
669.04	-2.69
669.072	-11.69
669.103	7.31
669.135	0.31
669.166	9.31
669.198	7.31
669.229	22.31
669.261	2.31
669.292	2.31
669.324	10.31
669.355	8.31
669.387	-11.69
669.418	1.31
669.45	-7.69
669.481	-4.69
669.513	-0.69
669.544	-0.69
669.576	-3.69
669.607	-7.69
669.639	6.31
669.67	-30.69
669.701	2.31
669.733	-24.69
669.764	1.31
669.796	-3.69
669.827	0.31
669.859	-8.69
669.89	3.31
669.922	13.31
669.953	4.31
669.985	6.31
670.016	15.31
670.047	-10.69
670.079	-0.69
670.11	3.31
670.142	-3.69
670.173	-2.69
670.204	-1.69
670.236	-4.69
670.267	-11.69
670.299	-16.69
670.33	-5.69
670.362	6.31
670.393	-10.69
670.424	4.31
670.456	3.31
670.487	7.31
670.518	-2.69
670.55	3.31
670.581	3.31
670.613	6.31
670.644	-0.69
670.675	-9.69
670.707	-21.69
670.738	5.31
670.769	-14.69
670.801	-11.69
670.832	13.31
670.864	-12.69
670.895	7.31
670.926	11.31
670.958	-5.69
670.989	8.31
671.02	-6.69
671.052	-1.69
671.083	12.31
671.114	-9.69
671.146	4.31
671.177	-5.69
671.208	-3.69
671.24	-16.69
671.271	6.31
671.302	5.31
671.333	6.31
671.365	-6.69
671.396	-6.69
671.427	22.31
671.459	4.31
671.49	-2.69
671.521	1.31
671.553	9.31
671.584	6.31
671.615	-5.69
671.646	-0.69
671.678	-11.69
671.709	2.31
671.74	-7.69
671.771	-13.69
671.803	4.31
671.834	1.31
671.865	-5.69
671.896	0.31
671.928	7.31
671.959	8.31
671.99	0.31
672.021	-4.69
672.053	-4.69
672.084	15.31
672.115	7.31
672.146	-2.69
672.178	-10.69
672.209	-3.69
672.24	-4.69
672.271	15.31
672.303	3.31
672.334	5.31
672.365	-13.69
672.396	15.31
672.427	12.31
672.459	19.31
672.49	19.31
672.521	-0.69
672.552	22.31
672.583	15.31
672.615	1.31
672.646	6.31
672.677	-19.69
672.708	-0.69
672.739	-1.69
672.77	-12.69
672.802	3.31
672.833	-11.69
672.864	-5.69
672.895	-12.69
672.926	9.31
672.957	-2.69
672.989	7.31
673.02	3.31
673.051	-2.69
673.082	7.31
673.113	-7.69
673.144	9.31
673.175	4.31
673.206	-7.69
673.238	2.31
673.269	12.31
673.3	-7.69
673.331	10.31
673.362	6.31
673.393	6.31
673.424	20.31
673.455	11.31
673.487	13.31
673.518	8.31
673.549	5.31
673.58	-4.69
673.611	3.31
673.642	-0.69
673.673	-17.69
673.704	-5.69
673.735	-15.69
673.766	-12.69
673.797	1.31
673.828	7.31
673.86	-19.69
673.891	2.31
673.922	-4.69
673.953	-5.69
673.984	3.31
674.015	6.31
674.046	11.31
674.077	0.31
674.108	-16.69
674.139	12.31
674.17	-12.69
674.201	-4.69
674.232	-12.69
674.263	-8.69
674.294	2.31
674.325	-7.69
674.356	0.31
674.387	30.31
674.418	10.31
674.449	-15.69
674.48	2.31
674.511	-7.69
674.542	4.31
674.573	-2.69
674.604	23.31
674.635	0.31
674.666	4.31
674.697	-5.69
674.728	-1.69
674.759	-1.69
674.79	-2.69
674.821	-7.69
674.852	-6.69
674.883	-3.69
674.914	-9.69
674.945	-10.69
674.976	-10.69
675.007	-22.69
675.038	-9.69
675.069	-24.69
675.1	-25.69
675.131	-12.69
675.162	-2.69
675.193	-17.69
675.224	-4.69
675.254	1.31
675.285	-1.69
675.316	9.31
675.347	-2.69
675.378	-14.69
675.409	-24.69
675.44	4.31
675.471	-2.69
675.502	-9.69
675.533	-4.69
675.564	1.31
675.595	13.31
675.625	18.31
675.656	5.31
675.687	0.31
675.718	-12.69
675.749	9.31
675.78	-7.69
675.811	-3.69
675.842	-2.69
675.873	-20.69
675.903	0.31
675.934	-11.69
675.965	-11.69
675.996	-3.69
676.027	3.31
676.058	2.31
676.089	-5.69
676.119	0.31
676.15	-7.69
676.181	0.31
676.212	6.31
676.243	2.31
676.274	-1.69
676.304	-2.69
676.335	-5.69
676.366	-1.69
676.397	2.31
676.428	-11.69
676.459	1.31
676.489	14.31
676.52	15.31
676.551	-1.69
676.582	-12.69
676.613	10.31
676.643	-10.69
676.674	5.31
676.705	10.31
676.736	0.31
676.767	15.31
676.797	11.31
676.828	0.31
676.859	-8.69
676.89	-1.69
676.92	3.31
676.951	11.31
676.982	2.31
677.013	-2.69
677.044	16.31
677.074	-0.69
677.105	-20.69
677.136	17.31
677.167	-4.69
677.197	16.31
677.228	5.31
677.259	-3.69
677.289	-5.69
677.32	-13.69
677.351	-13.69
677.382	-10.69
677.412	-5.69
677.443	16.31
677.474	-0.69
677.505	-6.69
677.535	-6.69
677.566	13.31
677.597	6.31
677.627	-16.69
677.658	-7.69
677.689	9.31
677.72	5.31
677.75	6.31
677.781	10.31
677.812	9.31
677.842	1.31
677.873	-2.69
677.904	11.31
677.934	-8.69
677.965	3.31
677.996	-4.69
678.026	6.31
678.057	-4.69
678.088	-21.69
678.118	-1.69
678.149	-11.69
678.18	-11.69
678.21	0.31
678.241	0.31
678.272	-10.69
678.302	-3.69
678.333	9.31
678.363	14.31
678.394	-0.69
678.425	16.31
678.455	0.31
678.486	5.31
678.517	-4.69
678.547	-3.69
678.578	-11.69
678.608	-20.69
678.639	7.31
678.67	-5.69
678.7	0.31
678.731	-0.69
678.761	8.31
678.792	4.31
678.823	9.31
678.853	10.31
678.884	-12.69
678.914	-7.69
678.945	7.31
678.975	-2.69
679.006	2.31
679.037	9.31
679.067	10.31
679.098	0.31
679.128	-0.69
679.159	-3.69
679.189	7.31
679.22	0.31
679.25	18.31
679.281	4.31
679.312	1.31
679.342	-0.69
679.373	11.31
679.403	9.31
679.434	12.31
679.464	1.31
679.495	-14.69
679.525	8.31
679.556	7.31
679.586	2.31
679.617	12.31
679.647	8.31
679.678	-2.69
679.708	-20.69
679.739	2.31
679.769	-0.69
679.8	-9.69
679.83	7.31
679.861	7.31
679.891	3.31
679.922	-19.69
679.952	-6.69
679.983	-3.69
680.013	3.31
680.044	-12.69
680.074	16.31
680.105	1.31
680.135	-0.69
680.165	4.31
680.196	3.31
680.226	1.31
680.257	20.31
680.287	-6.69
680.318	-6.69
680.348	-11.69
680.379	7.31
680.409	17.31
680.439	-6.69
680.47	3.31
680.5	10.31
680.531	-1.69
680.561	17.31
680.592	12.31
680.622	10.31
680.652	-4.69
680.683	19.31
680.713	-12.69
680.744	-22.69
680.774	-15.69
680.804	19.31
680.835	-6.69
680.865	-14.69
680.896	13.31
680.926	12.31
680.956	-2.69
680.987	-1.69
681.017	8.31
681.047	1.31
681.078	2.31
681.108	13.31
681.139	-0.69
681.169	-14.69
681.199	8.31
681.23	8.31
681.26	-1.69
681.29	-0.69
681.321	-7.69
681.351	-0.69
681.381	4.31
681.412	0.31
681.442	5.31
681.472	14.31
681.503	-4.69
681.533	10.31
681.563	20.31
681.594	-8.69
681.624	-7.69
681.654	-18.69
681.685	-14.69
681.715	-3.69
681.745	-1.69
681.775	0.31
681.806	-0.69
681.836	12.31
681.866	-1.69
681.897	12.31
681.927	-15.69
681.957	-22.69
681.987	4.31
682.018	-2.69
682.048	-4.69
682.078	0.31
682.109	15.31
682.139	19.31
682.169	-0.69
682.199	3.31
682.23	-16.69
682.26	18.31
682.29	-16.69
682.32	-16.69
682.351	0.31
682.381	16.31
682.411	16.31
682.441	-6.69
682.472	-14.69
682.502	-1.69
682.532	-7.69
682.562	2.31
682.592	17.31
682.623	-1.69
682.653	5.31
682.683	-5.69
682.713	-2.69
682.743	-5.69
682.774	-13.69
682.804	12.31
682.834	12.31
682.864	0.31
682.894	-5.69
682.925	-8.69
682.955	4.31
682.985	9.31
683.015	7.31
683.045	20.31
683.076	-6.69
683.106	3.31
683.136	-13.69
683.166	-4.69
683.196	-8.69
683.226	0.31
683.257	-0.69
683.287	-14.69
683.317	-6.69
683.347	-1.69
683.377	3.31
683.407	2.31
683.437	-4.69
683.468	4.31
683.498	-9.69
683.528	-3.69
683.558	-1.69
683.588	-10.69
683.618	5.31
683.648	6.31
683.678	13.31
683.708	1.31
683.739	0.31
683.769	-0.69
683.799	6.31
683.829	-10.69
683.859	0.31
683.889	-2.69
683.919	-7.69
683.949	6.31
683.979	5.31
684.009	-1.69
684.039	7.31
684.07	9.31
684.1	7.31
684.13	6.31
684.16	6.31
684.19	-7.69
684.22	-11.69
684.25	-7.69
684.28	5.31
684.31	12.31
684.34	14.31
684.37	9.31
684.4	-4.69
684.43	5.31
684.46	-11.69
684.49	3.31
684.52	1.31
684.55	13.31
684.58	-0.69
684.61	0.31
684.64	1.31
684.67	4.31
684.7	-2.69
684.73	2.31
684.76	3.31
684.79	5.31
684.82	-8.69
684.85	-20.69
684.88	-3.69
684.91	-0.69
684.94	-7.69
684.97	-7.69
685	2.31
685.03	-15.69
685.06	7.31
685.09	-4.69
685.12	2.31
685.15	9.31
685.18	8.31
685.21	0.31
685.24	-3.69
685.27	7.31
685.3	7.31
685.33	15.31
685.36	-0.69
685.39	-5.69
685.42	-2.69
685.45	-8.69
685.48	-0.69
685.51	-7.69
685.54	14.31
685.569	12.31
685.599	-0.69
685.629	3.31
685.659	-6.69
685.689	-9.69
685.719	-17.69
685.749	1.31
685.779	13.31
685.809	-3.69
685.839	-11.69
685.869	17.31
685.898	15.31
685.928	-12.69
685.958	-0.69
685.988	7.31
686.018	-1.69
686.048	-10.69
686.078	22.31
686.108	2.31
686.137	-2.69
686.167	12.31
686.197	-15.69
686.227	5.31
686.257	28.31
686.287	11.31
686.317	11.31
686.346	-5.69
686.376	-16.69
686.406	-1.69
686.436	14.31
686.466	-14.69
686.496	1.31
686.525	-8.69
686.555	4.31
686.585	4.31
686.615	17.31
686.645	13.31
686.675	-4.69
686.704	8.31
686.734	9.31
686.764	-3.69
686.794	12.31
686.824	9.31
686.853	5.31
686.883	11.31
686.913	6.31
686.943	2.31
686.973	-10.69
687.002	-2.69
687.032	10.31
687.062	-6.69
687.092	4.31
687.121	6.31
687.151	8.31
687.181	3.31
687.211	6.31
687.24	6.31
687.27	-7.69
687.3	0.31
687.33	-7.69
687.359	-16.69
687.389	-1.69
687.419	-6.69
687.449	2.31
687.478	3.31
687.508	-15.69
687.538	-1.69
687.568	-1.69
687.597	-0.69
687.627	12.31
687.657	16.31
687.686	-1.69
687.716	14.31
687.746	-15.69
687.776	-5.69
687.805	23.31
687.835	5.31
687.865	17.31
687.894	18.31
687.924	-3.69
687.954	-11.69
687.983	-0.69
688.013	19.31
688.043	4.31
688.072	8.31
688.102	18.31
688.132	5.31
688.161	0.31
688.191	-0.69
688.221	3.31
688.25	-18.69
688.28	-6.69
688.31	3.31
688.339	-8.69
688.369	-19.69
688.399	-2.69
688.428	-10.69
688.458	-0.69
688.488	-11.69
688.517	22.31
688.547	-4.69
688.576	34.31
688.606	6.31
688.636	-8.69
688.665	7.31
688.695	15.31
688.725	6.31
688.754	19.31
688.784	1.31
688.813	26.31
688.843	11.31
688.873	-11.69
688.902	-12.69
688.932	-7.69
688.961	4.31
688.991	12.31
689.02	8.31
689.05	-1.69
689.08	4.31
689.109	10.31
689.139	-3.69
689.168	7.31
689.198	-9.69
689.227	-7.69
689.257	6.31
689.287	21.31
689.316	9.31
689.346	-8.69
689.375	-4.69
689.405	-1.69
689.434	-9.69
689.464	-9.69
689.493	1.31
689.523	-4.69
689.552	-3.69
689.582	10.31
689.611	2.31
689.641	7.31
689.67	6.31
689.7	8.31
689.73	4.31
689.759	9.31
689.789	23.31
689.818	-0.69
689.848	-9.69
689.877	12.31
689.906	-4.69
689.936	-0.69
689.965	11.31
689.995	12.31
690.024	12.31
690.054	-1.69
690.083	-8.69
690.113	-4.69
690.142	13.31
690.172	-1.69
690.201	-0.69
690.231	12.31
690.26	11.31
690.29	9.31
690.319	-0.69
690.348	-1.69
690.378	2.31
690.407	3.31
690.437	4.31
690.466	3.31
690.496	7.31
690.525	11.31
690.555	1.31
690.584	5.31
690.613	-9.69
690.643	-3.69
690.672	-1.69
690.702	7.31
690.731	-9.69
690.76	20.31
690.79	-1.69
690.819	-9.69
690.849	13.31
690.878	-8.69
690.907	16.31
690.937	15.31
690.966	5.31
690.996	-4.69
691.025	-9.69
691.054	-7.69
691.084	-0.69
691.113	-7.69
691.142	23.31
691.172	9.31
691.201	8.31
691.23	0.31
691.26	12.31
691.289	5.31
691.319	0.31
691.348	-5.69
691.377	1.31
691.407	-4.69
691.436	7.31
691.465	6.31
691.495	-1.69
691.524	-10.69
691.553	-0.69
691.583	-1.69
691.612	29.31
691.641	-7.69
691.67	-13.69
691.7	4.31
691.729	-13.69
691.758	5.31
691.788	-5.69
691.817	-9.69
691.846	-4.69
691.876	16.31
691.905	2.31
691.934	5.31
691.963	8.31
691.993	7.31
692.022	-2.69
692.051	-12.69
692.081	4.31
692.11	13.31
692.139	5.31
692.168	16.31
692.198	3.31
692.227	13.31
692.256	7.31
692.285	-2.69
692.315	2.31
692.344	15.31
692.373	13.31
692.402	-16.69
692.432	-21.69
692.461	-0.69
692.49	7.31
692.519	2.31
692.548	3.31
692.578	22.31
692.607	5.31
692.636	0.31
692.665	12.31
692.694	-7.69
692.724	6.31
692.753	13.31
692.782	23.31
692.811	-6.69
692.84	-5.69
692.87	-0.69
692.899	-1.69
692.928	-10.69
692.957	2.31
692.986	13.31
693.016	-1.69
693.045	15.31
693.074	1.31
693.103	-2.69
693.132	2.31
693.161	-7.69
693.191	-0.69
693.22	-3.69
693.249	8.31
693.278	-0.69
693.307	12.31
693.336	-17.69
693.365	-8.69
693.395	-9.69
693.424	-15.69
693.453	5.31
693.482	1.31
693.511	3.31
693.54	1.31
693.569	9.31
693.598	0.31
693.628	8.31
693.657	10.31
693.686	28.31
693.715	5.31
693.744	15.31
693.773	15.31
693.802	4.31
693.831	0.31
693.86	5.31
693.889	-8.69
693.919	2.31
693.948	-11.69
693.977	7.31
694.006	-11.69
694.035	-3.69
694.064	-3.69
694.093	-6.69
694.122	-7.69
694.151	-5.69
694.18	18.31
694.209	15.31
694.238	1.31
694.267	24.31
694.296	4.31
694.325	6.31
694.354	11.31
694.383	1.31
694.412	-6.69
694.441	-11.69
694.471	-6.69
694.5	-14.69
694.529	6.31
694.558	29.31
694.587	26.31
694.616	8.31
694.645	8.31
694.674	25.31
694.703	18.31
694.732	-2.69
694.761	0.31
694.79	18.31
694.819	11.31
694.848	-0.69
694.877	20.31
694.906	20.31
694.935	15.31
694.963	26.31
694.992	9.31
695.021	0.31
695.05	-5.69
695.079	-1.69
695.108	5.31
695.137	6.31
695.166	4.31
695.195	6.31
695.224	-7.69
695.253	-2.69
695.282	2.31
695.311	-4.69
695.34	0.31
695.369	13.31
695.398	2.31
695.427	25.31
695.456	-3.69
695.485	3.31
695.513	0.31
695.542	16.31
695.571	12.31
695.6	11.31
695.629	-5.69
695.658	8.31
695.687	7.31
695.716	-8.69
695.745	-1.69
695.774	-5.69
695.802	1.31
695.831	-5.69
695.86	13.31
695.889	4.31
695.918	11.31
695.947	9.31
695.976	15.31
696.005	16.31
696.033	4.31
696.062	-2.69
696.091	-0.69
696.12	1.31
696.149	9.31
696.178	-4.69
696.207	-1.69
696.235	-5.69
696.264	13.31
696.293	3.31
696.322	7.31
696.351	15.31
696.38	11.31
696.408	13.31
696.437	-2.69
696.466	-1.69
696.495	3.31
696.524	18.31
696.553	13.31
696.581	11.31
696.61	-0.69
696.639	-10.69
696.668	8.31
696.697	13.31
696.725	4.31
696.754	2.31
696.783	-3.69
696.812	-1.69
696.84	11.31
696.869	7.31
696.898	3.31
696.927	8.31
696.956	25.31
696.984	-8.69
697.013	16.31
697.042	2.31
697.071	8.31
697.099	12.31
697.128	1.31
697.157	4.31
697.186	-5.69
697.214	-4.69
697.243	-0.69
697.272	-8.69
697.301	25.31
697.329	-0.69
697.358	-4.69
697.387	26.31
697.415	3.31
697.444	4.31
697.473	1.31
697.502	8.31
697.53	19.31
697.559	-4.69
697.588	-0.69
697.616	6.31
697.645	1.31
697.674	5.31
697.703	-1.69
697.731	11.31
697.76	13.31
697.789	2.31
697.817	4.31
697.846	18.31
697.875	-4.69
697.903	19.31
697.932	25.31
697.961	9.31
697.989	9.31
698.018	17.31
698.047	-2.69
698.075	5.31
698.104	-11.69
698.133	13.31
698.161	-0.69
698.19	5.31
698.218	0.31
698.247	10.31
698.276	-4.69
698.304	15.31
698.333	21.31
698.362	2.31
698.39	9.31
698.419	11.31
698.447	-9.69
698.476	9.31
698.505	2.31
698.533	2.31
698.562	2.31
698.591	-0.69
698.619	8.31
698.648	26.31
698.676	10.31
698.705	5.31
698.733	-11.69
698.762	-0.69
698.791	2.31
698.819	0.31
698.848	1.31
698.876	6.31
698.905	-2.69
698.933	0.31
698.962	3.31
698.991	1.31
699.019	12.31
699.048	2.31
699.076	-1.69
699.105	-7.69
699.133	3.31
699.162	3.31
699.19	12.31
699.219	3.31
699.248	12.31
699.276	-1.69
699.305	-13.69
699.333	18.31
699.362	4.31
699.39	6.31
699.419	-9.69
699.447	7.31
699.476	-0.69
699.504	-7.69
699.533	1.31
699.561	-7.69
699.59	0.31
699.618	-1.69
699.647	0.31
699.675	-7.69
699.704	-2.69
699.732	-0.69
699.761	4.31
699.789	-2.69
699.818	-3.69
699.846	2.31
699.874	0.31
699.903	-8.69
699.931	1.31
699.96	3.31
699.988	6.31
700.017	5.31
700.045	-6.69
700.074	-3.69
700.102	0.31
700.13	-7.69
700.159	3.31
700.187	9.31
700.216	7.31
700.244	22.31
700.273	7.31
700.301	17.31
700.329	20.31
700.358	23.31
700.386	3.31
700.415	-12.69
700.443	-15.69
700.472	0.31
700.5	11.31
700.528	21.31
700.557	7.31
700.585	0.31
700.614	-13.69
700.642	18.31
700.67	29.31
700.699	11.31
700.727	-3.69
700.755	3.31
700.784	3.31
700.812	-9.69
700.841	-8.69
700.869	-12.69
700.897	-36.69
700.926	-16.69
700.954	-7.69
700.982	3.31
701.011	4.31
701.039	27.31
701.067	1.31
701.096	7.31
701.124	-3.69
701.152	4.31
701.181	-7.69
701.209	-17.69
701.237	-7.69
701.266	-5.69
701.294	1.31
701.322	2.31
701.351	15.31
701.379	10.31
701.407	1.31
701.435	3.31
701.464	10.31
701.492	19.31
701.52	-20.69
701.549	0.31
701.577	-1.69
701.605	5.31
701.634	-0.69
701.662	15.31
701.69	-8.69
701.718	-10.69
701.747	10.31
701.775	4.31
701.803	-13.69
701.831	16.31
701.86	-5.69
701.888	9.31
701.916	0.31
701.944	0.31
701.973	-11.69
702.001	-6.69
702.029	-11.69
702.057	4.31
702.086	1.31
702.114	-12.69
702.142	-1.69
702.17	-29.69
702.199	-5.69
702.227	-0.69
702.255	12.31
702.283	1.31
702.311	9.31
702.34	-4.69
702.368	-7.69
702.396	0.31
702.424	9.31
702.452	13.31
702.481	-13.69
702.509	-3.69
702.537	24.31
702.565	7.31
702.593	-5.69
702.621	14.31
702.65	6.31
702.678	-8.69
702.706	11.31
702.734	-6.69
702.762	12.31
702.79	4.31
702.819	19.31
702.847	14.31
702.875	20.31
702.903	16.31
702.931	-0.69
702.959	-3.69
702.988	12.31
703.016	-7.69
703.044	-10.69
703.072	-0.69
703.1	-16.69
703.128	-4.69
703.156	-5.69
703.184	-3.69
703.212	15.31
703.241	-7.69
703.269	-0.69
703.297	11.31
703.325	-0.69
703.353	-6.69
703.381	-3.69
703.409	16.31
703.437	-6.69
703.465	14.31
703.493	-7.69
703.522	10.31
703.55	4.31
703.578	6.31
703.606	-7.69
703.634	-7.69
703.662	4.31
703.69	4.31
703.718	8.31
703.746	27.31
703.774	7.31
703.802	6.31
703.83	-4.69
703.858	-3.69
703.886	-2.69
703.914	-7.69
703.942	10.31
703.97	-14.69
703.998	-10.69
704.027	6.31
704.055	3.31
704.083	5.31
704.111	-5.69
704.139	6.31
704.167	-1.69
704.195	9.31
704.223	3.31
704.251	-16.69
704.279	-9.69
704.307	8.31
704.335	-4.69
704.363	2.31
704.391	-3.69
704.419	-0.69
704.447	-7.69
704.475	12.31
704.503	-1.69
704.531	14.31
704.558	-0.69
704.586	12.31
704.614	2.31
704.642	-6.69
704.67	-8.69
704.698	-1.69
704.726	10.31
704.754	-5.69
704.782	-14.69
704.81	-5.69
704.838	9.31
704.866	3.31
704.894	-11.69
704.922	0.31
704.95	14.31
704.978	20.31
705.006	12.31
705.034	1.31
705.061	-5.69
705.089	-1.69
705.117	-2.69
705.145	15.31
705.173	-3.69
705.201	-2.69
705.229	6.31
705.257	-0.69
705.285	0.31
705.313	27.31
705.34	10.31
705.368	-0.69
705.396	7.31
705.424	-1.69
705.452	-1.69
705.48	11.31
705.508	-13.69
705.536	-0.69
705.563	-6.69
705.591	3.31
705.619	12.31
705.647	-8.69
705.675	-2.69
705.703	-3.69
705.731	0.31
705.758	-4.69
705.786	11.31
705.814	19.31
705.842	-0.69
705.87	2.31
705.898	-1.69
705.925	0.31
705.953	9.31
705.981	-12.69
706.009	-2.69
706.037	4.31
706.065	-13.69
706.092	-9.69
706.12	-1.69
706.148	-15.69
706.176	7.31
706.204	6.31
706.231	-9.69
706.259	-12.69
706.287	-21.69
706.315	10.31
706.342	-15.69
706.37	-3.69
706.398	8.31
706.426	3.31
706.454	0.31
706.481	24.31
706.509	5.31
706.537	-2.69
706.565	-13.69
706.592	7.31
706.62	13.31
706.648	14.31
706.676	-8.69
706.703	3.31
706.731	3.31
706.759	-14.69
706.787	5.31
706.814	-6.69
706.842	-3.69
706.87	4.31
706.897	-2.69
706.925	-3.69
706.953	0.31
706.981	12.31
707.008	-0.69
707.036	-0.69
707.064	-9.69
707.091	-16.69
707.119	-4.69
707.147	-3.69
707.174	6.31
707.202	15.31
707.23	-11.69
707.258	10.31
707.285	-10.69
707.313	4.31
707.341	-3.69
707.368	7.31
707.396	-3.69
707.424	8.31
707.451	15.31
707.479	14.31
707.507	-3.69
707.534	-2.69
707.562	1.31
707.59	2.31
707.617	-10.69
707.645	-6.69
707.672	2.31
707.7	-14.69
707.728	27.31
707.755	10.31
707.783	0.31
707.811	-8.69
707.838	-6.69
707.866	-1.69
707.893	-3.69
707.921	-5.69
707.949	-1.69
707.976	-4.69
708.004	-0.69
708.031	2.31
708.059	-9.69
708.087	5.31
708.114	0.31
708.142	12.31
708.169	-6.69
708.197	-19.69
708.225	-4.69
708.252	-21.69
708.28	-0.69
708.307	-10.69
708.335	-7.69
708.362	-11.69
708.39	-23.69
708.418	-15.69
708.445	-12.69
708.473	-14.69
708.5	19.31
708.528	9.31
708.555	-8.69
708.583	1.31
708.61	-9.69
708.638	2.31
708.665	-6.69
708.693	-9.69
708.72	-9.69
708.748	-10.69
708.776	4.31
708.803	8.31
708.831	9.31
708.858	17.31
708.886	0.31
708.913	-1.69
708.941	-19.69
708.968	-4.69
708.996	-4.69
709.023	20.31
709.051	-8.69
709.078	-1.69
709.105	-0.69
709.133	-1.69
709.16	17.31
709.188	4.31
709.215	6.31
709.243	4.31
709.27	-11.69
709.298	-15.69
709.325	-3.69
709.353	-4.69
709.38	3.31
709.408	7.31
709.435	17.31
709.462	7.31
709.49	-8.69
709.517	-12.69
709.545	1.31
709.572	-2.69
709.6	-6.69
709.627	4.31
709.655	-6.69
709.682	13.31
709.709	-3.69
709.737	15.31
709.764	6.31
709.792	16.31
709.819	3.31
709.846	4.31
709.874	14.31
709.901	0.31
709.929	12.31
709.956	13.31
709.983	-5.69
710.011	15.31
710.038	-0.69
710.066	8.31
710.093	0.31
710.12	9.31
710.148	7.31
710.175	-20.69
710.202	-12.69
710.23	0.31
710.257	4.31
710.284	12.31
710.312	-5.69
710.339	10.31
710.366	15.31
710.394	6.31
710.421	8.31
710.448	12.31
710.476	-8.69
710.503	2.31
710.53	-8.69
710.558	13.31
710.585	6.31
710.612	-3.69
710.64	-12.69
710.667	-17.69
710.694	-6.69
710.722	7.31
710.749	4.31
710.776	-5.69
710.804	8.31
710.831	-5.69
710.858	4.31
710.885	-9.69
710.913	-5.69
710.94	-0.69
710.967	6.31
710.995	-4.69
711.022	-0.69
711.049	7.31
711.076	-22.69
711.104	-1.69
711.131	-17.69
711.158	9.31
711.185	9.31
711.213	-4.69
711.24	0.31
711.267	4.31
711.294	12.31
711.322	19.31
711.349	0.31
711.376	8.31
711.403	16.31
711.431	1.31
711.458	-6.69
711.485	-15.69
711.512	11.31
711.54	7.31
711.567	-13.69
711.594	-11.69
711.621	-0.69
711.648	-7.69
711.676	0.31
711.703	-3.69
711.73	-14.69
711.757	11.31
711.784	5.31
711.812	10.31
711.839	-3.69
711.866	-2.69
711.893	-8.69
711.92	16.31
711.947	10.31
711.975	11.31
712.002	-17.69
712.029	3.31
712.056	8.31
712.083	-1.69
712.11	-1.69
712.138	2.31
712.165	-1.69
712.192	-8.69
712.219	-3.69
712.246	-4.69
712.273	-6.69
712.3	-11.69
712.328	-5.69
712.355	-6.69
712.382	4.31
712.409	12.31
712.436	-8.69
712.463	-6.69
712.49	16.31
712.517	0.31
712.544	-6.69
712.572	9.31
712.599	3.31
712.626	11.31
712.653	6.31
712.68	-4.69
712.707	10.31
712.734	12.31
712.761	-12.69
712.788	13.31
712.815	12.31
712.842	2.31
712.87	4.31
712.897	-6.69
712.924	-11.69
712.951	6.31
712.978	16.31
713.005	11.31
713.032	2.31
713.059	-3.69
713.086	9.31
713.113	-12.69
713.14	-0.69
713.167	7.31
713.194	-1.69
713.221	4.31
713.248	9.31
713.275	-6.69
713.302	-9.69
713.329	2.31
713.356	1.31
713.383	10.31
713.41	19.31
713.437	-9.69
713.464	-1.69
713.491	16.31
713.518	7.31
713.545	-5.69
713.572	-3.69
713.599	3.31
713.626	-8.69
713.653	-2.69
713.68	-5.69
713.707	-0.69
713.734	15.31
713.761	-22.69
713.788	-22.69
713.815	4.31
713.842	2.31
713.869	3.31
713.896	-0.69
713.923	-5.69
713.95	4.31
713.977	-14.69
714.004	-3.69
714.031	-4.69
714.058	-11.69
714.085	-0.69
714.112	7.31
714.139	-11.69
714.165	-7.69
714.192	-11.69
714.219	5.31
714.246	19.31
714.273	8.31
714.3	-16.69
714.327	1.31
714.354	2.31
714.381	2.31
714.408	10.31
714.435	6.31
714.461	7.31
714.488	9.31
714.515	-11.69
714.542	-6.69
714.569	-6.69
714.596	2.31
714.623	9.31
714.65	-8.69
714.677	-9.69
714.703	7.31
714.73	5.31
714.757	10.31
714.784	-10.69
714.811	-6.69
714.838	5.31
714.865	-5.69
714.891	6.31
714.918	-4.69
714.945	-4.69
714.972	-10.69
714.999	-4.69
715.026	-7.69
715.052	13.31
715.079	7.31
715.106	10.31
715.133	0.31
715.16	-4.69
715.187	4.31
715.213	9.31
715.24	-5.69
715.267	-3.69
715.294	-10.69
715.321	-6.69
715.347	-3.69
715.374	-8.69
715.401	-11.69
715.428	-8.69
715.455	-8.69
715.481	-5.69
715.508	-1.69
715.535	-10.69
715.562	22.31
715.588	-3.69
715.615	-1.69
715.642	0.31
715.669	11.31
715.695	-22.69
715.722	4.31
715.749	12.31
715.776	1.31
715.802	0.31
715.829	7.31
715.856	-16.69
715.883	15.31
715.909	-13.69
715.936	1.31
715.963	-0.69
715.99	-0.69
716.016	14.31
716.043	-4.69
716.07	-11.69
716.096	-10.69
716.123	-12.69
716.15	9.31
716.177	-6.69
716.203	6.31
716.23	18.31
716.257	21.31
716.283	14.31
716.31	2.31
716.337	12.31
716.363	-1.69
716.39	7.31
716.417	13.31
716.443	-1.69
716.47	2.31
716.497	6.31
716.523	18.31
716.55	15.31
716.577	7.31
716.603	-2.69
716.63	-5.69
716.657	13.31
716.683	1.31
716.71	3.31
716.737	3.31
716.763	-11.69
716.79	-0.69
716.817	4.31
716.843	11.31
716.87	4.31
716.897	5.31
716.923	14.31
716.95	8.31
716.976	-5.69
717.003	0.31
717.03	1.31
717.056	-1.69
717.083	-26.69
717.109	-16.69
717.136	0.31
717.163	-9.69
717.189	5.31
717.216	-15.69
717.242	-16.69
717.269	-4.69
717.296	10.31
717.322	15.31
717.349	4.31
717.375	7.31
717.402	-6.69
717.428	-5.69
717.455	5.31
717.481	-0.69
717.508	16.31
717.535	4.31
717.561	-4.69
717.588	-8.69
717.614	8.31
717.641	-9.69
717.667	10.31
717.694	16.31
717.72	3.31
717.747	8.31
717.773	-4.69
717.8	29.31
717.826	1.31
717.853	4.31
717.88	-2.69
717.906	-5.69
717.933	14.31
717.959	3.31
717.986	1.31
718.012	0.31
718.039	0.31
718.065	-8.69
718.092	0.31
718.118	-5.69
718.144	-5.69
718.171	18.31
718.197	34.31
718.224	9.31
718.25	14.31
718.277	22.31
718.303	18.31
718.33	3.31
718.356	-12.69
718.383	-7.69
718.409	-1.69
718.436	-5.69
718.462	10.31
718.489	-6.69
718.515	11.31
718.541	10.31
718.568	7.31
718.594	2.31
718.621	0.31
718.647	-11.69
718.674	17.31
718.7	0.31
718.726	11.31
718.753	2.31
718.779	6.31
718.806	-3.69
718.832	-16.69
718.858	-7.69
718.885	-4.69
718.911	-6.69
718.938	5.31
718.964	-15.69
718.99	-3.69
719.017	-15.69
719.043	5.31
719.07	21.31
719.096	-16.69
719.122	7.31
719.149	10.31
719.175	8.31
719.201	2.31
719.228	-7.69
719.254	2.31
719.281	2.31
719.307	-4.69
719.333	-4.69
719.36	5.31
719.386	-7.69
719.412	14.31
719.439	-11.69
719.465	3.31
719.491	8.31
719.518	-2.69
719.544	-3.69
719.57	12.31
719.597	19.31
719.623	7.31
719.649	-7.69
719.675	10.31
719.702	-1.69
719.728	7.31
719.754	-1.69
719.781	6.31
719.807	3.31
719.833	-8.69
719.86	5.31
719.886	2.31
719.912	0.31
719.938	4.31
719.965	-8.69
719.991	6.31
720.017	0.31
720.044	-0.69
720.07	-11.69
720.096	0.31
720.122	-3.69
720.149	1.31
720.175	25.31
720.201	8.31
720.227	-3.69
720.254	3.31
720.28	-3.69
720.306	-21.69
720.332	4.31
720.359	-7.69
720.385	6.31
720.411	12.31
720.437	15.31
720.463	12.31
720.49	12.31
720.516	-3.69
720.542	-10.69
720.568	-0.69
720.595	17.31
720.621	5.31
720.647	2.31
720.673	16.31
720.699	0.31
720.725	16.31
720.752	22.31
720.778	8.31
720.804	21.31
720.83	16.31
720.856	3.31
720.883	1.31
720.909	8.31
720.935	15.31
720.961	9.31
720.987	3.31
721.013	2.31
721.04	1.31
721.066	-0.69
721.092	-1.69
721.118	0.31
721.144	-11.69
721.17	-16.69
721.196	2.31
721.223	-14.69
721.249	-12.69
721.275	10.31
721.301	-5.69
721.327	2.31
721.353	7.31
721.379	16.31
721.405	10.31
721.432	10.31
721.458	7.31
721.484	7.31
721.51	-7.69
721.536	2.31
721.562	2.31
721.588	11.31
721.614	3.31
721.64	-2.69
721.666	-9.69
721.693	-0.69
721.719	0.31
721.745	-20.69
721.771	-1.69
721.797	0.31
721.823	-2.69
721.849	15.31
721.875	11.31
721.901	3.31
721.927	9.31
721.953	3.31
721.979	11.31
722.005	7.31
722.031	-4.69
722.057	19.31
722.083	11.31
722.109	9.31
722.135	6.31
722.161	-0.69
722.187	-2.69
722.214	-4.69
722.24	-3.69
722.266	-20.69
722.292	4.31
722.318	3.31
722.344	7.31
722.37	5.31
722.396	9.31
722.422	-5.69
722.448	-1.69
722.474	-14.69
722.5	21.31
722.526	14.31
722.552	-1.69
722.578	5.31
722.603	12.31
722.629	-11.69
722.655	-5.69
722.681	-16.69
722.707	9.31
722.733	0.31
722.759	-4.69
722.785	-9.69
722.811	4.31
722.837	2.31
722.863	15.31
722.889	19.31
722.915	-2.69
722.941	-4.69
722.967	-3.69
722.993	13.31
723.019	4.31
723.045	18.31
723.071	6.31
723.097	4.31
723.122	5.31
723.148	-11.69
723.174	-1.69
723.2	-7.69
723.226	-4.69
723.252	6.31
723.278	-6.69
723.304	-4.69
723.33	14.31
723.356	-1.69
723.381	-12.69
723.407	-8.69
723.433	-1.69
723.459	-6.69
723.485	9.31
723.511	2.31
723.537	-0.69
723.563	-4.69
723.588	4.31
723.614	19.31
723.64	-0.69
723.666	0.31
723.692	17.31
723.718	-7.69
723.744	-5.69
723.769	-21.69
723.795	-3.69
723.821	8.31
723.847	-4.69
723.873	-3.69
723.899	7.31
723.924	6.31
723.95	3.31
723.976	-0.69
724.002	19.31
724.028	-6.69
724.053	-7.69
724.079	2.31
724.105	-13.69
724.131	4.31
724.157	6.31
724.182	10.31
724.208	8.31
724.234	11.31
724.26	11.31
724.286	6.31
724.311	-0.69
724.337	-20.69
724.363	-7.69
724.389	22.31
724.415	-3.69
724.44	28.31
724.466	8.31
724.492	-1.69
724.518	3.31
724.543	-3.69
724.569	-0.69
724.595	7.31
724.621	10.31
724.646	3.31
724.672	1.31
724.698	-8.69
724.723	-2.69
724.749	-7.69
724.775	-4.69
724.801	-3.69
724.826	-4.69
724.852	-11.69
724.878	-3.69
724.904	-15.69
724.929	6.31
724.955	-4.69
724.981	2.31
725.006	-9.69
725.032	-6.69
725.058	16.31
725.083	-8.69
725.109	-12.69
725.135	0.31
725.161	-10.69
725.186	6.31
725.212	-2.69
725.238	7.31
725.263	2.31
725.289	-15.69
725.315	-12.69
725.34	2.31
725.366	-6.69
725.392	-8.69
725.417	7.31
725.443	-15.69
725.468	22.31
725.494	16.31
725.52	23.31
725.545	13.31
725.571	-5.69
725.597	-0.69
725.622	-0.69
725.648	-8.69
725.674	-0.69
725.699	13.31
725.725	-3.69
725.75	15.31
725.776	-16.69
725.802	-3.69
725.827	3.31
725.853	8.31
725.878	15.31
725.904	3.31
725.93	-5.69
725.955	-4.69
725.981	-13.69
726.006	6.31
726.032	12.31
726.057	-8.69
726.083	-9.69
726.109	7.31
726.134	12.31
726.16	6.31
726.185	2.31
726.211	-3.69
726.236	2.31
726.262	-8.69
726.288	-3.69
726.313	6.31
726.339	-4.69
726.364	9.31
726.39	-1.69
726.415	-1.69
726.441	4.31
726.466	7.31
726.492	-0.69
726.517	0.31
726.543	2.31
726.568	-4.69
726.594	0.31
726.619	-11.69
726.645	-3.69
726.67	-6.69
726.696	-12.69
726.721	-17.69
726.747	-2.69
726.772	1.31
726.798	-3.69
726.823	11.31
726.849	-4.69
726.874	3.31
726.9	13.31
726.925	3.31
726.951	16.31
726.976	18.31
727.002	9.31
727.027	-2.69
727.053	-0.69
727.078	-9.69
727.104	-0.69
727.129	-8.69
727.155	-6.69
727.18	15.31
727.205	2.31
727.231	-1.69
727.256	-0.69
727.282	5.31
727.307	3.31
727.333	8.31
727.358	-15.69
727.383	-8.69
727.409	-13.69
727.434	-8.69
727.46	-4.69
727.485	-12.69
727.511	0.31
727.536	-4.69
727.561	-4.69
727.587	-1.69
727.612	-0.69
727.637	-16.69
727.663	0.31
727.688	7.31
727.714	-6.69
727.739	-15.69
727.764	-3.69
727.79	-5.69
727.815	0.31
727.841	-2.69
727.866	10.31
727.891	-0.69
727.917	-8.69
727.942	-8.69
727.967	-2.69
727.993	-15.69
728.018	-1.69
728.043	-8.69
728.069	7.31
728.094	7.31
728.119	-0.69
728.145	8.31
728.17	5.31
728.195	12.31
728.221	11.31
728.246	-5.69
728.271	-11.69
728.297	-4.69
728.322	0.31
728.347	7.31
728.373	9.31
728.398	12.31
728.423	-7.69
728.448	2.31
728.474	-4.69
728.499	17.31
728.524	-9.69
728.55	-11.69
728.575	-8.69
728.6	10.31
728.625	10.31
728.651	0.31
728.676	1.31
728.701	-11.69
728.727	4.31
728.752	-10.69
728.777	-6.69
728.802	13.31
728.828	7.31
728.853	-6.69
728.878	-2.69
728.903	-5.69
728.929	-8.69
728.954	-14.69
728.979	-2.69
729.004	-11.69
729.03	-16.69
729.055	-2.69
729.08	-4.69
729.105	-13.69
729.13	17.31
729.156	-5.69
729.181	-1.69
729.206	-10.69
729.231	-6.69
729.256	3.31
729.282	0.31
729.307	-7.69
729.332	-13.69
729.357	0.31
729.382	10.31
729.408	-10.69
729.433	0.31
729.458	-14.69
729.483	5.31
729.508	17.31
729.533	17.31
729.559	22.31
729.584	-4.69
729.609	-3.69
729.634	1.31
729.659	-7.69
729.684	-10.69
729.71	5.31
729.735	-0.69
729.76	0.31
729.785	0.31
729.81	-0.69
729.835	-1.69
729.86	-20.69
729.886	7.31
729.911	4.31
729.936	6.31
729.961	8.31
729.986	-5.69
730.011	14.31
730.036	-0.69
730.061	-0.69
730.086	5.31
730.112	-1.69
730.137	22.31
730.162	5.31
730.187	-13.69
730.212	-8.69
730.237	-12.69
730.262	-1.69
730.287	-0.69
730.312	12.31
730.337	0.31
730.362	10.31
730.387	-5.69
730.413	11.31
730.438	-15.69
730.463	-5.69
730.488	-16.69
730.513	-6.69
730.538	5.31
730.563	22.31
730.588	3.31
730.613	10.31
730.638	-0.69
730.663	-7.69
730.688	3.31
730.713	11.31
730.738	13.31
730.763	0.31
730.788	-15.69
730.813	-4.69
730.838	-4.69
730.863	-13.69
730.888	-8.69
730.913	-13.69
730.938	-11.69
730.963	-6.69
730.988	3.31
731.013	6.31
731.038	-3.69
731.063	-12.69
731.088	-0.69
731.113	-2.69
731.138	-7.69
731.163	-1.69
731.188	-3.69
731.213	12.31
731.238	4.31
731.263	-14.69
731.288	-0.69
731.313	6.31
731.338	4.31
731.363	-1.69
731.388	11.31
731.413	10.31
731.438	24.31
731.463	3.31
731.487	6.31
731.512	2.31
731.537	-0.69
731.562	0.31
731.587	-8.69
731.612	-9.69
731.637	-7.69
731.662	-10.69
731.687	7.31
731.712	-13.69
731.737	-5.69
731.762	-1.69
731.786	4.31
731.811	-4.69
731.836	2.31
731.861	-5.69
731.886	-9.69
731.911	-5.69
731.936	3.31
731.961	-7.69
731.986	-9.69
732.01	4.31
732.035	8.31
732.06	6.31
732.085	-0.69
732.11	-11.69
732.135	-19.69
732.16	11.31
732.184	-0.69
732.209	4.31
732.234	2.31
732.259	-24.69
732.284	-7.69
732.309	-5.69
732.334	-13.69
732.358	-8.69
732.383	-4.69
732.408	-0.69
732.433	7.31
732.458	-11.69
732.482	-0.69
732.507	-7.69
732.532	10.31
732.557	3.31
732.582	-0.69
732.607	-5.69
732.631	-14.69
732.656	-7.69
732.681	-11.69
732.706	-6.69
732.73	8.31
732.755	5.31
732.78	-3.69
732.805	-11.69
732.83	6.31
732.854	-5.69
732.879	4.31
732.904	-4.69
732.929	-17.69
732.953	0.31
732.978	-0.69
733.003	-13.69
733.028	-11.69
733.052	-3.69
733.077	-9.69
733.102	-1.69
733.127	-15.69
733.151	-8.69
733.176	-8.69
733.201	-8.69
733.226	-9.69
733.25	8.31
733.275	-8.69
733.3	-2.69
733.324	13.31
733.349	3.31
733.374	-1.69
733.399	-11.69
733.423	2.31
733.448	-0.69
733.473	-5.69
733.497	-8.69
733.522	-4.69
733.547	-2.69
733.571	24.31
733.596	3.31
733.621	3.31
733.646	3.31
733.67	4.31
733.695	5.31
733.72	10.31
733.744	11.31
733.769	5.31
733.794	1.31
733.818	-4.69
733.843	-15.69
733.867	-12.69
733.892	-11.69
733.917	-14.69
733.941	7.31
733.966	4.31
733.991	2.31
734.015	12.31
734.04	3.31
734.065	2.31
734.089	12.31
734.114	0.31
734.138	-5.69
734.163	0.31
734.188	9.31
734.212	3.31
734.237	2.31
734.261	-3.69
734.286	1.31
734.311	-1.69
734.335	7.31
734.36	14.31
734.384	2.31
734.409	4.31
734.434	-1.69
734.458	8.31
734.483	-7.69
734.507	-16.69
734.532	-10.69
734.556	-0.69
734.581	3.31
734.606	9.31
734.63	-14.69
734.655	1.31
734.679	2.31
734.704	-4.69
734.728	-1.69
734.753	-9.69
734.777	-5.69
734.802	-0.69
734.826	1.31
734.851	-7.69
734.876	12.31
734.9	14.31
734.925	11.31
734.949	-5.69
734.974	-15.69
734.998	8.31
735.023	-12.69
735.047	-9.69
735.072	20.31
735.096	8.31
735.121	-2.69
735.145	1.31
735.17	-4.69
735.194	17.31
735.219	-0.69
735.243	-0.69
735.268	3.31
735.292	2.31
735.317	9.31
735.341	6.31
735.365	-19.69
735.39	-5.69
735.414	4.31
735.439	18.31
735.463	-1.69
735.488	10.31
735.512	6.31
735.537	-2.69
735.561	8.31
735.586	1.31
735.61	-5.69
735.634	3.31
735.659	-5.69
735.683	9.31
735.708	5.31
735.732	-15.69
735.757	-6.69
735.781	0.31
735.805	12.31
735.83	-10.69
735.854	-1.69
735.879	1.31
735.903	14.31
735.927	-0.69
735.952	0.31
735.976	-11.69
736.001	-9.69
736.025	-6.69
736.049	-9.69
736.074	3.31
736.098	-2.69
736.123	-4.69
736.147	-10.69
736.171	-13.69
736.196	5.31
736.22	5.31
736.244	-9.69
736.269	-8.69
736.293	4.31
736.317	-10.69
736.342	9.31
736.366	15.31
736.39	-4.69
736.415	-5.69
736.439	-6.69
736.463	8.31
736.488	20.31
736.512	8.31
736.536	6.31
736.561	19.31
736.585	-9.69
736.609	16.31
736.634	-1.69
736.658	5.31
736.682	-12.69
736.707	-8.69
736.731	-18.69
736.755	3.31
736.78	10.31
736.804	19.31
736.828	-1.69
736.852	-1.69
736.877	1.31
736.901	5.31
736.925	-0.69
736.949	-5.69
736.974	-2.69
736.998	-0.69
737.022	-6.69
737.047	-15.69
737.071	-4.69
737.095	10.31
737.119	26.31
737.144	7.31
737.168	-1.69
737.192	0.31
737.216	14.31
737.241	-8.69
737.265	-6.69
737.289	4.31
737.313	-8.69
737.337	8.31
737.362	8.31
737.386	3.31
737.41	-10.69
737.434	14.31
737.459	6.31
737.483	5.31
737.507	15.31
737.531	11.31
737.555	-9.69
737.58	-5.69
737.604	3.31
737.628	-13.69
737.652	-8.69
737.676	-4.69
737.701	-4.69
737.725	1.31
737.749	5.31
737.773	-9.69
737.797	-8.69
737.821	3.31
737.846	6.31
737.87	16.31
737.894	-0.69
737.918	-5.69
737.942	-11.69
737.966	12.31
737.99	16.31
738.015	2.31
738.039	22.31
738.063	3.31
738.087	-5.69
738.111	-4.69
738.135	4.31
738.159	6.31
738.184	9.31
738.208	4.31
738.232	3.31
738.256	2.31
738.28	13.31
738.304	8.31
738.328	-4.69
738.352	1.31
738.376	23.31
738.4	1.31
738.425	16.31
738.449	-7.69
738.473	19.31
738.497	4.31
738.521	6.31
738.545	2.31
738.569	7.31
738.593	22.31
738.617	11.31
738.641	2.31
738.665	-3.69
738.689	5.31
738.713	6.31
738.737	0.31
738.762	5.31
738.786	4.31
738.81	-22.69
738.834	-11.69
738.858	-12.69
738.882	10.31
738.906	5.31
738.93	0.31
738.954	-5.69
738.978	2.31
739.002	-10.69
739.026	11.31
739.05	7.31
739.074	-5.69
739.098	12.31
739.122	11.31
739.146	5.31
739.17	-3.69
739.194	11.31
739.218	9.31
739.242	-11.69
739.266	-8.69
739.29	8.31
739.314	-4.69
739.338	8.31
739.362	11.31
739.386	-0.69
739.41	-10.69
739.434	-17.69
739.458	19.31
739.482	11.31
739.506	13.31
739.53	3.31
739.554	-4.69
739.577	2.31
739.601	15.31
739.625	-9.69
739.649	1.31
739.673	-5.69
739.697	-5.69
739.721	-13.69
739.745	5.31
739.769	-0.69
739.793	-5.69
739.817	4.31
739.841	-2.69
739.865	1.31
739.889	0.31
739.912	14.31
739.936	5.31
739.96	6.31
739.984	10.31
740.008	6.31
740.032	-5.69
740.056	-4.69
740.08	5.31
740.104	-12.69
740.127	5.31
740.151	-1.69
740.175	23.31
740.199	6.31
740.223	38.31
740.247	22.31
740.271	-4.69
740.295	-4.69
740.318	-4.69
740.342	-7.69
740.366	5.31
740.39	12.31
740.414	1.31
740.438	-5.69
740.461	19.31
740.485	8.31
740.509	-12.69
740.533	10.31
740.557	-4.69
740.581	-9.69
740.604	-12.69
740.628	5.31
740.652	6.31
740.676	-12.69
740.7	8.31
740.723	-7.69
740.747	-8.69
740.771	0.31
740.795	-9.69
740.819	9.31
740.842	-6.69
740.866	8.31
740.89	8.31
740.914	3.31
740.938	-11.69
740.961	11.31
740.985	5.31
741.009	-3.69
741.033	13.31
741.056	16.31
741.08	-7.69
741.104	-10.69
741.128	0.31
741.151	8.31
741.175	3.31
741.199	3.31
741.223	11.31
741.246	-11.69
741.27	9.31
741.294	12.31
741.318	0.31
741.341	-7.69
741.365	-5.69
741.389	-4.69
741.413	-5.69
741.436	19.31
741.46	-5.69
741.484	9.31
741.507	0.31
741.531	15.31
741.555	3.31
741.579	-5.69
741.602	10.31
741.626	18.31
741.65	0.31
741.673	-3.69
741.697	17.31
741.721	0.31
741.744	-18.69
741.768	2.31
741.792	1.31
741.815	-9.69
741.839	22.31
741.863	4.31
741.886	6.31
741.91	20.31
741.934	9.31
741.957	-4.69
741.981	20.31
742.005	-5.69
742.028	-6.69
742.052	-10.69
742.075	3.31
742.099	-3.69
742.123	-4.69
742.146	3.31
742.17	6.31
742.194	-5.69
742.217	-19.69
742.241	0.31
742.264	-0.69
742.288	18.31
742.312	11.31
742.335	-12.69
742.359	-3.69
742.382	2.31
742.406	1.31
742.43	-4.69
742.453	14.31
742.477	-4.69
742.5	7.31
742.524	3.31
742.548	1.31
742.571	-1.69
742.595	-6.69
742.618	1.31
742.642	-15.69
742.665	14.31
742.689	-1.69
742.712	5.31
742.736	6.31
742.76	2.31
742.783	6.31
742.807	0.31
742.83	15.31
742.854	-8.69
742.877	11.31
742.901	-1.69
742.924	-19.69
742.948	10.31
742.971	1.31
742.995	-0.69
743.018	-9.69
743.042	-1.69
743.065	-8.69
743.089	-5.69
743.112	-2.69
743.136	-10.69
743.159	-6.69
743.183	-4.69
743.206	-15.69
743.23	-1.69
743.253	4.31
743.277	10.31
743.3	-0.69
743.324	1.31
743.347	-3.69
743.371	10.31
743.394	15.31
743.418	18.31
743.441	8.31
743.465	13.31
743.488	20.31
743.512	-14.69
743.535	1.31
743.558	-9.69
743.582	-4.69
743.605	-0.69
743.629	7.31
743.652	0.31
743.676	-15.69
743.699	3.31
743.723	-0.69
743.746	4.31
743.769	-5.69
743.793	1.31
743.816	15.31
743.84	11.31
743.863	-13.69
743.886	4.31
743.91	6.31
743.933	3.31
743.957	6.31
743.98	4.31
744.003	15.31
744.027	5.31
744.05	-12.69
744.074	-4.69
744.097	-19.69
744.12	-0.69
744.144	-10.69
744.167	10.31
744.19	4.31
744.214	-9.69
744.237	-12.69
744.26	4.31
744.284	-3.69
744.307	-9.69
744.331	-2.69
744.354	-23.69
744.377	-5.69
744.401	13.31
744.424	-6.69
744.447	-23.69
744.471	-13.69
