Data from HighRes_H2_15_09_11_07_2024_HR4C61891__79__15-11-04-302.txt Node

Date: Thu Nov 07 15:11:04 EST 2024
User: crc00042
Spectrometer: HR4C6189
Trigger mode: 4
Integration Time (sec): 1.000000E-1
Scans to average: 1
Electric dark correction enabled: true
Nonlinearity correction enabled: false
Boxcar width: 0
XAxis mode: Wavelengths
Number of Pixels in Spectrum: 3648
>>>>>Begin Spectral Data<<<<<
639.567	-48.31
639.602	-48.31
639.636	-48.31
639.67	-53.31
639.704	-11.31
639.738	-1.31
639.773	6.69
639.807	-23.31
639.841	3.69
639.875	29.69
639.909	-2.31
639.943	-9.31
639.978	6.69
640.012	3.69
640.046	7.69
640.08	-0.31
640.114	-8.31
640.148	-13.31
640.182	1.69
640.217	-19.31
640.251	7.69
640.285	-5.31
640.319	-3.31
640.353	2.69
640.387	11.69
640.421	1.69
640.455	4.69
640.49	-3.31
640.524	-3.31
640.558	-12.31
640.592	-0.31
640.626	-3.31
640.66	8.69
640.694	-5.31
640.728	4.69
640.762	1.69
640.796	8.69
640.83	16.69
640.865	-7.31
640.899	-3.31
640.933	-11.31
640.967	-3.31
641.001	5.69
641.035	6.69
641.069	1.69
641.103	-11.31
641.137	5.69
641.171	2.69
641.205	10.69
641.239	8.69
641.273	8.69
641.307	3.69
641.341	-7.31
641.375	-0.31
641.409	-22.31
641.443	-2.31
641.477	6.69
641.511	4.69
641.545	4.69
641.579	5.69
641.614	19.69
641.648	2.69
641.682	-6.31
641.716	-5.31
641.75	8.69
641.784	-2.31
641.818	-6.31
641.852	2.69
641.886	-16.31
641.919	10.69
641.953	0.69
641.987	-14.31
642.021	-8.31
642.055	19.69
642.089	32.69
642.123	-8.31
642.157	6.69
642.191	-10.31
642.225	11.69
642.259	7.69
642.293	11.69
642.327	4.69
642.361	-2.31
642.395	17.69
642.429	9.69
642.463	19.69
642.497	8.69
642.531	-8.31
642.565	-16.31
642.599	5.69
642.633	2.69
642.666	11.69
642.7	24.69
642.734	20.69
642.768	1.69
642.802	3.69
642.836	10.69
642.87	2.69
642.904	17.69
642.938	10.69
642.972	-2.31
643.005	3.69
643.039	15.69
643.073	-2.31
643.107	11.69
643.141	8.69
643.175	3.69
643.209	-9.31
643.243	-2.31
643.276	10.69
643.31	2.69
643.344	0.69
643.378	7.69
643.412	28.69
643.446	6.69
643.48	20.69
643.513	7.69
643.547	5.69
643.581	1.69
643.615	-2.31
643.649	9.69
643.683	6.69
643.716	-1.31
643.75	13.69
643.784	-5.31
643.818	-6.31
643.852	-5.31
643.886	-0.31
643.919	6.69
643.953	3.69
643.987	-3.31
644.021	4.69
644.055	1.69
644.088	-14.31
644.122	1.69
644.156	-15.31
644.19	-8.31
644.224	7.69
644.257	18.69
644.291	23.69
644.325	-4.31
644.359	-1.31
644.392	19.69
644.426	25.69
644.46	-5.31
644.494	0.69
644.527	-11.31
644.561	9.69
644.595	4.69
644.629	-0.31
644.662	-0.31
644.696	15.69
644.73	8.69
644.764	10.69
644.797	-0.31
644.831	-0.31
644.865	26.69
644.899	5.69
644.932	19.69
644.966	8.69
645	13.69
645.033	2.69
645.067	-8.31
645.101	5.69
645.135	11.69
645.168	3.69
645.202	-15.31
645.236	-0.31
645.269	1.69
645.303	-12.31
645.337	-6.31
645.37	-5.31
645.404	-15.31
645.438	-0.31
645.471	-2.31
645.505	11.69
645.539	15.69
645.572	-15.31
645.606	3.69
645.64	16.69
645.673	2.69
645.707	22.69
645.741	4.69
645.774	0.69
645.808	10.69
645.842	-3.31
645.875	9.69
645.909	-7.31
645.943	-0.31
645.976	-7.31
646.01	-7.31
646.043	11.69
646.077	3.69
646.111	11.69
646.144	0.69
646.178	6.69
646.212	-31.31
646.245	6.69
646.279	28.69
646.312	11.69
646.346	2.69
646.38	-5.31
646.413	9.69
646.447	18.69
646.48	-4.31
646.514	14.69
646.547	1.69
646.581	4.69
646.615	-8.31
646.648	-13.31
646.682	3.69
646.715	7.69
646.749	-0.31
646.782	-9.31
646.816	-4.31
646.85	-0.31
646.883	-12.31
646.917	3.69
646.95	-9.31
646.984	2.69
647.017	15.69
647.051	6.69
647.084	-3.31
647.118	-22.31
647.151	-1.31
647.185	11.69
647.218	-3.31
647.252	-4.31
647.285	-15.31
647.319	-4.31
647.353	6.69
647.386	7.69
647.42	-8.31
647.453	-2.31
647.487	4.69
647.52	9.69
647.553	6.69
647.587	4.69
647.62	-1.31
647.654	10.69
647.687	3.69
647.721	4.69
647.754	6.69
647.788	5.69
647.821	-1.31
647.855	3.69
647.888	0.69
647.922	6.69
647.955	-1.31
647.989	-3.31
648.022	12.69
648.055	10.69
648.089	-0.31
648.122	10.69
648.156	-3.31
648.189	0.69
648.223	2.69
648.256	17.69
648.29	15.69
648.323	6.69
648.356	2.69
648.39	4.69
648.423	3.69
648.457	7.69
648.49	8.69
648.523	-3.31
648.557	10.69
648.59	11.69
648.624	4.69
648.657	2.69
648.69	19.69
648.724	14.69
648.757	22.69
648.791	10.69
648.824	9.69
648.857	18.69
648.891	-6.31
648.924	-0.31
648.957	14.69
648.991	-15.31
649.024	6.69
649.057	-0.31
649.091	-4.31
649.124	13.69
649.158	22.69
649.191	34.69
649.224	0.69
649.258	15.69
649.291	4.69
649.324	3.69
649.358	0.69
649.391	4.69
649.424	8.69
649.458	0.69
649.491	-14.31
649.524	-13.31
649.557	-8.31
649.591	-22.31
649.624	15.69
649.657	-3.31
649.691	4.69
649.724	1.69
649.757	4.69
649.791	-10.31
649.824	-2.31
649.857	7.69
649.89	1.69
649.924	-23.31
649.957	-8.31
649.99	-0.31
650.023	5.69
650.057	2.69
650.09	6.69
650.123	6.69
650.157	6.69
650.19	13.69
650.223	1.69
650.256	-9.31
650.29	8.69
650.323	5.69
650.356	4.69
650.389	-11.31
650.423	2.69
650.456	11.69
650.489	13.69
650.522	2.69
650.555	7.69
650.589	13.69
650.622	-4.31
650.655	6.69
650.688	-0.31
650.721	-10.31
650.755	-12.31
650.788	16.69
650.821	2.69
650.854	15.69
650.887	10.69
650.921	-12.31
650.954	-5.31
650.987	-1.31
651.02	-10.31
651.053	-0.31
651.087	-5.31
651.12	18.69
651.153	19.69
651.186	15.69
651.219	-12.31
651.252	7.69
651.286	4.69
651.319	1.69
651.352	-4.31
651.385	1.69
651.418	-0.31
651.451	8.69
651.484	16.69
651.518	-2.31
651.551	4.69
651.584	-7.31
651.617	12.69
651.65	20.69
651.683	8.69
651.716	12.69
651.749	-11.31
651.783	0.69
651.816	-4.31
651.849	7.69
651.882	5.69
651.915	-11.31
651.948	0.69
651.981	-13.31
652.014	-19.31
652.047	-4.31
652.08	-10.31
652.114	2.69
652.147	-5.31
652.18	4.69
652.213	14.69
652.246	-0.31
652.279	-8.31
652.312	12.69
652.345	5.69
652.378	-2.31
652.411	3.69
652.444	3.69
652.477	4.69
652.51	-4.31
652.543	-12.31
652.576	-4.31
652.609	-11.31
652.642	-1.31
652.675	9.69
652.709	-11.31
652.742	-1.31
652.775	-14.31
652.808	18.69
652.841	-0.31
652.874	-1.31
652.907	7.69
652.94	5.69
652.973	-13.31
653.006	-16.31
653.039	3.69
653.072	-0.31
653.105	8.69
653.138	-16.31
653.171	-7.31
653.204	-3.31
653.237	17.69
653.27	-5.31
653.303	1.69
653.336	16.69
653.368	7.69
653.401	10.69
653.434	-5.31
653.467	3.69
653.5	-9.31
653.533	8.69
653.566	-2.31
653.599	5.69
653.632	6.69
653.665	-8.31
653.698	-10.31
653.731	-24.31
653.764	-2.31
653.797	-12.31
653.83	7.69
653.863	20.69
653.896	2.69
653.929	-8.31
653.961	-1.31
653.994	3.69
654.027	1.69
654.06	8.69
654.093	4.69
654.126	5.69
654.159	-5.31
654.192	-4.31
654.225	8.69
654.258	8.69
654.29	4.69
654.323	8.69
654.356	-13.31
654.389	-10.31
654.422	0.69
654.455	-3.31
654.488	-15.31
654.521	-12.31
654.553	-12.31
654.586	8.69
654.619	2.69
654.652	0.69
654.685	1.69
654.718	17.69
654.751	6.69
654.783	-5.31
654.816	6.69
654.849	4.69
654.882	-4.31
654.915	-13.31
654.948	7.69
654.98	7.69
655.013	-2.31
655.046	9.69
655.079	-1.31
655.112	2.69
655.144	-8.31
655.177	12.69
655.21	13.69
655.243	20.69
655.276	4.69
655.308	-4.31
655.341	-15.31
655.374	7.69
655.407	12.69
655.44	5.69
655.472	12.69
655.505	12.69
655.538	16.69
655.571	16.69
655.603	5.69
655.636	8.69
655.669	22.69
655.702	18.69
655.734	10.69
655.767	18.69
655.8	33.69
655.833	24.69
655.865	4.69
655.898	31.69
655.931	25.69
655.964	53.69
655.996	32.69
656.029	73.69
656.062	49.69
656.095	48.69
656.127	64.69
656.16	109.69
656.193	124.69
656.225	166.69
656.258	252.69
656.291	465.69
656.324	1099.69
656.356	3353.69
656.389	7522.69
656.422	5949.69
656.454	2047.69
656.487	668.69
656.52	269.69
656.552	122.69
656.585	74.69
656.618	60.69
656.65	49.69
656.683	18.69
656.716	10.69
656.748	1.69
656.781	8.69
656.814	-0.31
656.846	-3.31
656.879	-7.31
656.912	-2.31
656.944	-26.31
656.977	-22.31
657.01	-1.31
657.042	13.69
657.075	17.69
657.108	5.69
657.14	17.69
657.173	4.69
657.205	17.69
657.238	8.69
657.271	3.69
657.303	-8.31
657.336	11.69
657.369	7.69
657.401	5.69
657.434	1.69
657.466	10.69
657.499	11.69
657.532	0.69
657.564	7.69
657.597	7.69
657.629	4.69
657.662	-1.31
657.694	7.69
657.727	-14.31
657.76	2.69
657.792	-10.31
657.825	2.69
657.857	-2.31
657.89	1.69
657.922	18.69
657.955	-12.31
657.987	-4.31
658.02	18.69
658.053	16.69
658.085	2.69
658.118	1.69
658.15	12.69
658.183	21.69
658.215	8.69
658.248	-0.31
658.28	-8.31
658.313	15.69
658.345	22.69
658.378	9.69
658.41	1.69
658.443	14.69
658.475	7.69
658.508	4.69
658.54	-14.31
658.573	0.69
658.605	-6.31
658.638	-11.31
658.67	-4.31
658.703	0.69
658.735	-9.31
658.768	2.69
658.8	-1.31
658.833	37.69
658.865	2.69
658.898	-0.31
658.93	-2.31
658.963	5.69
658.995	-11.31
659.028	-5.31
659.06	-4.31
659.092	7.69
659.125	-0.31
659.157	22.69
659.19	-18.31
659.222	2.69
659.255	9.69
659.287	5.69
659.32	11.69
659.352	10.69
659.384	6.69
659.417	2.69
659.449	-11.31
659.482	2.69
659.514	-8.31
659.546	4.69
659.579	-1.31
659.611	0.69
659.644	2.69
659.676	-17.31
659.708	-9.31
659.741	-16.31
659.773	13.69
659.806	-12.31
659.838	-3.31
659.87	3.69
659.903	7.69
659.935	3.69
659.967	5.69
660	8.69
660.032	-17.31
660.065	15.69
660.097	15.69
660.129	0.69
660.162	-2.31
660.194	-0.31
660.226	-8.31
660.259	0.69
660.291	1.69
660.323	10.69
660.356	8.69
660.388	-11.31
660.42	2.69
660.453	13.69
660.485	18.69
660.517	14.69
660.55	-6.31
660.582	-11.31
660.614	-5.31
660.647	-6.31
660.679	1.69
660.711	-12.31
660.743	-11.31
660.776	7.69
660.808	0.69
660.84	-4.31
660.873	8.69
660.905	-4.31
660.937	-12.31
660.969	-6.31
661.002	-1.31
661.034	9.69
661.066	-0.31
661.099	19.69
661.131	9.69
661.163	-5.31
661.195	3.69
661.228	-0.31
661.26	-8.31
661.292	-15.31
661.324	-4.31
661.357	10.69
661.389	9.69
661.421	4.69
661.453	-0.31
661.485	0.69
661.518	0.69
661.55	-25.31
661.582	-18.31
661.614	-11.31
661.647	13.69
661.679	3.69
661.711	6.69
661.743	-12.31
661.775	5.69
661.808	31.69
661.84	-5.31
661.872	12.69
661.904	-5.31
661.936	4.69
661.969	-22.31
662.001	-7.31
662.033	0.69
662.065	9.69
662.097	9.69
662.129	0.69
662.162	-20.31
662.194	-0.31
662.226	4.69
662.258	14.69
662.29	-1.31
662.322	-20.31
662.355	-4.31
662.387	9.69
662.419	2.69
662.451	14.69
662.483	-2.31
662.515	-19.31
662.547	2.69
662.58	-22.31
662.612	-0.31
662.644	-16.31
662.676	12.69
662.708	23.69
662.74	-4.31
662.772	5.69
662.804	5.69
662.836	-7.31
662.869	-7.31
662.901	9.69
662.933	-9.31
662.965	2.69
662.997	-16.31
663.029	-14.31
663.061	-10.31
663.093	-4.31
663.125	10.69
663.157	1.69
663.189	-8.31
663.221	1.69
663.254	-1.31
663.286	-1.31
663.318	-5.31
663.35	-4.31
663.382	-5.31
663.414	11.69
663.446	-3.31
663.478	-2.31
663.51	23.69
663.542	-3.31
663.574	1.69
663.606	1.69
663.638	-14.31
663.67	-2.31
663.702	0.69
663.734	-8.31
663.766	11.69
663.798	-3.31
663.83	13.69
663.862	6.69
663.894	5.69
663.926	3.69
663.958	16.69
663.99	1.69
664.022	-4.31
664.054	16.69
664.086	-4.31
664.118	-14.31
664.15	-11.31
664.182	-0.31
664.214	-13.31
664.246	6.69
664.278	-7.31
664.31	7.69
664.342	5.69
664.374	-5.31
664.406	-1.31
664.438	-4.31
664.47	17.69
664.502	1.69
664.534	12.69
664.566	-9.31
664.598	9.69
664.63	-20.31
664.662	-0.31
664.693	5.69
664.725	-20.31
664.757	-12.31
664.789	-13.31
664.821	-0.31
664.853	7.69
664.885	4.69
664.917	-1.31
664.949	-2.31
664.981	19.69
665.013	1.69
665.045	-12.31
665.076	1.69
665.108	-4.31
665.14	-11.31
665.172	0.69
665.204	-6.31
665.236	8.69
665.268	13.69
665.3	2.69
665.331	-25.31
665.363	-1.31
665.395	-10.31
665.427	-16.31
665.459	4.69
665.491	1.69
665.523	7.69
665.555	-2.31
665.586	-5.31
665.618	0.69
665.65	-21.31
665.682	9.69
665.714	-2.31
665.746	-9.31
665.777	-14.31
665.809	-9.31
665.841	13.69
665.873	5.69
665.905	4.69
665.937	8.69
665.968	4.69
666	-6.31
666.032	-1.31
666.064	-17.31
666.096	-5.31
666.127	5.69
666.159	21.69
666.191	5.69
666.223	3.69
666.255	4.69
666.286	-14.31
666.318	-6.31
666.35	7.69
666.382	-5.31
666.413	-0.31
666.445	-10.31
666.477	-7.31
666.509	-17.31
666.54	-8.31
666.572	-1.31
666.604	9.69
666.636	9.69
666.667	23.69
666.699	20.69
666.731	6.69
666.763	-9.31
666.794	-5.31
666.826	-3.31
666.858	-4.31
666.89	-11.31
666.921	-2.31
666.953	5.69
666.985	-3.31
667.017	21.69
667.048	12.69
667.08	-4.31
667.112	-14.31
667.143	-5.31
667.175	-3.31
667.207	-2.31
667.238	-4.31
667.27	5.69
667.302	4.69
667.334	1.69
667.365	8.69
667.397	6.69
667.429	-3.31
667.46	-2.31
667.492	4.69
667.524	0.69
667.555	-11.31
667.587	-8.31
667.619	-0.31
667.65	0.69
667.682	17.69
667.714	8.69
667.745	8.69
667.777	11.69
667.808	0.69
667.84	14.69
667.872	-3.31
667.903	15.69
667.935	-4.31
667.967	-3.31
667.998	-3.31
668.03	-0.31
668.061	-8.31
668.093	-0.31
668.125	2.69
668.156	3.69
668.188	-14.31
668.22	-1.31
668.251	7.69
668.283	5.69
668.314	5.69
668.346	-19.31
668.377	-9.31
668.409	-3.31
668.441	4.69
668.472	-4.31
668.504	6.69
668.535	2.69
668.567	8.69
668.599	4.69
668.63	-24.31
668.662	-1.31
668.693	13.69
668.725	15.69
668.756	-2.31
668.788	1.69
668.819	6.69
668.851	-10.31
668.882	-4.31
668.914	-9.31
668.946	2.69
668.977	-11.31
669.009	-6.31
669.04	-19.31
669.072	5.69
669.103	5.69
669.135	3.69
669.166	5.69
669.198	-3.31
669.229	2.69
669.261	-12.31
669.292	-0.31
669.324	3.69
669.355	4.69
669.387	-4.31
669.418	4.69
669.45	-8.31
669.481	2.69
669.513	10.69
669.544	17.69
669.576	10.69
669.607	9.69
669.639	4.69
669.67	-16.31
669.701	17.69
669.733	-6.31
669.764	-13.31
669.796	-6.31
669.827	-0.31
669.859	-8.31
669.89	11.69
669.922	28.69
669.953	20.69
669.985	6.69
670.016	15.69
670.047	8.69
670.079	5.69
670.11	-3.31
670.142	0.69
670.173	15.69
670.204	-13.31
670.236	12.69
670.267	5.69
670.299	-11.31
670.33	-11.31
670.362	7.69
670.393	-6.31
670.424	5.69
670.456	-11.31
670.487	-1.31
670.518	7.69
670.55	13.69
670.581	-3.31
670.613	4.69
670.644	-7.31
670.675	3.69
670.707	-6.31
670.738	-6.31
670.769	-2.31
670.801	-24.31
670.832	6.69
670.864	0.69
670.895	9.69
670.926	4.69
670.958	-3.31
670.989	12.69
671.02	4.69
671.052	-2.31
671.083	-4.31
671.114	-3.31
671.146	4.69
671.177	8.69
671.208	4.69
671.24	-12.31
671.271	-6.31
671.302	2.69
671.333	-17.31
671.365	5.69
671.396	-6.31
671.427	10.69
671.459	1.69
671.49	2.69
671.521	8.69
671.553	2.69
671.584	15.69
671.615	-0.31
671.646	2.69
671.678	-1.31
671.709	-10.31
671.74	-19.31
671.771	-1.31
671.803	-0.31
671.834	-13.31
671.865	-2.31
671.896	15.69
671.928	-9.31
671.959	-8.31
671.99	5.69
672.021	-6.31
672.053	-12.31
672.084	-0.31
672.115	20.69
672.146	4.69
672.178	-16.31
672.209	-5.31
672.24	-1.31
672.271	25.69
672.303	0.69
672.334	11.69
672.365	-10.31
672.396	-6.31
672.427	-1.31
672.459	9.69
672.49	10.69
672.521	5.69
672.552	9.69
672.583	1.69
672.615	6.69
672.646	-0.31
672.677	-11.31
672.708	-12.31
672.739	-3.31
672.77	12.69
672.802	-7.31
672.833	7.69
672.864	-7.31
672.895	-4.31
672.926	-3.31
672.957	-7.31
672.989	3.69
673.02	-2.31
673.051	-5.31
673.082	17.69
673.113	6.69
673.144	15.69
673.175	2.69
673.206	2.69
673.238	-11.31
673.269	6.69
673.3	1.69
673.331	0.69
673.362	5.69
673.393	7.69
673.424	7.69
673.455	5.69
673.487	-7.31
673.518	3.69
673.549	-1.31
673.58	9.69
673.611	8.69
673.642	-3.31
673.673	-24.31
673.704	-14.31
673.735	-11.31
673.766	6.69
673.797	-15.31
673.828	-6.31
673.86	-11.31
673.891	-22.31
673.922	-4.31
673.953	-8.31
673.984	-10.31
674.015	-0.31
674.046	-4.31
674.077	4.69
674.108	8.69
674.139	0.69
674.17	-8.31
674.201	-22.31
674.232	-9.31
674.263	8.69
674.294	-14.31
674.325	-30.31
674.356	-12.31
674.387	6.69
674.418	2.69
674.449	-7.31
674.48	-7.31
674.511	1.69
674.542	-0.31
674.573	-4.31
674.604	3.69
674.635	2.69
674.666	-8.31
674.697	7.69
674.728	9.69
674.759	2.69
674.79	-1.31
674.821	-1.31
674.852	4.69
674.883	-7.31
674.914	-8.31
674.945	-12.31
674.976	0.69
675.007	-0.31
675.038	-9.31
675.069	-21.31
675.1	3.69
675.131	8.69
675.162	0.69
675.193	-10.31
675.224	-15.31
675.254	-4.31
675.285	2.69
675.316	-11.31
675.347	-2.31
675.378	-6.31
675.409	-13.31
675.44	-0.31
675.471	-0.31
675.502	-15.31
675.533	-1.31
675.564	16.69
675.595	1.69
675.625	22.69
675.656	2.69
675.687	5.69
675.718	-5.31
675.749	11.69
675.78	6.69
675.811	-1.31
675.842	17.69
675.873	-2.31
675.903	-8.31
675.934	-8.31
675.965	4.69
675.996	-17.31
676.027	2.69
676.058	5.69
676.089	-15.31
676.119	1.69
676.15	1.69
676.181	9.69
676.212	9.69
676.243	4.69
676.274	-10.31
676.304	6.69
676.335	-15.31
676.366	-4.31
676.397	-5.31
676.428	-11.31
676.459	-7.31
676.489	-0.31
676.52	15.69
676.551	-0.31
676.582	-14.31
676.613	-10.31
676.643	-3.31
676.674	1.69
676.705	6.69
676.736	-15.31
676.767	23.69
676.797	-0.31
676.828	0.69
676.859	-6.31
676.89	8.69
676.92	0.69
676.951	11.69
676.982	0.69
677.013	-14.31
677.044	-2.31
677.074	2.69
677.105	-28.31
677.136	-1.31
677.167	0.69
677.197	-0.31
677.228	-9.31
677.259	-14.31
677.289	-9.31
677.32	-25.31
677.351	-8.31
677.382	-10.31
677.412	-28.31
677.443	-9.31
677.474	-2.31
677.505	-8.31
677.535	-2.31
677.566	-9.31
677.597	-9.31
677.627	-4.31
677.658	-2.31
677.689	2.69
677.72	-9.31
677.75	-19.31
677.781	-8.31
677.812	9.69
677.842	0.69
677.873	2.69
677.904	-1.31
677.934	10.69
677.965	22.69
677.996	-21.31
678.026	7.69
678.057	5.69
678.088	-12.31
678.118	4.69
678.149	-9.31
678.18	-4.31
678.21	0.69
678.241	-5.31
678.272	3.69
678.302	18.69
678.333	-15.31
678.363	-10.31
678.394	-6.31
678.425	2.69
678.455	-4.31
678.486	-2.31
678.517	-21.31
678.547	-4.31
678.578	6.69
678.608	-16.31
678.639	9.69
678.67	4.69
678.7	-10.31
678.731	-0.31
678.761	-4.31
678.792	3.69
678.823	3.69
678.853	-2.31
678.884	-19.31
678.914	-3.31
678.945	-1.31
678.975	-6.31
679.006	3.69
679.037	-10.31
679.067	10.69
679.098	-5.31
679.128	-8.31
679.159	18.69
679.189	17.69
679.22	0.69
679.25	4.69
679.281	-13.31
679.312	0.69
679.342	5.69
679.373	28.69
679.403	-0.31
679.434	17.69
679.464	10.69
679.495	7.69
679.525	7.69
679.556	-8.31
679.586	1.69
679.617	5.69
679.647	-11.31
679.678	12.69
679.708	-0.31
679.739	2.69
679.769	-0.31
679.8	18.69
679.83	-18.31
679.861	16.69
679.891	-5.31
679.922	-8.31
679.952	-6.31
679.983	1.69
680.013	-2.31
680.044	-0.31
680.074	5.69
680.105	8.69
680.135	0.69
680.165	-5.31
680.196	10.69
680.226	11.69
680.257	12.69
680.287	8.69
680.318	1.69
680.348	-5.31
680.379	3.69
680.409	-4.31
680.439	-8.31
680.47	-14.31
680.5	-11.31
680.531	-8.31
680.561	5.69
680.592	12.69
680.622	10.69
680.652	-7.31
680.683	19.69
680.713	3.69
680.744	2.69
680.774	9.69
680.804	-0.31
680.835	2.69
680.865	1.69
680.896	26.69
680.926	6.69
680.956	1.69
680.987	-6.31
681.017	-5.31
681.047	3.69
681.078	-5.31
681.108	-1.31
681.139	4.69
681.169	9.69
681.199	20.69
681.23	14.69
681.26	-5.31
681.29	-5.31
681.321	-15.31
681.351	12.69
681.381	-4.31
681.412	-5.31
681.442	-3.31
681.472	-5.31
681.503	5.69
681.533	10.69
681.563	-5.31
681.594	-9.31
681.624	15.69
681.654	-15.31
681.685	-1.31
681.715	2.69
681.745	-8.31
681.775	7.69
681.806	-14.31
681.836	-9.31
681.866	-7.31
681.897	11.69
681.927	-4.31
681.957	-20.31
681.987	3.69
682.018	-2.31
682.048	9.69
682.078	10.69
682.109	18.69
682.139	6.69
682.169	1.69
682.199	2.69
682.23	-4.31
682.26	-1.31
682.29	-0.31
682.32	5.69
682.351	5.69
682.381	-14.31
682.411	3.69
682.441	2.69
682.472	-0.31
682.502	-2.31
682.532	-16.31
682.562	-8.31
682.592	-1.31
682.623	3.69
682.653	0.69
682.683	1.69
682.713	15.69
682.743	2.69
682.774	2.69
682.804	2.69
682.834	7.69
682.864	-0.31
682.894	-1.31
682.925	-10.31
682.955	-1.31
682.985	-10.31
683.015	-14.31
683.045	-5.31
683.076	-25.31
683.106	-8.31
683.136	-22.31
683.166	-16.31
683.196	-14.31
683.226	2.69
683.257	-13.31
683.287	5.69
683.317	-31.31
683.347	-14.31
683.377	-4.31
683.407	-1.31
683.437	2.69
683.468	5.69
683.498	-9.31
683.528	-6.31
683.558	-2.31
683.588	2.69
683.618	-2.31
683.648	-9.31
683.678	10.69
683.708	5.69
683.739	-3.31
683.769	5.69
683.799	10.69
683.829	-0.31
683.859	1.69
683.889	7.69
683.919	6.69
683.949	0.69
683.979	-6.31
684.009	-7.31
684.039	4.69
684.07	-19.31
684.1	6.69
684.13	-4.31
684.16	16.69
684.19	-8.31
684.22	-9.31
684.25	-1.31
684.28	-0.31
684.31	12.69
684.34	-6.31
684.37	-4.31
684.4	-5.31
684.43	-1.31
684.46	-4.31
684.49	-6.31
684.52	0.69
684.55	21.69
684.58	4.69
684.61	-17.31
684.64	7.69
684.67	12.69
684.7	-8.31
684.73	1.69
684.76	-6.31
684.79	0.69
684.82	-0.31
684.85	-7.31
684.88	-1.31
684.91	-3.31
684.94	-21.31
684.97	-4.31
685	1.69
685.03	-1.31
685.06	-3.31
685.09	12.69
685.12	8.69
685.15	-27.31
685.18	-6.31
685.21	7.69
685.24	9.69
685.27	0.69
685.3	-9.31
685.33	-1.31
685.36	3.69
685.39	8.69
685.42	2.69
685.45	-1.31
685.48	-0.31
685.51	-1.31
685.54	4.69
685.569	-0.31
685.599	-8.31
685.629	-9.31
685.659	-5.31
685.689	-5.31
685.719	0.69
685.749	-10.31
685.779	10.69
685.809	3.69
685.839	7.69
685.869	3.69
685.898	2.69
685.928	-16.31
685.958	-6.31
685.988	14.69
686.018	-6.31
686.048	-3.31
686.078	9.69
686.108	18.69
686.137	1.69
686.167	22.69
686.197	-13.31
686.227	2.69
686.257	18.69
686.287	12.69
686.317	-0.31
686.346	-8.31
686.376	1.69
686.406	-0.31
686.436	16.69
686.466	0.69
686.496	0.69
686.525	0.69
686.555	-1.31
686.585	7.69
686.615	25.69
686.645	23.69
686.675	-2.31
686.704	0.69
686.734	-0.31
686.764	7.69
686.794	3.69
686.824	8.69
686.853	14.69
686.883	14.69
686.913	18.69
686.943	-12.31
686.973	1.69
687.002	6.69
687.032	-2.31
687.062	-5.31
687.092	5.69
687.121	-6.31
687.151	0.69
687.181	9.69
687.211	1.69
687.24	8.69
687.27	9.69
687.3	-1.31
687.33	-9.31
687.359	-7.31
687.389	3.69
687.419	-10.31
687.449	-4.31
687.478	7.69
687.508	-25.31
687.538	-3.31
687.568	1.69
687.597	-9.31
687.627	-7.31
687.657	-8.31
687.686	0.69
687.716	17.69
687.746	-4.31
687.776	-0.31
687.805	-8.31
687.835	0.69
687.865	9.69
687.894	1.69
687.924	14.69
687.954	-15.31
687.983	3.69
688.013	1.69
688.043	8.69
688.072	7.69
688.102	7.69
688.132	-2.31
688.161	-2.31
688.191	8.69
688.221	15.69
688.25	0.69
688.28	-4.31
688.31	-15.31
688.339	4.69
688.369	-16.31
688.399	-8.31
688.428	-5.31
688.458	10.69
688.488	0.69
688.517	0.69
688.547	-3.31
688.576	29.69
688.606	5.69
688.636	2.69
688.665	10.69
688.695	-0.31
688.725	11.69
688.754	3.69
688.784	3.69
688.813	5.69
688.843	9.69
688.873	-1.31
688.902	8.69
688.932	-4.31
688.961	7.69
688.991	25.69
689.02	14.69
689.05	-9.31
689.08	7.69
689.109	4.69
689.139	-0.31
689.168	3.69
689.198	-7.31
689.227	-8.31
689.257	0.69
689.287	4.69
689.316	2.69
689.346	-11.31
689.375	-21.31
689.405	7.69
689.434	-7.31
689.464	15.69
689.493	5.69
689.523	-10.31
689.552	-1.31
689.582	-1.31
689.611	11.69
689.641	8.69
689.67	8.69
689.7	12.69
689.73	21.69
689.759	10.69
689.789	20.69
689.818	20.69
689.848	7.69
689.877	19.69
689.906	-5.31
689.936	-5.31
689.965	0.69
689.995	2.69
690.024	10.69
690.054	11.69
690.083	13.69
690.113	3.69
690.142	1.69
690.172	0.69
690.201	10.69
690.231	15.69
690.26	4.69
690.29	5.69
690.319	7.69
690.348	0.69
690.378	-7.31
690.407	16.69
690.437	11.69
690.466	2.69
690.496	-2.31
690.525	2.69
690.555	5.69
690.584	-3.31
690.613	-7.31
690.643	11.69
690.672	10.69
690.702	12.69
690.731	12.69
690.76	6.69
690.79	-13.31
690.819	-3.31
690.849	2.69
690.878	-5.31
690.907	2.69
690.937	-4.31
690.966	16.69
690.996	0.69
691.025	9.69
691.054	-2.31
691.084	-4.31
691.113	-8.31
691.142	-4.31
691.172	6.69
691.201	25.69
691.23	-8.31
691.26	10.69
691.289	6.69
691.319	8.69
691.348	7.69
691.377	20.69
691.407	7.69
691.436	2.69
691.465	6.69
691.495	1.69
691.524	4.69
691.553	0.69
691.583	-6.31
691.612	9.69
691.641	12.69
691.67	-1.31
691.7	7.69
691.729	-14.31
691.758	6.69
691.788	-7.31
691.817	-16.31
691.846	-5.31
691.876	3.69
691.905	2.69
691.934	3.69
691.963	19.69
691.993	5.69
692.022	4.69
692.051	-2.31
692.081	-0.31
692.11	16.69
692.139	26.69
692.168	1.69
692.198	3.69
692.227	6.69
692.256	16.69
692.285	-0.31
692.315	-4.31
692.344	-3.31
692.373	5.69
692.402	-20.31
692.432	-7.31
692.461	-2.31
692.49	3.69
692.519	7.69
692.548	23.69
692.578	32.69
692.607	-7.31
692.636	-6.31
692.665	12.69
692.694	10.69
692.724	-1.31
692.753	1.69
692.782	1.69
692.811	-7.31
692.84	-16.31
692.87	19.69
692.899	2.69
692.928	-4.31
692.957	20.69
692.986	4.69
693.016	-8.31
693.045	-2.31
693.074	8.69
693.103	10.69
693.132	7.69
693.161	1.69
693.191	-2.31
693.22	2.69
693.249	-6.31
693.278	-2.31
693.307	13.69
693.336	-15.31
693.365	-10.31
693.395	1.69
693.424	-8.31
693.453	11.69
693.482	10.69
693.511	8.69
693.54	3.69
693.569	18.69
693.598	-15.31
693.628	13.69
693.657	4.69
693.686	11.69
693.715	15.69
693.744	11.69
693.773	18.69
693.802	-1.31
693.831	-0.31
693.86	9.69
693.889	6.69
693.919	17.69
693.948	-3.31
693.977	-3.31
694.006	-14.31
694.035	-1.31
694.064	3.69
694.093	-3.31
694.122	-6.31
694.151	1.69
694.18	-9.31
694.209	31.69
694.238	5.69
694.267	21.69
694.296	25.69
694.325	9.69
694.354	13.69
694.383	9.69
694.412	-4.31
694.441	-3.31
694.471	-18.31
694.5	-11.31
694.529	13.69
694.558	11.69
694.587	11.69
694.616	11.69
694.645	14.69
694.674	14.69
694.703	27.69
694.732	6.69
694.761	23.69
694.79	14.69
694.819	6.69
694.848	12.69
694.877	8.69
694.906	23.69
694.935	14.69
694.963	22.69
694.992	6.69
695.021	-2.31
695.05	0.69
695.079	-3.31
695.108	-1.31
695.137	13.69
695.166	19.69
695.195	-1.31
695.224	22.69
695.253	18.69
695.282	-5.31
695.311	2.69
695.34	2.69
695.369	13.69
695.398	8.69
695.427	14.69
695.456	-9.31
695.485	-10.31
695.513	15.69
695.542	1.69
695.571	8.69
695.6	25.69
695.629	10.69
695.658	11.69
695.687	-2.31
695.716	0.69
695.745	5.69
695.774	4.69
695.802	-6.31
695.831	8.69
695.86	6.69
695.889	21.69
695.918	16.69
695.947	3.69
695.976	14.69
696.005	-3.31
696.033	3.69
696.062	16.69
696.091	4.69
696.12	8.69
696.149	24.69
696.178	-1.31
696.207	6.69
696.235	-5.31
696.264	2.69
696.293	-10.31
696.322	6.69
696.351	14.69
696.38	9.69
696.408	17.69
696.437	0.69
696.466	-0.31
696.495	6.69
696.524	19.69
696.553	19.69
696.581	1.69
696.61	4.69
696.639	0.69
696.668	6.69
696.697	-12.31
696.725	7.69
696.754	-8.31
696.783	-10.31
696.812	-8.31
696.84	16.69
696.869	3.69
696.898	-8.31
696.927	2.69
696.956	23.69
696.984	-0.31
697.013	0.69
697.042	-6.31
697.071	11.69
697.099	14.69
697.128	5.69
697.157	13.69
697.186	-6.31
697.214	6.69
697.243	-7.31
697.272	6.69
697.301	10.69
697.329	9.69
697.358	11.69
697.387	22.69
697.415	12.69
697.444	-0.31
697.473	-3.31
697.502	8.69
697.53	2.69
697.559	-12.31
697.588	16.69
697.616	11.69
697.645	-13.31
697.674	9.69
697.703	10.69
697.731	15.69
697.76	0.69
697.789	-6.31
697.817	-4.31
697.846	24.69
697.875	2.69
697.903	20.69
697.932	13.69
697.961	6.69
697.989	11.69
698.018	7.69
698.047	0.69
698.075	27.69
698.104	6.69
698.133	1.69
698.161	8.69
698.19	-7.31
698.218	3.69
698.247	0.69
698.276	-6.31
698.304	16.69
698.333	18.69
698.362	3.69
698.39	0.69
698.419	-1.31
698.447	5.69
698.476	15.69
698.505	7.69
698.533	14.69
698.562	4.69
698.591	-0.31
698.619	-9.31
698.648	-0.31
698.676	2.69
698.705	10.69
698.733	-3.31
698.762	0.69
698.791	-10.31
698.819	-2.31
698.848	-1.31
698.876	23.69
698.905	2.69
698.933	2.69
698.962	2.69
698.991	5.69
699.019	25.69
699.048	4.69
699.076	6.69
699.105	-0.31
699.133	0.69
699.162	4.69
699.19	24.69
699.219	10.69
699.248	3.69
699.276	13.69
699.305	-7.31
699.333	10.69
699.362	1.69
699.39	10.69
699.419	1.69
699.447	17.69
699.476	9.69
699.504	-12.31
699.533	-6.31
699.561	-1.31
699.59	0.69
699.618	-7.31
699.647	18.69
699.675	-5.31
699.704	-1.31
699.732	3.69
699.761	0.69
699.789	-14.31
699.818	4.69
699.846	-9.31
699.874	-16.31
699.903	11.69
699.931	4.69
699.96	13.69
699.988	-4.31
700.017	8.69
700.045	10.69
700.074	-13.31
700.102	-4.31
700.13	-6.31
700.159	2.69
700.187	4.69
700.216	3.69
700.244	-5.31
700.273	2.69
700.301	20.69
700.329	15.69
700.358	20.69
700.386	17.69
700.415	18.69
700.443	10.69
700.472	-27.31
700.5	1.69
700.528	12.69
700.557	10.69
700.585	-1.31
700.614	4.69
700.642	13.69
700.67	36.69
700.699	12.69
700.727	4.69
700.755	17.69
700.784	-10.31
700.812	-1.31
700.841	14.69
700.869	-10.31
700.897	2.69
700.926	4.69
700.954	12.69
700.982	14.69
701.011	5.69
701.039	9.69
701.067	11.69
701.096	16.69
701.124	-1.31
701.152	-5.31
701.181	8.69
701.209	-9.31
701.237	-1.31
701.266	-19.31
701.294	-5.31
701.322	-8.31
701.351	0.69
701.379	4.69
701.407	-3.31
701.435	-22.31
701.464	4.69
701.492	10.69
701.52	-21.31
701.549	5.69
701.577	-3.31
701.605	-20.31
701.634	6.69
701.662	4.69
701.69	-7.31
701.718	-25.31
701.747	3.69
701.775	5.69
701.803	-10.31
701.831	23.69
701.86	1.69
701.888	18.69
701.916	-8.31
701.944	-6.31
701.973	-6.31
702.001	-1.31
702.029	-1.31
702.057	4.69
702.086	-6.31
702.114	-15.31
702.142	2.69
702.17	-38.31
702.199	-8.31
702.227	9.69
702.255	-6.31
702.283	-16.31
702.311	15.69
702.34	-13.31
702.368	-3.31
702.396	1.69
702.424	0.69
702.452	-12.31
702.481	-7.31
702.509	10.69
702.537	9.69
702.565	2.69
702.593	-14.31
702.621	-3.31
702.65	11.69
702.678	2.69
702.706	15.69
702.734	-16.31
702.762	-1.31
702.79	21.69
702.819	18.69
702.847	-1.31
702.875	12.69
702.903	4.69
702.931	4.69
702.959	-13.31
702.988	2.69
703.016	-6.31
703.044	11.69
703.072	-2.31
703.1	-8.31
703.128	5.69
703.156	-2.31
703.184	-15.31
703.212	12.69
703.241	-21.31
703.269	-2.31
703.297	-2.31
703.325	0.69
703.353	1.69
703.381	-6.31
703.409	4.69
703.437	-1.31
703.465	-1.31
703.493	-2.31
703.522	-4.31
703.55	2.69
703.578	-6.31
703.606	-1.31
703.634	-1.31
703.662	-3.31
703.69	0.69
703.718	-8.31
703.746	18.69
703.774	-1.31
703.802	7.69
703.83	4.69
703.858	-4.31
703.886	-3.31
703.914	-0.31
703.942	18.69
703.97	-12.31
703.998	0.69
704.027	10.69
704.055	13.69
704.083	-5.31
704.111	-12.31
704.139	-0.31
704.167	-16.31
704.195	-8.31
704.223	-1.31
704.251	-4.31
704.279	4.69
704.307	17.69
704.335	-4.31
704.363	4.69
704.391	3.69
704.419	-1.31
704.447	-13.31
704.475	13.69
704.503	0.69
704.531	13.69
704.558	-0.31
704.586	14.69
704.614	-4.31
704.642	-9.31
704.67	-5.31
704.698	-6.31
704.726	-10.31
704.754	-11.31
704.782	-16.31
704.81	-4.31
704.838	17.69
704.866	1.69
704.894	-22.31
704.922	3.69
704.95	-4.31
704.978	-1.31
705.006	1.69
705.034	10.69
705.061	-3.31
705.089	5.69
705.117	-5.31
705.145	15.69
705.173	10.69
705.201	3.69
705.229	6.69
705.257	7.69
705.285	4.69
705.313	15.69
705.34	10.69
705.368	-1.31
705.396	8.69
705.424	14.69
705.452	-3.31
705.48	0.69
705.508	-10.31
705.536	-0.31
705.563	3.69
705.591	20.69
705.619	-8.31
705.647	-3.31
705.675	4.69
705.703	12.69
705.731	-1.31
705.758	9.69
705.786	7.69
705.814	19.69
705.842	-3.31
705.87	23.69
705.898	10.69
705.925	-4.31
705.953	1.69
705.981	2.69
706.009	-2.31
706.037	11.69
706.065	7.69
706.092	-8.31
706.12	-13.31
706.148	-23.31
706.176	-9.31
706.204	10.69
706.231	3.69
706.259	-8.31
706.287	-1.31
706.315	-5.31
706.342	-1.31
706.37	1.69
706.398	-8.31
706.426	1.69
706.454	17.69
706.481	13.69
706.509	-2.31
706.537	-0.31
706.565	-15.31
706.592	-1.31
706.62	-3.31
706.648	12.69
706.676	-7.31
706.703	6.69
706.731	-2.31
706.759	-11.31
706.787	19.69
706.814	-10.31
706.842	-10.31
706.87	0.69
706.897	-5.31
706.925	0.69
706.953	15.69
706.981	15.69
707.008	2.69
707.036	-4.31
707.064	-6.31
707.091	-19.31
707.119	7.69
707.147	-9.31
707.174	-4.31
707.202	6.69
707.23	7.69
707.258	10.69
707.285	-3.31
707.313	4.69
707.341	6.69
707.368	-0.31
707.396	6.69
707.424	10.69
707.451	11.69
707.479	10.69
707.507	8.69
707.534	-4.31
707.562	8.69
707.59	-0.31
707.617	0.69
707.645	-5.31
707.672	0.69
707.7	6.69
707.728	24.69
707.755	8.69
707.783	9.69
707.811	10.69
707.838	-8.31
707.866	4.69
707.893	-0.31
707.921	-0.31
707.949	-8.31
707.976	-7.31
708.004	-5.31
708.031	-12.31
708.059	8.69
708.087	-0.31
708.114	-5.31
708.142	-16.31
708.169	-3.31
708.197	-22.31
708.225	-7.31
708.252	-2.31
708.28	0.69
708.307	-16.31
708.335	-6.31
708.362	-7.31
708.39	-11.31
708.418	-8.31
708.445	-11.31
708.473	4.69
708.5	-3.31
708.528	17.69
708.555	-1.31
708.583	4.69
708.61	-1.31
708.638	2.69
708.665	-0.31
708.693	12.69
708.72	6.69
708.748	-6.31
708.776	2.69
708.803	9.69
708.831	7.69
708.858	20.69
708.886	10.69
708.913	-7.31
708.941	-7.31
708.968	11.69
708.996	-3.31
709.023	24.69
709.051	-0.31
709.078	-10.31
709.105	5.69
709.133	-7.31
709.16	1.69
709.188	15.69
709.215	4.69
709.243	19.69
709.27	-1.31
709.298	-17.31
709.325	-16.31
709.353	-17.31
709.38	-6.31
709.408	16.69
709.435	-3.31
709.462	-13.31
709.49	7.69
709.517	-0.31
709.545	-4.31
709.572	-0.31
709.6	4.69
709.627	21.69
709.655	-3.31
709.682	-3.31
709.709	-7.31
709.737	-3.31
709.764	-4.31
709.792	-13.31
709.819	3.69
709.846	-11.31
709.874	4.69
709.901	8.69
709.929	16.69
709.956	7.69
709.983	-4.31
710.011	-4.31
710.038	-3.31
710.066	4.69
710.093	8.69
710.12	8.69
710.148	-4.31
710.175	2.69
710.202	-1.31
710.23	-6.31
710.257	-3.31
710.284	5.69
710.312	-6.31
710.339	-12.31
710.366	-2.31
710.394	-9.31
710.421	-15.31
710.448	-2.31
710.476	-6.31
710.503	-1.31
710.53	8.69
710.558	14.69
710.585	0.69
710.612	-15.31
710.64	3.69
710.667	14.69
710.694	-12.31
710.722	-13.31
710.749	3.69
710.776	3.69
710.804	11.69
710.831	-9.31
710.858	-8.31
710.885	-2.31
710.913	-5.31
710.94	23.69
710.967	0.69
710.995	8.69
711.022	11.69
711.049	9.69
711.076	-7.31
711.104	0.69
711.131	-21.31
711.158	1.69
711.185	14.69
711.213	-22.31
711.24	1.69
711.267	-4.31
711.294	-20.31
711.322	26.69
711.349	2.69
711.376	3.69
711.403	17.69
711.431	-7.31
711.458	14.69
711.485	-18.31
711.512	-4.31
711.54	-8.31
711.567	-4.31
711.594	-3.31
711.621	-6.31
711.648	3.69
711.676	6.69
711.703	1.69
711.73	-20.31
711.757	5.69
711.784	-7.31
711.812	8.69
711.839	2.69
711.866	7.69
711.893	-8.31
711.92	14.69
711.947	12.69
711.975	3.69
712.002	-4.31
712.029	10.69
712.056	1.69
712.083	10.69
712.11	-21.31
712.138	-13.31
712.165	12.69
712.192	2.69
712.219	-7.31
712.246	-10.31
712.273	0.69
712.3	-4.31
712.328	8.69
712.355	0.69
712.382	-11.31
712.409	13.69
712.436	2.69
712.463	4.69
712.49	8.69
712.517	-4.31
712.544	-17.31
712.572	13.69
712.599	-4.31
712.626	12.69
712.653	4.69
712.68	-12.31
712.707	4.69
712.734	-8.31
712.761	-4.31
712.788	9.69
712.815	6.69
712.842	12.69
712.87	-1.31
712.897	-8.31
712.924	-5.31
712.951	-1.31
712.978	17.69
713.005	23.69
713.032	16.69
713.059	-0.31
713.086	-11.31
713.113	1.69
713.14	-10.31
713.167	0.69
713.194	3.69
713.221	5.69
713.248	-4.31
713.275	-11.31
713.302	-3.31
713.329	1.69
713.356	19.69
713.383	1.69
713.41	8.69
713.437	-8.31
713.464	5.69
713.491	22.69
713.518	-7.31
713.545	4.69
713.572	0.69
713.599	21.69
713.626	3.69
713.653	0.69
713.68	2.69
713.707	11.69
713.734	5.69
713.761	1.69
713.788	-5.31
713.815	-1.31
713.842	12.69
713.869	-1.31
713.896	-12.31
713.923	-17.31
713.95	-7.31
713.977	-19.31
714.004	-10.31
714.031	0.69
714.058	-8.31
714.085	11.69
714.112	12.69
714.139	-8.31
714.165	-11.31
714.192	-6.31
714.219	3.69
714.246	-6.31
714.273	-5.31
714.3	3.69
714.327	-3.31
714.354	23.69
714.381	6.69
714.408	-3.31
714.435	-3.31
714.461	-7.31
714.488	-5.31
714.515	-2.31
714.542	1.69
714.569	-1.31
714.596	-16.31
714.623	6.69
714.65	-10.31
714.677	-4.31
714.703	-2.31
714.73	4.69
714.757	-4.31
714.784	-14.31
714.811	-10.31
714.838	-5.31
714.865	-4.31
714.891	-5.31
714.918	-4.31
714.945	2.69
714.972	-1.31
714.999	18.69
715.026	6.69
715.052	13.69
715.079	-4.31
715.106	3.69
715.133	4.69
715.16	-8.31
715.187	7.69
715.213	7.69
715.24	11.69
715.267	7.69
715.294	8.69
715.321	-1.31
715.347	-8.31
715.374	-20.31
715.401	-11.31
715.428	-0.31
715.455	2.69
715.481	-9.31
715.508	-9.31
715.535	-9.31
715.562	12.69
715.588	1.69
715.615	7.69
715.642	-0.31
715.669	-6.31
715.695	-3.31
715.722	-15.31
715.749	4.69
715.776	8.69
715.802	10.69
715.829	10.69
715.856	-12.31
715.883	18.69
715.909	-4.31
715.936	9.69
715.963	1.69
715.99	-10.31
716.016	-11.31
716.043	-3.31
716.07	-3.31
716.096	-1.31
716.123	-0.31
716.15	0.69
716.177	-6.31
716.203	6.69
716.23	1.69
716.257	0.69
716.283	7.69
716.31	-6.31
716.337	5.69
716.363	-11.31
716.39	0.69
716.417	11.69
716.443	5.69
716.47	9.69
716.497	19.69
716.523	-5.31
716.55	-5.31
716.577	2.69
716.603	-4.31
716.63	3.69
716.657	9.69
716.683	-16.31
716.71	-4.31
716.737	-7.31
716.763	4.69
716.79	9.69
716.817	4.69
716.843	-15.31
716.87	1.69
716.897	5.69
716.923	25.69
716.95	-11.31
716.976	-11.31
717.003	-1.31
717.03	1.69
717.056	15.69
717.083	-10.31
717.109	2.69
717.136	-0.31
717.163	1.69
717.189	5.69
717.216	8.69
717.242	8.69
717.269	2.69
717.296	5.69
717.322	6.69
717.349	6.69
717.375	21.69
717.402	-13.31
717.428	4.69
717.455	9.69
717.481	1.69
717.508	9.69
717.535	-0.31
717.561	0.69
717.588	-5.31
717.614	-6.31
717.641	-0.31
717.667	6.69
717.694	7.69
717.72	1.69
717.747	-3.31
717.773	-7.31
717.8	2.69
717.826	-0.31
717.853	1.69
717.88	-3.31
717.906	-4.31
717.933	1.69
717.959	15.69
717.986	1.69
718.012	4.69
718.039	12.69
718.065	-3.31
718.092	-0.31
718.118	-10.31
718.144	1.69
718.171	9.69
718.197	25.69
718.224	2.69
718.25	-8.31
718.277	4.69
718.303	15.69
718.33	-10.31
718.356	-5.31
718.383	-19.31
718.409	-11.31
718.436	-4.31
718.462	-1.31
718.489	-10.31
718.515	5.69
718.541	10.69
718.568	1.69
718.594	17.69
718.621	-7.31
718.647	-6.31
718.674	13.69
718.7	0.69
718.726	-8.31
718.753	2.69
718.779	-1.31
718.806	2.69
718.832	4.69
718.858	-0.31
718.885	1.69
718.911	-0.31
718.938	11.69
718.964	-12.31
718.99	3.69
719.017	0.69
719.043	14.69
719.07	-4.31
719.096	-11.31
719.122	-0.31
719.149	-0.31
719.175	6.69
719.201	8.69
719.228	-5.31
719.254	-6.31
719.281	-8.31
719.307	-4.31
719.333	-6.31
719.36	-0.31
719.386	8.69
719.412	-3.31
719.439	-15.31
719.465	-5.31
719.491	-6.31
719.518	-1.31
719.544	-6.31
719.57	4.69
719.597	9.69
719.623	0.69
719.649	0.69
719.675	11.69
719.702	4.69
719.728	21.69
719.754	-1.31
719.781	-0.31
719.807	9.69
719.833	-11.31
719.86	4.69
719.886	11.69
719.912	8.69
719.938	0.69
719.965	-4.31
719.991	15.69
720.017	14.69
720.044	-4.31
720.07	5.69
720.096	8.69
720.122	5.69
720.149	3.69
720.175	4.69
720.201	5.69
720.227	-2.31
720.254	6.69
720.28	1.69
720.306	0.69
720.332	3.69
720.359	-13.31
720.385	5.69
720.411	0.69
720.437	-0.31
720.463	-5.31
720.49	5.69
720.516	-16.31
720.542	-6.31
720.568	-5.31
720.595	3.69
720.621	9.69
720.647	16.69
720.673	12.69
720.699	-9.31
720.725	4.69
720.752	-0.31
720.778	1.69
720.804	10.69
720.83	2.69
720.856	5.69
720.883	-6.31
720.909	-4.31
720.935	5.69
720.961	0.69
720.987	-7.31
721.013	-3.31
721.04	-6.31
721.066	4.69
721.092	-0.31
721.118	1.69
721.144	-0.31
721.17	-5.31
721.196	-1.31
721.223	-23.31
721.249	-14.31
721.275	9.69
721.301	12.69
721.327	13.69
721.353	-0.31
721.379	-1.31
721.405	15.69
721.432	8.69
721.458	-2.31
721.484	12.69
721.51	-8.31
721.536	12.69
721.562	5.69
721.588	5.69
721.614	1.69
721.64	5.69
721.666	4.69
721.693	0.69
721.719	9.69
721.745	-5.31
721.771	6.69
721.797	-4.31
721.823	5.69
721.849	10.69
721.875	1.69
721.901	-4.31
721.927	1.69
721.953	3.69
721.979	17.69
722.005	8.69
722.031	-7.31
722.057	4.69
722.083	10.69
722.109	6.69
722.135	9.69
722.161	0.69
722.187	-15.31
722.214	-12.31
722.24	-14.31
722.266	-8.31
722.292	12.69
722.318	13.69
722.344	-5.31
722.37	-2.31
722.396	-0.31
722.422	-8.31
722.448	-8.31
722.474	-9.31
722.5	3.69
722.526	3.69
722.552	4.69
722.578	3.69
722.603	7.69
722.629	-15.31
722.655	-7.31
722.681	-5.31
722.707	7.69
722.733	-2.31
722.759	-9.31
722.785	-11.31
722.811	-4.31
722.837	1.69
722.863	11.69
722.889	8.69
722.915	-9.31
722.941	2.69
722.967	0.69
722.993	5.69
723.019	11.69
723.045	4.69
723.071	3.69
723.097	-0.31
723.122	0.69
723.148	7.69
723.174	-9.31
723.2	3.69
723.226	2.69
723.252	2.69
723.278	-6.31
723.304	-17.31
723.33	-9.31
723.356	-7.31
723.381	-7.31
723.407	-5.31
723.433	-3.31
723.459	-4.31
723.485	-6.31
723.511	6.69
723.537	-8.31
723.563	-7.31
723.588	-3.31
723.614	7.69
723.64	-6.31
723.666	7.69
723.692	-1.31
723.718	-0.31
723.744	5.69
723.769	-2.31
723.795	-5.31
723.821	4.69
723.847	-0.31
723.873	1.69
723.899	4.69
723.924	-3.31
723.95	-4.31
723.976	-15.31
724.002	-14.31
724.028	16.69
724.053	1.69
724.079	-4.31
724.105	-12.31
724.131	-3.31
724.157	6.69
724.182	-2.31
724.208	-10.31
724.234	7.69
724.26	-10.31
724.286	8.69
724.311	-5.31
724.337	-8.31
724.363	-7.31
724.389	8.69
724.415	1.69
724.44	26.69
724.466	6.69
724.492	-6.31
724.518	-2.31
724.543	-1.31
724.569	1.69
724.595	6.69
724.621	10.69
724.646	1.69
724.672	-4.31
724.698	4.69
724.723	-8.31
724.749	1.69
724.775	13.69
724.801	-11.31
724.826	-14.31
724.852	-3.31
724.878	-7.31
724.904	-21.31
724.929	-8.31
724.955	-13.31
724.981	-0.31
725.006	-4.31
725.032	-0.31
725.058	-0.31
725.083	-2.31
725.109	-9.31
725.135	-0.31
725.161	5.69
725.186	5.69
725.212	-6.31
725.238	-5.31
725.263	16.69
725.289	7.69
725.315	9.69
725.34	-17.31
725.366	3.69
725.392	-8.31
725.417	-4.31
725.443	4.69
725.468	26.69
725.494	19.69
725.52	8.69
725.545	-7.31
725.571	6.69
725.597	-3.31
725.622	-0.31
725.648	-4.31
725.674	0.69
725.699	3.69
725.725	3.69
725.75	26.69
725.776	7.69
725.802	-9.31
725.827	-8.31
725.853	0.69
725.878	-4.31
725.904	-12.31
725.93	-8.31
725.955	-12.31
725.981	-20.31
726.006	-8.31
726.032	14.69
726.057	-1.31
726.083	-17.31
726.109	2.69
726.134	4.69
726.16	-1.31
726.185	-6.31
726.211	-0.31
726.236	6.69
726.262	3.69
726.288	3.69
726.313	7.69
726.339	-6.31
726.364	10.69
726.39	14.69
726.415	-3.31
726.441	11.69
726.466	15.69
726.492	7.69
726.517	8.69
726.543	-9.31
726.568	-16.31
726.594	-5.31
726.619	-2.31
726.645	10.69
726.67	6.69
726.696	7.69
726.721	4.69
726.747	-10.31
726.772	7.69
726.798	10.69
726.823	1.69
726.849	8.69
726.874	15.69
726.9	20.69
726.925	-6.31
726.951	-9.31
726.976	13.69
727.002	4.69
727.027	-1.31
727.053	7.69
727.078	-16.31
727.104	-4.31
727.129	-2.31
727.155	-3.31
727.18	4.69
727.205	9.69
727.231	-5.31
727.256	-0.31
727.282	9.69
727.307	11.69
727.333	-4.31
727.358	-25.31
727.383	-4.31
727.409	-2.31
727.434	11.69
727.46	3.69
727.485	0.69
727.511	8.69
727.536	-19.31
727.561	-3.31
727.587	6.69
727.612	-18.31
727.637	-7.31
727.663	-7.31
727.688	9.69
727.714	-1.31
727.739	-12.31
727.764	-6.31
727.79	1.69
727.815	4.69
727.841	6.69
727.866	1.69
727.891	2.69
727.917	1.69
727.942	-19.31
727.967	-18.31
727.993	-6.31
728.018	3.69
728.043	7.69
728.069	10.69
728.094	19.69
728.119	3.69
728.145	10.69
728.17	13.69
728.195	-4.31
728.221	13.69
728.246	4.69
728.271	21.69
728.297	2.69
728.322	5.69
728.347	-0.31
728.373	-2.31
728.398	11.69
728.423	-4.31
728.448	-1.31
728.474	-4.31
728.499	13.69
728.524	-5.31
728.55	-2.31
728.575	4.69
728.6	-0.31
728.625	-1.31
728.651	-10.31
728.676	7.69
728.701	-8.31
728.727	6.69
728.752	-12.31
728.777	-13.31
728.802	4.69
728.828	7.69
728.853	2.69
728.878	6.69
728.903	0.69
728.929	-16.31
728.954	-3.31
728.979	7.69
729.004	-1.31
729.03	0.69
729.055	-6.31
729.08	-9.31
729.105	-17.31
729.13	19.69
729.156	3.69
729.181	1.69
729.206	-19.31
729.231	-10.31
729.256	11.69
729.282	-5.31
729.307	-4.31
729.332	1.69
729.357	-2.31
729.382	9.69
729.408	2.69
729.433	-0.31
729.458	11.69
729.483	7.69
729.508	21.69
729.533	2.69
729.559	0.69
729.584	2.69
729.609	8.69
729.634	17.69
729.659	-3.31
729.684	-16.31
729.71	17.69
729.735	1.69
729.76	-4.31
729.785	-1.31
729.81	-7.31
729.835	-0.31
729.86	-20.31
729.886	1.69
729.911	-2.31
729.936	-3.31
729.961	-1.31
729.986	-19.31
730.011	8.69
730.036	-16.31
730.061	-5.31
730.086	-4.31
730.112	6.69
730.137	24.69
730.162	-1.31
730.187	-14.31
730.212	-5.31
730.237	-5.31
730.262	-0.31
730.287	-4.31
730.312	12.69
730.337	-6.31
730.362	4.69
730.387	-10.31
730.413	-19.31
730.438	-7.31
730.463	3.69
730.488	-8.31
730.513	-15.31
730.538	-12.31
730.563	15.69
730.588	8.69
730.613	26.69
730.638	-4.31
730.663	-12.31
730.688	9.69
730.713	0.69
730.738	1.69
730.763	-8.31
730.788	-15.31
730.813	9.69
730.838	-5.31
730.863	2.69
730.888	-3.31
730.913	-13.31
730.938	-28.31
730.963	-7.31
730.988	0.69
731.013	14.69
731.038	-4.31
731.063	1.69
731.088	15.69
731.113	-7.31
731.138	-17.31
731.163	-6.31
731.188	-19.31
731.213	0.69
731.238	3.69
731.263	-5.31
731.288	-9.31
731.313	17.69
731.338	4.69
731.363	-5.31
731.388	-8.31
731.413	0.69
731.438	2.69
731.463	0.69
731.487	15.69
731.512	-1.31
731.537	-11.31
731.562	8.69
731.587	2.69
731.612	-4.31
731.637	1.69
731.662	1.69
731.687	7.69
731.712	-26.31
731.737	-3.31
731.762	-4.31
731.786	5.69
731.811	18.69
731.836	0.69
731.861	-7.31
731.886	-7.31
731.911	-2.31
731.936	22.69
731.961	6.69
731.986	3.69
732.01	-6.31
732.035	1.69
732.06	9.69
732.085	-3.31
732.11	5.69
732.135	-6.31
732.16	-17.31
732.184	-4.31
732.209	4.69
732.234	-7.31
732.259	-7.31
732.284	8.69
732.309	-5.31
732.334	-1.31
732.358	-11.31
732.383	-15.31
732.408	-13.31
732.433	0.69
732.458	4.69
732.482	8.69
732.507	-0.31
732.532	0.69
732.557	2.69
732.582	16.69
732.607	9.69
732.631	-4.31
732.656	-11.31
732.681	15.69
732.706	-9.31
732.73	-1.31
732.755	1.69
732.78	2.69
732.805	-0.31
732.83	-24.31
732.854	0.69
732.879	8.69
732.904	-0.31
732.929	7.69
732.953	6.69
732.978	11.69
733.003	-9.31
733.028	-5.31
733.052	-0.31
733.077	-5.31
733.102	-1.31
733.127	-1.31
733.151	-12.31
733.176	-4.31
733.201	-15.31
733.226	-10.31
733.25	5.69
733.275	-0.31
733.3	-1.31
733.324	12.69
733.349	5.69
733.374	15.69
733.399	-5.31
733.423	-2.31
733.448	-1.31
733.473	4.69
733.497	-3.31
733.522	-8.31
733.547	9.69
733.571	9.69
733.596	3.69
733.621	0.69
733.646	-2.31
733.67	-4.31
733.695	-8.31
733.72	5.69
733.744	14.69
733.769	10.69
733.794	11.69
733.818	5.69
733.843	-9.31
733.867	-5.31
733.892	-0.31
733.917	-8.31
733.941	1.69
733.966	7.69
733.991	-4.31
734.015	18.69
734.04	-6.31
734.065	1.69
734.089	8.69
734.114	-7.31
734.138	2.69
734.163	2.69
734.188	8.69
734.212	2.69
734.237	-4.31
734.261	-3.31
734.286	0.69
734.311	-6.31
734.335	4.69
734.36	-10.31
734.384	6.69
734.409	-1.31
734.434	-7.31
734.458	4.69
734.483	-7.31
734.507	-5.31
734.532	-9.31
734.556	3.69
734.581	-1.31
734.606	-17.31
734.63	-6.31
734.655	-3.31
734.679	11.69
734.704	-8.31
734.728	-0.31
734.753	-9.31
734.777	6.69
734.802	2.69
734.826	0.69
734.851	11.69
734.876	18.69
734.9	19.69
734.925	5.69
734.949	11.69
734.974	20.69
734.998	-0.31
735.023	-8.31
735.047	-22.31
735.072	11.69
735.096	8.69
735.121	6.69
735.145	4.69
735.17	-0.31
735.194	20.69
735.219	-4.31
735.243	4.69
735.268	7.69
735.292	-1.31
735.317	9.69
735.341	-5.31
735.365	-20.31
735.39	6.69
735.414	9.69
735.439	16.69
735.463	3.69
735.488	10.69
735.512	-9.31
735.537	-1.31
735.561	-0.31
735.586	6.69
735.61	7.69
735.634	8.69
735.659	10.69
735.683	17.69
735.708	1.69
735.732	0.69
735.757	-13.31
735.781	7.69
735.805	15.69
735.83	-21.31
735.854	-5.31
735.879	-2.31
735.903	6.69
735.927	-3.31
735.952	4.69
735.976	-16.31
736.001	-5.31
736.025	-7.31
736.049	-1.31
736.074	-0.31
736.098	-5.31
736.123	-6.31
736.147	-9.31
736.171	2.69
736.196	7.69
736.22	-10.31
736.244	0.69
736.269	9.69
736.293	2.69
736.317	-1.31
736.342	-0.31
736.366	20.69
736.39	6.69
736.415	0.69
736.439	0.69
736.463	3.69
736.488	7.69
736.512	10.69
736.536	8.69
736.561	20.69
736.585	5.69
736.609	5.69
736.634	-12.31
736.658	11.69
736.682	-9.31
736.707	-20.31
736.731	-8.31
736.755	5.69
736.78	8.69
736.804	5.69
736.828	-0.31
736.852	-8.31
736.877	1.69
736.901	4.69
736.925	4.69
736.949	-2.31
736.974	3.69
736.998	-14.31
737.022	14.69
737.047	-0.31
737.071	6.69
737.095	-1.31
737.119	11.69
737.144	12.69
737.168	7.69
737.192	-2.31
737.216	3.69
737.241	-7.31
737.265	7.69
737.289	-3.31
737.313	3.69
737.337	8.69
737.362	18.69
737.386	4.69
737.41	-15.31
737.434	-1.31
737.459	4.69
737.483	8.69
737.507	-0.31
737.531	12.69
737.555	-1.31
737.58	7.69
737.604	5.69
737.628	-14.31
737.652	0.69
737.676	-9.31
737.701	-4.31
737.725	2.69
737.749	2.69
737.773	-8.31
737.797	-6.31
737.821	8.69
737.846	8.69
737.87	26.69
737.894	1.69
737.918	-6.31
737.942	-7.31
737.966	5.69
737.99	9.69
738.015	-5.31
738.039	-3.31
738.063	-5.31
738.087	10.69
738.111	10.69
738.135	-2.31
738.159	-3.31
738.184	-3.31
738.208	11.69
738.232	6.69
738.256	22.69
738.28	3.69
738.304	14.69
738.328	-4.31
738.352	2.69
738.376	-3.31
738.4	19.69
738.425	8.69
738.449	10.69
738.473	25.69
738.497	-1.31
738.521	-4.31
738.545	10.69
738.569	3.69
738.593	10.69
738.617	2.69
738.641	9.69
738.665	2.69
738.689	-9.31
738.713	-9.31
738.737	-5.31
738.762	23.69
738.786	12.69
738.81	-17.31
738.834	9.69
738.858	-4.31
738.882	-1.31
738.906	-9.31
738.93	4.69
738.954	2.69
738.978	5.69
739.002	1.69
739.026	-1.31
739.05	0.69
739.074	-1.31
739.098	17.69
739.122	16.69
739.146	-7.31
739.17	16.69
739.194	8.69
739.218	-21.31
739.242	-0.31
739.266	2.69
739.29	1.69
739.314	8.69
739.338	1.69
739.362	-9.31
739.386	3.69
739.41	-3.31
739.434	0.69
739.458	12.69
739.482	2.69
739.506	4.69
739.53	-5.31
739.554	2.69
739.577	-10.31
739.601	19.69
739.625	-7.31
739.649	-6.31
739.673	4.69
739.697	12.69
739.721	2.69
739.745	-1.31
739.769	4.69
739.793	11.69
739.817	-2.31
739.841	-23.31
739.865	-1.31
739.889	-6.31
739.912	-8.31
739.936	-6.31
739.96	-9.31
739.984	6.69
740.008	3.69
740.032	-4.31
740.056	12.69
740.08	7.69
740.104	-13.31
740.127	8.69
740.151	0.69
740.175	10.69
740.199	6.69
740.223	40.69
740.247	3.69
740.271	6.69
740.295	6.69
740.318	-17.31
740.342	-7.31
740.366	4.69
740.39	18.69
740.414	-3.31
740.438	9.69
740.461	6.69
740.485	10.69
740.509	-6.31
740.533	-9.31
740.557	-9.31
740.581	-3.31
740.604	-17.31
740.628	-7.31
740.652	0.69
740.676	6.69
740.7	11.69
740.723	0.69
740.747	-9.31
740.771	4.69
740.795	-12.31
740.819	6.69
740.842	-0.31
740.866	9.69
740.89	-0.31
740.914	-5.31
740.938	-12.31
740.961	6.69
740.985	16.69
741.009	-1.31
741.033	4.69
741.056	8.69
741.08	-0.31
741.104	0.69
741.128	-3.31
741.151	-6.31
741.175	12.69
741.199	6.69
741.223	12.69
741.246	-5.31
741.27	3.69
741.294	11.69
741.318	-7.31
741.341	-5.31
741.365	12.69
741.389	11.69
741.413	-2.31
741.436	7.69
741.46	-6.31
741.484	20.69
741.507	-3.31
741.531	21.69
741.555	7.69
741.579	-8.31
741.602	3.69
741.626	8.69
741.65	-4.31
741.673	-9.31
741.697	5.69
741.721	3.69
741.744	-12.31
741.768	-0.31
741.792	-1.31
741.815	4.69
741.839	28.69
741.863	12.69
741.886	8.69
741.91	1.69
741.934	4.69
741.957	-26.31
741.981	16.69
742.005	1.69
742.028	-3.31
742.052	-11.31
742.075	5.69
742.099	17.69
742.123	-3.31
742.146	-3.31
742.17	-2.31
742.194	-8.31
742.217	-1.31
742.241	-9.31
742.264	-9.31
742.288	10.69
742.312	13.69
742.335	-0.31
742.359	18.69
742.382	8.69
742.406	9.69
742.43	-10.31
742.453	-1.31
742.477	-1.31
742.5	0.69
742.524	-13.31
742.548	-9.31
742.571	4.69
742.595	-1.31
742.618	-1.31
742.642	-1.31
742.665	-1.31
742.689	11.69
742.712	11.69
742.736	10.69
742.76	-6.31
742.783	-6.31
742.807	-1.31
742.83	9.69
742.854	-5.31
742.877	-9.31
742.901	-3.31
742.924	-0.31
742.948	-8.31
742.971	-5.31
742.995	-5.31
743.018	-14.31
743.042	-6.31
743.065	-11.31
743.089	-15.31
743.112	-3.31
743.136	-13.31
743.159	-14.31
743.183	-16.31
743.206	11.69
743.23	0.69
743.253	-3.31
743.277	7.69
743.3	-13.31
743.324	-2.31
743.347	-9.31
743.371	15.69
743.394	23.69
743.418	19.69
743.441	7.69
743.465	-6.31
743.488	-3.31
743.512	-7.31
743.535	-11.31
743.558	-6.31
743.582	10.69
743.605	-7.31
743.629	3.69
743.652	4.69
743.676	6.69
743.699	-3.31
743.723	-1.31
743.746	6.69
743.769	-0.31
743.793	-1.31
743.816	7.69
743.84	9.69
743.863	-10.31
743.886	2.69
743.91	3.69
743.933	5.69
743.957	8.69
743.98	-3.31
744.003	4.69
744.027	5.69
744.05	-6.31
744.074	-4.31
744.097	-6.31
744.12	0.69
744.144	1.69
744.167	17.69
744.19	-5.31
744.214	1.69
744.237	-5.31
744.26	10.69
744.284	4.69
744.307	-17.31
744.331	10.69
744.354	-0.31
744.377	-9.31
744.401	7.69
744.424	0.69
744.447	-23.31
744.471	-9.31
