Data from HighRes_H2_15_09_11_07_2024_HR4C61891__93__15-11-05-702.txt Node

Date: Thu Nov 07 15:11:05 EST 2024
User: crc00042
Spectrometer: HR4C6189
Trigger mode: 4
Integration Time (sec): 1.000000E-1
Scans to average: 1
Electric dark correction enabled: true
Nonlinearity correction enabled: false
Boxcar width: 0
XAxis mode: Wavelengths
Number of Pixels in Spectrum: 3648
>>>>>Begin Spectral Data<<<<<
639.567	-54.69
639.602	-54.69
639.636	-54.69
639.67	-40.69
639.704	-28.69
639.738	-12.69
639.773	16.31
639.807	-10.69
639.841	-8.69
639.875	16.31
639.909	0.31
639.943	-5.69
639.978	-9.69
640.012	-0.69
640.046	20.31
640.08	5.31
640.114	0.31
640.148	-10.69
640.182	-9.69
640.217	-12.69
640.251	4.31
640.285	10.31
640.319	-22.69
640.353	0.31
640.387	-5.69
640.421	-14.69
640.455	-3.69
640.49	0.31
640.524	1.31
640.558	5.31
640.592	-5.69
640.626	1.31
640.66	6.31
640.694	6.31
640.728	6.31
640.762	16.31
640.796	15.31
640.83	11.31
640.865	-18.69
640.899	-0.69
640.933	-7.69
640.967	0.31
641.001	-16.69
641.035	-4.69
641.069	0.31
641.103	3.31
641.137	9.31
641.171	-10.69
641.205	-2.69
641.239	0.31
641.273	22.31
641.307	3.31
641.341	-15.69
641.375	12.31
641.409	-12.69
641.443	4.31
641.477	11.31
641.511	6.31
641.545	5.31
641.579	-3.69
641.614	7.31
641.648	6.31
641.682	0.31
641.716	5.31
641.75	7.31
641.784	-4.69
641.818	-20.69
641.852	-1.69
641.886	2.31
641.919	27.31
641.953	-1.69
641.987	-11.69
642.021	-0.69
642.055	-3.69
642.089	-8.69
642.123	-26.69
642.157	-20.69
642.191	-10.69
642.225	0.31
642.259	1.31
642.293	12.31
642.327	1.31
642.361	2.31
642.395	14.31
642.429	29.31
642.463	5.31
642.497	11.31
642.531	-0.69
642.565	4.31
642.599	25.31
642.633	-31.69
642.666	12.31
642.7	1.31
642.734	13.31
642.768	-7.69
642.802	2.31
642.836	1.31
642.87	8.31
642.904	-8.69
642.938	8.31
642.972	1.31
643.005	-3.69
643.039	-8.69
643.073	2.31
643.107	4.31
643.141	0.31
643.175	4.31
643.209	-8.69
643.243	6.31
643.276	19.31
643.31	5.31
643.344	1.31
643.378	-8.69
643.412	-2.69
643.446	12.31
643.48	-5.69
643.513	4.31
643.547	6.31
643.581	4.31
643.615	12.31
643.649	1.31
643.683	22.31
643.716	-4.69
643.75	-14.69
643.784	-7.69
643.818	-0.69
643.852	-13.69
643.886	-6.69
643.919	5.31
643.953	-6.69
643.987	-5.69
644.021	18.31
644.055	8.31
644.088	-7.69
644.122	0.31
644.156	-11.69
644.19	-6.69
644.224	6.31
644.257	3.31
644.291	-7.69
644.325	-1.69
644.359	11.31
644.392	15.31
644.426	7.31
644.46	5.31
644.494	-16.69
644.527	-3.69
644.561	-1.69
644.595	5.31
644.629	17.31
644.662	7.31
644.696	24.31
644.73	14.31
644.764	8.31
644.797	4.31
644.831	3.31
644.865	16.31
644.899	2.31
644.932	16.31
644.966	-8.69
645	2.31
645.033	8.31
645.067	6.31
645.101	15.31
645.135	-4.69
645.168	-1.69
645.202	-6.69
645.236	11.31
645.269	5.31
645.303	-16.69
645.337	0.31
645.37	-5.69
645.404	2.31
645.438	2.31
645.471	11.31
645.505	20.31
645.539	2.31
645.572	-8.69
645.606	-0.69
645.64	2.31
645.673	9.31
645.707	13.31
645.741	2.31
645.774	-11.69
645.808	6.31
645.842	-14.69
645.875	2.31
645.909	4.31
645.943	-0.69
645.976	7.31
646.01	10.31
646.043	11.31
646.077	6.31
646.111	11.31
646.144	21.31
646.178	5.31
646.212	-11.69
646.245	-11.69
646.279	-6.69
646.312	-4.69
646.346	16.31
646.38	-1.69
646.413	-11.69
646.447	11.31
646.48	6.31
646.514	14.31
646.547	-14.69
646.581	-14.69
646.615	-0.69
646.648	-10.69
646.682	-1.69
646.715	1.31
646.749	6.31
646.782	13.31
646.816	-1.69
646.85	10.31
646.883	2.31
646.917	7.31
646.95	1.31
646.984	0.31
647.017	-10.69
647.051	-2.69
647.084	4.31
647.118	3.31
647.151	4.31
647.185	6.31
647.218	-29.69
647.252	-5.69
647.285	-11.69
647.319	-9.69
647.353	6.31
647.386	11.31
647.42	8.31
647.453	-2.69
647.487	-8.69
647.52	-1.69
647.553	-9.69
647.587	1.31
647.62	1.31
647.654	18.31
647.687	2.31
647.721	19.31
647.754	6.31
647.788	2.31
647.821	6.31
647.855	13.31
647.888	12.31
647.922	-4.69
647.955	6.31
647.989	-0.69
648.022	0.31
648.055	17.31
648.089	4.31
648.122	32.31
648.156	-2.69
648.189	-0.69
648.223	4.31
648.256	7.31
648.29	-0.69
648.323	1.31
648.356	-11.69
648.39	7.31
648.423	6.31
648.457	-4.69
648.49	4.31
648.523	-1.69
648.557	-7.69
648.59	11.31
648.624	-0.69
648.657	6.31
648.69	18.31
648.724	3.31
648.757	6.31
648.791	14.31
648.824	16.31
648.857	21.31
648.891	8.31
648.924	-1.69
648.957	15.31
648.991	-1.69
649.024	2.31
649.057	-3.69
649.091	-4.69
649.124	11.31
649.158	-0.69
649.191	16.31
649.224	7.31
649.258	10.31
649.291	17.31
649.324	7.31
649.358	10.31
649.391	12.31
649.424	15.31
649.458	4.31
649.491	0.31
649.524	2.31
649.557	0.31
649.591	-23.69
649.624	13.31
649.657	-17.69
649.691	4.31
649.724	-7.69
649.757	2.31
649.791	-5.69
649.824	17.31
649.857	5.31
649.89	11.31
649.924	-8.69
649.957	-24.69
649.99	-8.69
650.023	-9.69
650.057	-3.69
650.09	7.31
650.123	0.31
650.157	2.31
650.19	11.31
650.223	-3.69
650.256	1.31
650.29	-8.69
650.323	0.31
650.356	4.31
650.389	-6.69
650.423	-4.69
650.456	6.31
650.489	0.31
650.522	6.31
650.555	27.31
650.589	14.31
650.622	2.31
650.655	24.31
650.688	8.31
650.721	-1.69
650.755	3.31
650.788	9.31
650.821	1.31
650.854	-0.69
650.887	11.31
650.921	7.31
650.954	-5.69
650.987	3.31
651.02	5.31
651.053	-2.69
651.087	-2.69
651.12	17.31
651.153	0.31
651.186	-2.69
651.219	-0.69
651.252	-0.69
651.286	1.31
651.319	-13.69
651.352	7.31
651.385	10.31
651.418	3.31
651.451	0.31
651.484	-3.69
651.518	-8.69
651.551	24.31
651.584	-7.69
651.617	8.31
651.65	3.31
651.683	5.31
651.716	-12.69
651.749	-28.69
651.783	-12.69
651.816	-6.69
651.849	3.31
651.882	-4.69
651.915	1.31
651.948	5.31
651.981	-8.69
652.014	-7.69
652.047	6.31
652.08	-13.69
652.114	-1.69
652.147	-13.69
652.18	7.31
652.213	33.31
652.246	5.31
652.279	-17.69
652.312	7.31
652.345	7.31
652.378	15.31
652.411	5.31
652.444	-2.69
652.477	-1.69
652.51	-0.69
652.543	-22.69
652.576	0.31
652.609	-15.69
652.642	-0.69
652.675	18.31
652.709	-5.69
652.742	-8.69
652.775	6.31
652.808	11.31
652.841	3.31
652.874	-6.69
652.907	1.31
652.94	-14.69
652.973	0.31
653.006	-10.69
653.039	1.31
653.072	2.31
653.105	-8.69
653.138	-5.69
653.171	-3.69
653.204	-8.69
653.237	12.31
653.27	-11.69
653.303	5.31
653.336	3.31
653.368	-5.69
653.401	-4.69
653.434	-6.69
653.467	11.31
653.5	-24.69
653.533	-12.69
653.566	3.31
653.599	-10.69
653.632	2.31
653.665	3.31
653.698	-7.69
653.731	-6.69
653.764	1.31
653.797	0.31
653.83	2.31
653.863	9.31
653.896	-5.69
653.929	-5.69
653.961	0.31
653.994	1.31
654.027	-8.69
654.06	22.31
654.093	17.31
654.126	4.31
654.159	-11.69
654.192	-18.69
654.225	-4.69
654.258	-20.69
654.29	-1.69
654.323	1.31
654.356	1.31
654.389	6.31
654.422	0.31
654.455	-10.69
654.488	-2.69
654.521	-7.69
654.553	-13.69
654.586	4.31
654.619	-13.69
654.652	-10.69
654.685	10.31
654.718	8.31
654.751	7.31
654.783	1.31
654.816	18.31
654.849	-5.69
654.882	-2.69
654.915	-18.69
654.948	4.31
654.98	-0.69
655.013	-12.69
655.046	-2.69
655.079	-1.69
655.112	11.31
655.144	-7.69
655.177	6.31
655.21	13.31
655.243	17.31
655.276	8.31
655.308	-10.69
655.341	-12.69
655.374	2.31
655.407	-0.69
655.44	7.31
655.472	12.31
655.505	0.31
655.538	10.31
655.571	25.31
655.603	8.31
655.636	0.31
655.669	19.31
655.702	27.31
655.734	-3.69
655.767	14.31
655.8	2.31
655.833	16.31
655.865	32.31
655.898	40.31
655.931	25.31
655.964	28.31
655.996	55.31
656.029	68.31
656.062	37.31
656.095	58.31
656.127	65.31
656.16	116.31
656.193	120.31
656.225	186.31
656.258	260.31
656.291	518.31
656.324	1106.31
656.356	3298.31
656.389	7531.31
656.422	6056.31
656.454	2052.31
656.487	663.31
656.52	245.31
656.552	122.31
656.585	75.31
656.618	64.31
656.65	38.31
656.683	24.31
656.716	20.31
656.748	-0.69
656.781	18.31
656.814	-2.69
656.846	11.31
656.879	-1.69
656.912	1.31
656.944	-6.69
656.977	-2.69
657.01	13.31
657.042	-1.69
657.075	19.31
657.108	-13.69
657.14	13.31
657.173	25.31
657.205	32.31
657.238	-1.69
657.271	-1.69
657.303	-7.69
657.336	-0.69
657.369	2.31
657.401	5.31
657.434	4.31
657.466	3.31
657.499	-0.69
657.532	5.31
657.564	18.31
657.597	3.31
657.629	-0.69
657.662	0.31
657.694	-0.69
657.727	-8.69
657.76	8.31
657.792	2.31
657.825	-3.69
657.857	-13.69
657.89	2.31
657.922	10.31
657.955	-2.69
657.987	6.31
658.02	15.31
658.053	1.31
658.085	-0.69
658.118	15.31
658.15	8.31
658.183	13.31
658.215	0.31
658.248	6.31
658.28	4.31
658.313	17.31
658.345	-6.69
658.378	-8.69
658.41	-15.69
658.443	9.31
658.475	13.31
658.508	-1.69
658.54	-0.69
658.573	-14.69
658.605	-6.69
658.638	-11.69
658.67	-11.69
658.703	7.31
658.735	-8.69
658.768	5.31
658.8	-10.69
658.833	20.31
658.865	16.31
658.898	12.31
658.93	-0.69
658.963	-0.69
658.995	-17.69
659.028	-9.69
659.06	5.31
659.092	7.31
659.125	4.31
659.157	8.31
659.19	-9.69
659.222	9.31
659.255	6.31
659.287	7.31
659.32	-7.69
659.352	-0.69
659.384	-20.69
659.417	9.31
659.449	10.31
659.482	7.31
659.514	-21.69
659.546	-22.69
659.579	-28.69
659.611	21.31
659.644	-2.69
659.676	-5.69
659.708	-6.69
659.741	2.31
659.773	9.31
659.806	22.31
659.838	-8.69
659.87	-7.69
659.903	-18.69
659.935	-1.69
659.967	6.31
660	15.31
660.032	-9.69
660.065	5.31
660.097	-4.69
660.129	-1.69
660.162	3.31
660.194	13.31
660.226	11.31
660.259	5.31
660.291	5.31
660.323	12.31
660.356	-4.69
660.388	0.31
660.42	-3.69
660.453	4.31
660.485	-4.69
660.517	8.31
660.55	3.31
660.582	-15.69
660.614	5.31
660.647	-10.69
660.679	-14.69
660.711	0.31
660.743	-2.69
660.776	-14.69
660.808	-13.69
660.84	0.31
660.873	8.31
660.905	-0.69
660.937	14.31
660.969	4.31
661.002	6.31
661.034	10.31
661.066	-0.69
661.099	8.31
661.131	11.31
661.163	3.31
661.195	0.31
661.228	26.31
661.26	-20.69
661.292	6.31
661.324	19.31
661.357	23.31
661.389	8.31
661.421	15.31
661.453	-1.69
661.485	-1.69
661.518	1.31
661.55	-11.69
661.582	-16.69
661.614	-9.69
661.647	-6.69
661.679	-11.69
661.711	-0.69
661.743	-13.69
661.775	-5.69
661.808	12.31
661.84	-17.69
661.872	-6.69
661.904	-18.69
661.936	1.31
661.969	-4.69
662.001	-9.69
662.033	0.31
662.065	-18.69
662.097	7.31
662.129	1.31
662.162	4.31
662.194	-0.69
662.226	6.31
662.258	4.31
662.29	-14.69
662.322	-10.69
662.355	-10.69
662.387	21.31
662.419	13.31
662.451	7.31
662.483	12.31
662.515	-18.69
662.547	-10.69
662.58	-15.69
662.612	-13.69
662.644	-26.69
662.676	14.31
662.708	19.31
662.74	-5.69
662.772	13.31
662.804	-1.69
662.836	11.31
662.869	-2.69
662.901	0.31
662.933	0.31
662.965	1.31
662.997	20.31
663.029	-9.69
663.061	-11.69
663.093	-14.69
663.125	2.31
663.157	9.31
663.189	-2.69
663.221	12.31
663.254	3.31
663.286	10.31
663.318	1.31
663.35	-11.69
663.382	2.31
663.414	18.31
663.446	3.31
663.478	-10.69
663.51	24.31
663.542	-13.69
663.574	-8.69
663.606	2.31
663.638	-6.69
663.67	-19.69
663.702	-11.69
663.734	-4.69
663.766	22.31
663.798	-7.69
663.83	8.31
663.862	-9.69
663.894	1.31
663.926	-13.69
663.958	-3.69
663.99	-1.69
664.022	6.31
664.054	18.31
664.086	-7.69
664.118	-13.69
664.15	-11.69
664.182	7.31
664.214	9.31
664.246	1.31
664.278	-9.69
664.31	5.31
664.342	-5.69
664.374	-5.69
664.406	-10.69
664.438	-20.69
664.47	7.31
664.502	6.31
664.534	-11.69
664.566	-6.69
664.598	5.31
664.63	-10.69
664.662	1.31
664.693	0.31
664.725	-21.69
664.757	-7.69
664.789	-8.69
664.821	14.31
664.853	11.31
664.885	0.31
664.917	-1.69
664.949	9.31
664.981	18.31
665.013	-3.69
665.045	-12.69
665.076	-12.69
665.108	-1.69
665.14	-5.69
665.172	14.31
665.204	1.31
665.236	11.31
665.268	16.31
665.3	-0.69
665.331	-7.69
665.363	8.31
665.395	-17.69
665.427	-5.69
665.459	14.31
665.491	6.31
665.523	4.31
665.555	-21.69
665.586	3.31
665.618	-4.69
665.65	-6.69
665.682	2.31
665.714	13.31
665.746	6.31
665.777	-1.69
665.809	2.31
665.841	-1.69
665.873	-6.69
665.905	10.31
665.937	16.31
665.968	-5.69
666	14.31
666.032	14.31
666.064	7.31
666.096	-4.69
666.127	-7.69
666.159	8.31
666.191	-2.69
666.223	-9.69
666.255	1.31
666.286	6.31
666.318	-6.69
666.35	21.31
666.382	-4.69
666.413	-23.69
666.445	-17.69
666.477	-18.69
666.509	-10.69
666.54	-2.69
666.572	-11.69
666.604	6.31
666.636	4.31
666.667	14.31
666.699	4.31
666.731	22.31
666.763	-4.69
666.794	-10.69
666.826	9.31
666.858	-19.69
666.89	11.31
666.921	0.31
666.953	3.31
666.985	7.31
667.017	0.31
667.048	13.31
667.08	0.31
667.112	8.31
667.143	-3.69
667.175	-5.69
667.207	-1.69
667.238	18.31
667.27	0.31
667.302	6.31
667.334	-17.69
667.365	7.31
667.397	-7.69
667.429	3.31
667.46	12.31
667.492	8.31
667.524	-11.69
667.555	-12.69
667.587	2.31
667.619	5.31
667.65	1.31
667.682	7.31
667.714	-7.69
667.745	3.31
667.777	-5.69
667.808	3.31
667.84	9.31
667.872	-7.69
667.903	18.31
667.935	-0.69
667.967	-13.69
667.998	-4.69
668.03	-18.69
668.061	-1.69
668.093	0.31
668.125	1.31
668.156	3.31
668.188	-8.69
668.22	-11.69
668.251	0.31
668.283	18.31
668.314	-2.69
668.346	-11.69
668.377	-8.69
668.409	-23.69
668.441	15.31
668.472	2.31
668.504	24.31
668.535	17.31
668.567	13.31
668.599	1.31
668.63	-9.69
668.662	2.31
668.693	6.31
668.725	-0.69
668.756	7.31
668.788	1.31
668.819	2.31
668.851	7.31
668.882	6.31
668.914	-10.69
668.946	-5.69
668.977	-10.69
669.009	-7.69
669.04	-16.69
669.072	-3.69
669.103	0.31
669.135	-9.69
669.166	-7.69
669.198	-0.69
669.229	3.31
669.261	-4.69
669.292	-7.69
669.324	4.31
669.355	-0.69
669.387	-6.69
669.418	2.31
669.45	-7.69
669.481	19.31
669.513	6.31
669.544	1.31
669.576	-1.69
669.607	7.31
669.639	11.31
669.67	-8.69
669.701	5.31
669.733	-3.69
669.764	2.31
669.796	-5.69
669.827	-8.69
669.859	9.31
669.89	6.31
669.922	13.31
669.953	8.31
669.985	2.31
670.016	14.31
670.047	10.31
670.079	-16.69
670.11	-0.69
670.142	12.31
670.173	-2.69
670.204	-1.69
670.236	13.31
670.267	1.31
670.299	-5.69
670.33	-6.69
670.362	7.31
670.393	-6.69
670.424	-9.69
670.456	-34.69
670.487	1.31
670.518	-13.69
670.55	-1.69
670.581	-2.69
670.613	-7.69
670.644	-9.69
670.675	-31.69
670.707	-15.69
670.738	-5.69
670.769	-3.69
670.801	-7.69
670.832	8.31
670.864	-29.69
670.895	0.31
670.926	-0.69
670.958	-4.69
670.989	2.31
671.02	14.31
671.052	8.31
671.083	9.31
671.114	-5.69
671.146	11.31
671.177	-8.69
671.208	-13.69
671.24	-10.69
671.271	-1.69
671.302	-6.69
671.333	2.31
671.365	-2.69
671.396	-9.69
671.427	14.31
671.459	-5.69
671.49	-8.69
671.521	15.31
671.553	6.31
671.584	5.31
671.615	-6.69
671.646	-2.69
671.678	9.31
671.709	-4.69
671.74	-28.69
671.771	-14.69
671.803	-1.69
671.834	-2.69
671.865	-12.69
671.896	-8.69
671.928	-1.69
671.959	6.31
671.99	-2.69
672.021	1.31
672.053	-17.69
672.084	-2.69
672.115	0.31
672.146	-11.69
672.178	-8.69
672.209	-7.69
672.24	-14.69
672.271	27.31
672.303	3.31
672.334	-0.69
672.365	-1.69
672.396	-1.69
672.427	12.31
672.459	7.31
672.49	24.31
672.521	5.31
672.552	-9.69
672.583	0.31
672.615	3.31
672.646	-6.69
672.677	-11.69
672.708	-2.69
672.739	-14.69
672.77	1.31
672.802	-0.69
672.833	10.31
672.864	7.31
672.895	5.31
672.926	-2.69
672.957	-28.69
672.989	-2.69
673.02	1.31
673.051	0.31
673.082	-5.69
673.113	-1.69
673.144	5.31
673.175	4.31
673.206	-10.69
673.238	-1.69
673.269	-5.69
673.3	-7.69
673.331	21.31
673.362	-1.69
673.393	0.31
673.424	0.31
673.455	3.31
673.487	0.31
673.518	12.31
673.549	-0.69
673.58	-7.69
673.611	5.31
673.642	19.31
673.673	-15.69
673.704	1.31
673.735	-0.69
673.766	14.31
673.797	1.31
673.828	-8.69
673.86	-9.69
673.891	-5.69
673.922	-11.69
673.953	-6.69
673.984	-2.69
674.015	-9.69
674.046	6.31
674.077	-10.69
674.108	-8.69
674.139	-2.69
674.17	-5.69
674.201	-12.69
674.232	-1.69
674.263	2.31
674.294	4.31
674.325	-16.69
674.356	-6.69
674.387	13.31
674.418	-0.69
674.449	-10.69
674.48	-13.69
674.511	7.31
674.542	16.31
674.573	2.31
674.604	13.31
674.635	-8.69
674.666	16.31
674.697	13.31
674.728	-4.69
674.759	4.31
674.79	2.31
674.821	7.31
674.852	2.31
674.883	-8.69
674.914	-7.69
674.945	-3.69
674.976	-0.69
675.007	-7.69
675.038	-9.69
675.069	-8.69
675.1	-1.69
675.131	-3.69
675.162	-5.69
675.193	-7.69
675.224	-14.69
675.254	-10.69
675.285	-2.69
675.316	3.31
675.347	-7.69
675.378	1.31
675.409	-6.69
675.44	-5.69
675.471	2.31
675.502	-9.69
675.533	12.31
675.564	0.31
675.595	-20.69
675.625	9.31
675.656	0.31
675.687	-9.69
675.718	-16.69
675.749	0.31
675.78	-5.69
675.811	-27.69
675.842	7.31
675.873	-11.69
675.903	-17.69
675.934	-4.69
675.965	-6.69
675.996	-23.69
676.027	10.31
676.058	14.31
676.089	-16.69
676.119	4.31
676.15	12.31
676.181	-12.69
676.212	-9.69
676.243	7.31
676.274	-9.69
676.304	4.31
676.335	-5.69
676.366	6.31
676.397	-7.69
676.428	-7.69
676.459	-1.69
676.489	2.31
676.52	9.31
676.551	-3.69
676.582	-19.69
676.613	-2.69
676.643	-11.69
676.674	2.31
676.705	1.31
676.736	13.31
676.767	0.31
676.797	2.31
676.828	-1.69
676.859	-7.69
676.89	1.31
676.92	10.31
676.951	11.31
676.982	14.31
677.013	4.31
677.044	19.31
677.074	-7.69
677.105	-20.69
677.136	10.31
677.167	3.31
677.197	-1.69
677.228	-2.69
677.259	-7.69
677.289	-7.69
677.32	-14.69
677.351	-12.69
677.382	-11.69
677.412	-7.69
677.443	-5.69
677.474	27.31
677.505	1.31
677.535	2.31
677.566	-19.69
677.597	-9.69
677.627	-13.69
677.658	-12.69
677.689	-3.69
677.72	4.31
677.75	-2.69
677.781	4.31
677.812	-9.69
677.842	3.31
677.873	13.31
677.904	5.31
677.934	-1.69
677.965	-15.69
677.996	-19.69
678.026	-9.69
678.057	-15.69
678.088	-12.69
678.118	3.31
678.149	-2.69
678.18	0.31
678.21	-4.69
678.241	11.31
678.272	-3.69
678.302	-5.69
678.333	3.31
678.363	0.31
678.394	6.31
678.425	8.31
678.455	7.31
678.486	13.31
678.517	2.31
678.547	-7.69
678.578	4.31
678.608	4.31
678.639	8.31
678.67	11.31
678.7	6.31
678.731	-3.69
678.761	-6.69
678.792	8.31
678.823	23.31
678.853	1.31
678.884	0.31
678.914	-1.69
678.945	-5.69
678.975	-2.69
679.006	19.31
679.037	-10.69
679.067	4.31
679.098	5.31
679.128	-0.69
679.159	1.31
679.189	2.31
679.22	-20.69
679.25	5.31
679.281	-21.69
679.312	-0.69
679.342	2.31
679.373	30.31
679.403	13.31
679.434	6.31
679.464	-10.69
679.495	-8.69
679.525	4.31
679.556	-1.69
679.586	-2.69
679.617	1.31
679.647	-9.69
679.678	-6.69
679.708	-6.69
679.739	0.31
679.769	-2.69
679.8	4.31
679.83	-3.69
679.861	7.31
679.891	-7.69
679.922	-16.69
679.952	5.31
679.983	3.31
680.013	1.31
680.044	-12.69
680.074	8.31
680.105	12.31
680.135	-2.69
680.165	13.31
680.196	11.31
680.226	2.31
680.257	14.31
680.287	8.31
680.318	-16.69
680.348	-4.69
680.379	7.31
680.409	-3.69
680.439	2.31
680.47	-8.69
680.5	-6.69
680.531	1.31
680.561	7.31
680.592	6.31
680.622	10.31
680.652	-20.69
680.683	10.31
680.713	-1.69
680.744	-2.69
680.774	2.31
680.804	15.31
680.835	-2.69
680.865	-5.69
680.896	8.31
680.926	9.31
680.956	6.31
680.987	-1.69
681.017	3.31
681.047	-2.69
681.078	-12.69
681.108	-10.69
681.139	11.31
681.169	9.31
681.199	0.31
681.23	-7.69
681.26	-3.69
681.29	-0.69
681.321	-5.69
681.351	8.31
681.381	-11.69
681.412	-7.69
681.442	13.31
681.472	7.31
681.503	18.31
681.533	11.31
681.563	-1.69
681.594	8.31
681.624	-4.69
681.654	-6.69
681.685	5.31
681.715	5.31
681.745	-13.69
681.775	-7.69
681.806	-5.69
681.836	0.31
681.866	-3.69
681.897	5.31
681.927	3.31
681.957	-26.69
681.987	3.31
682.018	-6.69
682.048	-2.69
682.078	-10.69
682.109	12.31
682.139	11.31
682.169	4.31
682.199	0.31
682.23	-3.69
682.26	-8.69
682.29	-5.69
682.32	-9.69
682.351	4.31
682.381	6.31
682.411	-6.69
682.441	-14.69
682.472	2.31
682.502	11.31
682.532	2.31
682.562	4.31
682.592	21.31
682.623	21.31
682.653	0.31
682.683	1.31
682.713	15.31
682.743	-5.69
682.774	-11.69
682.804	17.31
682.834	5.31
682.864	-8.69
682.894	-28.69
682.925	7.31
682.955	0.31
682.985	8.31
683.015	19.31
683.045	2.31
683.076	-20.69
683.106	-9.69
683.136	2.31
683.166	-11.69
683.196	-2.69
683.226	4.31
683.257	2.31
683.287	-3.69
683.317	10.31
683.347	-2.69
683.377	-11.69
683.407	-4.69
683.437	5.31
683.468	2.31
683.498	-12.69
683.528	-4.69
683.558	-0.69
683.588	-11.69
683.618	-2.69
683.648	-7.69
683.678	-0.69
683.708	16.31
683.739	-3.69
683.769	8.31
683.799	7.31
683.829	-7.69
683.859	3.31
683.889	17.31
683.919	15.31
683.949	-4.69
683.979	-4.69
684.009	0.31
684.039	-1.69
684.07	-10.69
684.1	7.31
684.13	13.31
684.16	1.31
684.19	5.31
684.22	10.31
684.25	3.31
684.28	-4.69
684.31	15.31
684.34	11.31
684.37	13.31
684.4	6.31
684.43	-7.69
684.46	3.31
684.49	0.31
684.52	10.31
684.55	2.31
684.58	4.31
684.61	8.31
684.64	4.31
684.67	17.31
684.7	7.31
684.73	2.31
684.76	-7.69
684.79	34.31
684.82	-0.69
684.85	7.31
684.88	15.31
684.91	-6.69
684.94	-18.69
684.97	-10.69
685	-22.69
685.03	-10.69
685.06	-11.69
685.09	11.31
685.12	20.31
685.15	-9.69
685.18	0.31
685.21	2.31
685.24	4.31
685.27	5.31
685.3	-1.69
685.33	5.31
685.36	0.31
685.39	-13.69
685.42	-13.69
685.45	5.31
685.48	1.31
685.51	-10.69
685.54	24.31
685.569	-3.69
685.599	-5.69
685.629	5.31
685.659	-1.69
685.689	-14.69
685.719	14.31
685.749	-8.69
685.779	-4.69
685.809	-10.69
685.839	-5.69
685.869	-0.69
685.898	-1.69
685.928	-6.69
685.958	-1.69
685.988	8.31
686.018	-5.69
686.048	6.31
686.078	-4.69
686.108	0.31
686.137	18.31
686.167	15.31
686.197	-25.69
686.227	-3.69
686.257	19.31
686.287	11.31
686.317	-3.69
686.346	-4.69
686.376	-2.69
686.406	-2.69
686.436	4.31
686.466	4.31
686.496	0.31
686.525	7.31
686.555	-4.69
686.585	16.31
686.615	27.31
686.645	15.31
686.675	17.31
686.704	-2.69
686.734	6.31
686.764	-1.69
686.794	17.31
686.824	-6.69
686.853	7.31
686.883	14.31
686.913	-2.69
686.943	3.31
686.973	-20.69
687.002	19.31
687.032	5.31
687.062	-4.69
687.092	9.31
687.121	5.31
687.151	13.31
687.181	-8.69
687.211	6.31
687.24	-12.69
687.27	8.31
687.3	0.31
687.33	-7.69
687.359	-22.69
687.389	10.31
687.419	6.31
687.449	2.31
687.478	-1.69
687.508	-12.69
687.538	12.31
687.568	-1.69
687.597	-4.69
687.627	14.31
687.657	6.31
687.686	13.31
687.716	21.31
687.746	-23.69
687.776	-13.69
687.805	4.31
687.835	9.31
687.865	4.31
687.894	5.31
687.924	1.31
687.954	-3.69
687.983	7.31
688.013	12.31
688.043	10.31
688.072	11.31
688.102	15.31
688.132	2.31
688.161	-0.69
688.191	1.31
688.221	11.31
688.25	-10.69
688.28	-2.69
688.31	5.31
688.339	9.31
688.369	-16.69
688.399	-5.69
688.428	-21.69
688.458	0.31
688.488	-8.69
688.517	-4.69
688.547	-3.69
688.576	23.31
688.606	2.31
688.636	-10.69
688.665	2.31
688.695	11.31
688.725	6.31
688.754	12.31
688.784	-1.69
688.813	16.31
688.843	2.31
688.873	-1.69
688.902	-14.69
688.932	-20.69
688.961	-1.69
688.991	16.31
689.02	5.31
689.05	-0.69
689.08	7.31
689.109	20.31
689.139	2.31
689.168	17.31
689.198	-8.69
689.227	-1.69
689.257	8.31
689.287	16.31
689.316	-14.69
689.346	-13.69
689.375	-6.69
689.405	8.31
689.434	8.31
689.464	2.31
689.493	-8.69
689.523	-1.69
689.552	-13.69
689.582	-11.69
689.611	-4.69
689.641	1.31
689.67	-3.69
689.7	6.31
689.73	15.31
689.759	10.31
689.789	25.31
689.818	1.31
689.848	4.31
689.877	3.31
689.906	2.31
689.936	-17.69
689.965	1.31
689.995	3.31
690.024	6.31
690.054	-5.69
690.083	2.31
690.113	6.31
690.142	17.31
690.172	-3.69
690.201	7.31
690.231	-1.69
690.26	6.31
690.29	-5.69
690.319	11.31
690.348	3.31
690.378	2.31
690.407	9.31
690.437	1.31
690.466	4.31
690.496	-8.69
690.525	27.31
690.555	-1.69
690.584	-12.69
690.613	-12.69
690.643	11.31
690.672	0.31
690.702	19.31
690.731	-2.69
690.76	0.31
690.79	-9.69
690.819	-5.69
690.849	0.31
690.878	-1.69
690.907	-11.69
690.937	5.31
690.966	7.31
690.996	2.31
691.025	0.31
691.054	1.31
691.084	2.31
691.113	7.31
691.142	2.31
691.172	7.31
691.201	10.31
691.23	10.31
691.26	8.31
691.289	5.31
691.319	3.31
691.348	-1.69
691.377	12.31
691.407	5.31
691.436	7.31
691.465	1.31
691.495	-0.69
691.524	-6.69
691.553	-0.69
691.583	-10.69
691.612	3.31
691.641	-4.69
691.67	9.31
691.7	1.31
691.729	-21.69
691.758	-1.69
691.788	-1.69
691.817	0.31
691.846	-9.69
691.876	-13.69
691.905	11.31
691.934	0.31
691.963	12.31
691.993	-10.69
692.022	-4.69
692.051	1.31
692.081	-0.69
692.11	14.31
692.139	-4.69
692.168	1.31
692.198	19.31
692.227	15.31
692.256	4.31
692.285	0.31
692.315	7.31
692.344	15.31
692.373	16.31
692.402	-7.69
692.432	-14.69
692.461	-11.69
692.49	3.31
692.519	-2.69
692.548	24.31
692.578	5.31
692.607	-18.69
692.636	-16.69
692.665	-2.69
692.694	-4.69
692.724	-1.69
692.753	8.31
692.782	24.31
692.811	-11.69
692.84	8.31
692.87	-0.69
692.899	-23.69
692.928	3.31
692.957	13.31
692.986	9.31
693.016	-0.69
693.045	0.31
693.074	11.31
693.103	9.31
693.132	9.31
693.161	2.31
693.191	-4.69
693.22	-13.69
693.249	-2.69
693.278	-8.69
693.307	8.31
693.336	-12.69
693.365	-18.69
693.395	-6.69
693.424	-1.69
693.453	19.31
693.482	-7.69
693.511	-3.69
693.54	8.31
693.569	18.31
693.598	20.31
693.628	-2.69
693.657	10.31
693.686	23.31
693.715	18.31
693.744	1.31
693.773	3.31
693.802	-4.69
693.831	-11.69
693.86	0.31
693.889	-5.69
693.919	-2.69
693.948	3.31
693.977	8.31
694.006	1.31
694.035	-2.69
694.064	-12.69
694.093	4.31
694.122	1.31
694.151	-15.69
694.18	10.31
694.209	28.31
694.238	8.31
694.267	17.31
694.296	8.31
694.325	-1.69
694.354	7.31
694.383	6.31
694.412	7.31
694.441	-6.69
694.471	-11.69
694.5	0.31
694.529	0.31
694.558	10.31
694.587	22.31
694.616	6.31
694.645	10.31
694.674	8.31
694.703	5.31
694.732	-8.69
694.761	0.31
694.79	20.31
694.819	-0.69
694.848	-1.69
694.877	16.31
694.906	17.31
694.935	2.31
694.963	24.31
694.992	7.31
695.021	5.31
695.05	10.31
695.079	24.31
695.108	-0.69
695.137	8.31
695.166	12.31
695.195	-1.69
695.224	4.31
695.253	4.31
695.282	3.31
695.311	9.31
695.34	12.31
695.369	7.31
695.398	-6.69
695.427	16.31
695.456	4.31
695.485	8.31
695.513	6.31
695.542	-14.69
695.571	5.31
695.6	9.31
695.629	12.31
695.658	16.31
695.687	1.31
695.716	0.31
695.745	22.31
695.774	-1.69
695.802	-1.69
695.831	-8.69
695.86	6.31
695.889	-5.69
695.918	11.31
695.947	12.31
695.976	1.31
696.005	10.31
696.033	8.31
696.062	35.31
696.091	-3.69
696.12	0.31
696.149	26.31
696.178	15.31
696.207	10.31
696.235	-20.69
696.264	21.31
696.293	-0.69
696.322	7.31
696.351	22.31
696.38	1.31
696.408	17.31
696.437	-1.69
696.466	3.31
696.495	11.31
696.524	20.31
696.553	-0.69
696.581	-0.69
696.61	-9.69
696.639	10.31
696.668	10.31
696.697	-17.69
696.725	-1.69
696.754	-10.69
696.783	-6.69
696.812	-5.69
696.84	14.31
696.869	3.31
696.898	-13.69
696.927	8.31
696.956	4.31
696.984	-17.69
697.013	-0.69
697.042	-10.69
697.071	-9.69
697.099	22.31
697.128	19.31
697.157	12.31
697.186	0.31
697.214	17.31
697.243	7.31
697.272	8.31
697.301	-0.69
697.329	6.31
697.358	2.31
697.387	18.31
697.415	6.31
697.444	6.31
697.473	4.31
697.502	-7.69
697.53	5.31
697.559	-1.69
697.588	1.31
697.616	1.31
697.645	-9.69
697.674	11.31
697.703	-4.69
697.731	4.31
697.76	2.31
697.789	6.31
697.817	-6.69
697.846	18.31
697.875	-4.69
697.903	30.31
697.932	11.31
697.961	9.31
697.989	17.31
698.018	11.31
698.047	12.31
698.075	5.31
698.104	2.31
698.133	-6.69
698.161	-2.69
698.19	11.31
698.218	-4.69
698.247	6.31
698.276	-1.69
698.304	1.31
698.333	-3.69
698.362	-14.69
698.39	-15.69
698.419	-3.69
698.447	-3.69
698.476	-9.69
698.505	9.31
698.533	23.31
698.562	0.31
698.591	-15.69
698.619	-5.69
698.648	4.31
698.676	7.31
698.705	2.31
698.733	0.31
698.762	12.31
698.791	-3.69
698.819	16.31
698.848	-3.69
698.876	-0.69
698.905	-8.69
698.933	3.31
698.962	0.31
698.991	3.31
699.019	14.31
699.048	12.31
699.076	-0.69
699.105	-9.69
699.133	-3.69
699.162	10.31
699.19	28.31
699.219	12.31
699.248	11.31
699.276	4.31
699.305	-11.69
699.333	8.31
699.362	-6.69
699.39	22.31
699.419	-8.69
699.447	3.31
699.476	16.31
699.504	3.31
699.533	-1.69
699.561	-2.69
699.59	-4.69
699.618	19.31
699.647	-0.69
699.675	-8.69
699.704	6.31
699.732	-9.69
699.761	3.31
699.789	4.31
699.818	5.31
699.846	-6.69
699.874	1.31
699.903	0.31
699.931	-7.69
699.96	10.31
699.988	-9.69
700.017	-6.69
700.045	-11.69
700.074	-13.69
700.102	-6.69
700.13	-4.69
700.159	9.31
700.187	14.31
700.216	-18.69
700.244	11.31
700.273	4.31
700.301	11.31
700.329	10.31
700.358	10.31
700.386	5.31
700.415	-6.69
700.443	-3.69
700.472	-0.69
700.5	13.31
700.528	21.31
700.557	11.31
700.585	0.31
700.614	7.31
700.642	5.31
700.67	11.31
700.699	22.31
700.727	4.31
700.755	-2.69
700.784	-1.69
700.812	-12.69
700.841	-2.69
700.869	-8.69
700.897	-29.69
700.926	-8.69
700.954	6.31
700.982	2.31
701.011	1.31
701.039	-1.69
701.067	11.31
701.096	5.31
701.124	-10.69
701.152	-7.69
701.181	8.31
701.209	-0.69
701.237	-1.69
701.266	-4.69
701.294	-9.69
701.322	2.31
701.351	13.31
701.379	5.31
701.407	-1.69
701.435	-1.69
701.464	20.31
701.492	13.31
701.52	-6.69
701.549	4.31
701.577	-8.69
701.605	-10.69
701.634	-1.69
701.662	2.31
701.69	1.31
701.718	-6.69
701.747	6.31
701.775	12.31
701.803	11.31
701.831	21.31
701.86	12.31
701.888	12.31
701.916	7.31
701.944	6.31
701.973	-10.69
702.001	-14.69
702.029	-13.69
702.057	-7.69
702.086	-22.69
702.114	2.31
702.142	9.31
702.17	-0.69
702.199	-3.69
702.227	6.31
702.255	6.31
702.283	-11.69
702.311	6.31
702.34	-8.69
702.368	-1.69
702.396	-1.69
702.424	11.31
702.452	5.31
702.481	-5.69
702.509	-0.69
702.537	-0.69
702.565	10.31
702.593	-25.69
702.621	-10.69
702.65	10.31
702.678	14.31
702.706	10.31
702.734	-3.69
702.762	5.31
702.79	-7.69
702.819	7.31
702.847	4.31
702.875	6.31
702.903	5.31
702.931	-7.69
702.959	7.31
702.988	1.31
703.016	-14.69
703.044	-14.69
703.072	-15.69
703.1	-24.69
703.128	4.31
703.156	17.31
703.184	-2.69
703.212	16.31
703.241	-4.69
703.269	-1.69
703.297	-16.69
703.325	0.31
703.353	-7.69
703.381	-2.69
703.409	-4.69
703.437	-16.69
703.465	-1.69
703.493	6.31
703.522	9.31
703.55	-8.69
703.578	-1.69
703.606	-6.69
703.634	-6.69
703.662	-5.69
703.69	8.31
703.718	-12.69
703.746	18.31
703.774	-4.69
703.802	6.31
703.83	-12.69
703.858	-1.69
703.886	-5.69
703.914	-9.69
703.942	7.31
703.97	4.31
703.998	6.31
704.027	10.31
704.055	5.31
704.083	2.31
704.111	-13.69
704.139	2.31
704.167	-5.69
704.195	-10.69
704.223	-0.69
704.251	-4.69
704.279	16.31
704.307	11.31
704.335	-6.69
704.363	14.31
704.391	-8.69
704.419	-3.69
704.447	-4.69
704.475	-3.69
704.503	-2.69
704.531	5.31
704.558	17.31
704.586	0.31
704.614	-5.69
704.642	0.31
704.67	-6.69
704.698	-16.69
704.726	-1.69
704.754	-12.69
704.782	-5.69
704.81	-8.69
704.838	23.31
704.866	-10.69
704.894	-19.69
704.922	-13.69
704.95	18.31
704.978	0.31
705.006	8.31
705.034	3.31
705.061	-5.69
705.089	11.31
705.117	-7.69
705.145	4.31
705.173	4.31
705.201	5.31
705.229	5.31
705.257	6.31
705.285	5.31
705.313	23.31
705.34	1.31
705.368	-12.69
705.396	6.31
705.424	-1.69
705.452	-8.69
705.48	-3.69
705.508	-16.69
705.536	-1.69
705.563	0.31
705.591	23.31
705.619	-9.69
705.647	-2.69
705.675	0.31
705.703	3.31
705.731	1.31
705.758	9.31
705.786	9.31
705.814	21.31
705.842	7.31
705.87	5.31
705.898	9.31
705.925	-7.69
705.953	6.31
705.981	-15.69
706.009	0.31
706.037	5.31
706.065	4.31
706.092	-14.69
706.12	-0.69
706.148	-6.69
706.176	-4.69
706.204	8.31
706.231	4.31
706.259	-11.69
706.287	-8.69
706.315	-5.69
706.342	6.31
706.37	14.31
706.398	-1.69
706.426	-12.69
706.454	-4.69
706.481	19.31
706.509	-1.69
706.537	-0.69
706.565	0.31
706.592	12.31
706.62	6.31
706.648	-1.69
706.676	-2.69
706.703	2.31
706.731	-10.69
706.759	1.31
706.787	2.31
706.814	2.31
706.842	-2.69
706.87	-7.69
706.897	1.31
706.925	6.31
706.953	4.31
706.981	19.31
707.008	-2.69
707.036	-0.69
707.064	-9.69
707.091	-11.69
707.119	5.31
707.147	-3.69
707.174	-13.69
707.202	2.31
707.23	-11.69
707.258	18.31
707.285	-6.69
707.313	1.31
707.341	-9.69
707.368	-9.69
707.396	12.31
707.424	12.31
707.451	2.31
707.479	0.31
707.507	-2.69
707.534	1.31
707.562	3.31
707.59	-5.69
707.617	-13.69
707.645	-6.69
707.672	-0.69
707.7	16.31
707.728	17.31
707.755	14.31
707.783	7.31
707.811	14.31
707.838	-11.69
707.866	-4.69
707.893	-6.69
707.921	-0.69
707.949	-13.69
707.976	0.31
708.004	-5.69
708.031	-8.69
708.059	-6.69
708.087	-10.69
708.114	-7.69
708.142	-17.69
708.169	-3.69
708.197	-1.69
708.225	-13.69
708.252	-18.69
708.28	-8.69
708.307	0.31
708.335	-0.69
708.362	-2.69
708.39	-3.69
708.418	-8.69
708.445	-4.69
708.473	-2.69
708.5	-13.69
708.528	-2.69
708.555	-6.69
708.583	-1.69
708.61	-10.69
708.638	-6.69
708.665	-8.69
708.693	8.31
708.72	-0.69
708.748	-18.69
708.776	-2.69
708.803	21.31
708.831	17.31
708.858	8.31
708.886	2.31
708.913	-8.69
708.941	5.31
708.968	8.31
708.996	-0.69
709.023	12.31
709.051	5.31
709.078	-1.69
709.105	9.31
709.133	-2.69
709.16	6.31
709.188	5.31
709.215	0.31
709.243	7.31
709.27	-8.69
709.298	-8.69
709.325	-9.69
709.353	-13.69
709.38	-4.69
709.408	20.31
709.435	14.31
709.462	0.31
709.49	-1.69
709.517	7.31
709.545	-4.69
709.572	-6.69
709.6	1.31
709.627	15.31
709.655	-7.69
709.682	8.31
709.709	10.31
709.737	1.31
709.764	-6.69
709.792	10.31
709.819	13.31
709.846	-17.69
709.874	21.31
709.901	13.31
709.929	4.31
709.956	-4.69
709.983	-23.69
710.011	-4.69
710.038	-6.69
710.066	5.31
710.093	4.31
710.12	-5.69
710.148	-6.69
710.175	0.31
710.202	-3.69
710.23	12.31
710.257	-1.69
710.284	2.31
710.312	-5.69
710.339	9.31
710.366	-7.69
710.394	-1.69
710.421	12.31
710.448	-0.69
710.476	-9.69
710.503	-3.69
710.53	6.31
710.558	21.31
710.585	8.31
710.612	-7.69
710.64	-4.69
710.667	-9.69
710.694	-4.69
710.722	6.31
710.749	3.31
710.776	6.31
710.804	7.31
710.831	11.31
710.858	-0.69
710.885	2.31
710.913	-3.69
710.94	20.31
710.967	0.31
710.995	0.31
711.022	2.31
711.049	14.31
711.076	-18.69
711.104	-11.69
711.131	-4.69
711.158	-2.69
711.185	3.31
711.213	-14.69
711.24	-30.69
711.267	2.31
711.294	-1.69
711.322	9.31
711.349	2.31
711.376	-2.69
711.403	9.31
711.431	-16.69
711.458	6.31
711.485	-1.69
711.512	-8.69
711.54	-6.69
711.567	2.31
711.594	-23.69
711.621	-4.69
711.648	-8.69
711.676	-7.69
711.703	-1.69
711.73	-18.69
711.757	-13.69
711.784	-7.69
711.812	3.31
711.839	11.31
711.866	0.31
711.893	-12.69
711.92	5.31
711.947	14.31
711.975	18.31
712.002	-6.69
712.029	5.31
712.056	5.31
712.083	15.31
712.11	-2.69
712.138	16.31
712.165	1.31
712.192	7.31
712.219	-7.69
712.246	0.31
712.273	6.31
712.3	-11.69
712.328	7.31
712.355	-13.69
712.382	-7.69
712.409	11.31
712.436	-5.69
712.463	14.31
712.49	29.31
712.517	-3.69
712.544	4.31
712.572	7.31
712.599	-8.69
712.626	-2.69
712.653	-2.69
712.68	-17.69
712.707	12.31
712.734	1.31
712.761	-4.69
712.788	-3.69
712.815	-4.69
712.842	-2.69
712.87	-6.69
712.897	-6.69
712.924	-5.69
712.951	-4.69
712.978	-0.69
713.005	13.31
713.032	2.31
713.059	-9.69
713.086	-14.69
713.113	-14.69
713.14	-6.69
713.167	-3.69
713.194	2.31
713.221	7.31
713.248	11.31
713.275	3.31
713.302	2.31
713.329	9.31
713.356	9.31
713.383	3.31
713.41	-5.69
713.437	-28.69
713.464	-2.69
713.491	-8.69
713.518	-3.69
713.545	-0.69
713.572	-3.69
713.599	-1.69
713.626	-0.69
713.653	8.31
713.68	-3.69
713.707	2.31
713.734	9.31
713.761	10.31
713.788	-2.69
713.815	5.31
713.842	5.31
713.869	7.31
713.896	16.31
713.923	7.31
713.95	3.31
713.977	0.31
714.004	-8.69
714.031	-10.69
714.058	-9.69
714.085	-11.69
714.112	8.31
714.139	6.31
714.165	-12.69
714.192	-4.69
714.219	16.31
714.246	-2.69
714.273	-12.69
714.3	-12.69
714.327	2.31
714.354	12.31
714.381	-11.69
714.408	2.31
714.435	-0.69
714.461	-4.69
714.488	1.31
714.515	-4.69
714.542	-1.69
714.569	-4.69
714.596	-21.69
714.623	-5.69
714.65	-9.69
714.677	-4.69
714.703	-4.69
714.73	-7.69
714.757	9.31
714.784	1.31
714.811	-14.69
714.838	-4.69
714.865	-6.69
714.891	10.31
714.918	-5.69
714.945	-13.69
714.972	-4.69
714.999	11.31
715.026	-3.69
715.052	7.31
715.079	3.31
715.106	-11.69
715.133	-3.69
715.16	-1.69
715.187	9.31
715.213	2.31
715.24	-13.69
715.267	-1.69
715.294	-10.69
715.321	-6.69
715.347	-5.69
715.374	-6.69
715.401	-6.69
715.428	-2.69
715.455	13.31
715.481	-6.69
715.508	3.31
715.535	-0.69
715.562	6.31
715.588	3.31
715.615	0.31
715.642	-2.69
715.669	12.31
715.695	1.31
715.722	-13.69
715.749	1.31
715.776	15.31
715.802	-12.69
715.829	-0.69
715.856	-5.69
715.883	5.31
715.909	-7.69
715.936	-5.69
715.963	-7.69
715.99	-18.69
716.016	-9.69
716.043	1.31
716.07	-11.69
716.096	-29.69
716.123	-3.69
716.15	15.31
716.177	17.31
716.203	5.31
716.23	14.31
716.257	-6.69
716.283	0.31
716.31	3.31
716.337	-15.69
716.363	-1.69
716.39	-1.69
716.417	4.31
716.443	3.31
716.47	1.31
716.497	1.31
716.523	8.31
716.55	18.31
716.577	6.31
716.603	-1.69
716.63	-5.69
716.657	7.31
716.683	-13.69
716.71	-10.69
716.737	5.31
716.763	6.31
716.79	1.31
716.817	10.31
716.843	-4.69
716.87	-12.69
716.897	9.31
716.923	23.31
716.95	3.31
716.976	-14.69
717.003	-13.69
717.03	3.31
717.056	0.31
717.083	0.31
717.109	9.31
717.136	0.31
717.163	-13.69
717.189	1.31
717.216	-3.69
717.242	0.31
717.269	6.31
717.296	10.31
717.322	5.31
717.349	13.31
717.375	15.31
717.402	-14.69
717.428	0.31
717.455	2.31
717.481	-3.69
717.508	13.31
717.535	25.31
717.561	-7.69
717.588	-8.69
717.614	-8.69
717.641	7.31
717.667	11.31
717.694	-10.69
717.72	-6.69
717.747	-4.69
717.773	7.31
717.8	5.31
717.826	-1.69
717.853	-18.69
717.88	4.31
717.906	-1.69
717.933	-2.69
717.959	-9.69
717.986	11.31
718.012	-14.69
718.039	4.31
718.065	11.31
718.092	-4.69
718.118	-12.69
718.144	1.31
718.171	22.31
718.197	16.31
718.224	-6.69
718.25	3.31
718.277	4.31
718.303	5.31
718.33	-0.69
718.356	-9.69
718.383	-17.69
718.409	3.31
718.436	1.31
718.462	7.31
718.489	-6.69
718.515	7.31
718.541	5.31
718.568	9.31
718.594	-0.69
718.621	7.31
718.647	-14.69
718.674	-6.69
718.7	2.31
718.726	-24.69
718.753	-14.69
718.779	-0.69
718.806	1.31
718.832	-11.69
718.858	-4.69
718.885	-5.69
718.911	-5.69
718.938	8.31
718.964	-2.69
718.99	-2.69
719.017	20.31
719.043	0.31
719.07	8.31
719.096	-18.69
719.122	-2.69
719.149	-3.69
719.175	9.31
719.201	13.31
719.228	-8.69
719.254	-2.69
719.281	-20.69
719.307	0.31
719.333	-5.69
719.36	10.31
719.386	10.31
719.412	9.31
719.439	-5.69
719.465	-10.69
719.491	-9.69
719.518	7.31
719.544	-6.69
719.57	0.31
719.597	4.31
719.623	-5.69
719.649	-14.69
719.675	-1.69
719.702	5.31
719.728	8.31
719.754	-6.69
719.781	-14.69
719.807	-10.69
719.833	-9.69
719.86	-6.69
719.886	-11.69
719.912	14.31
719.938	4.31
719.965	7.31
719.991	11.31
720.017	2.31
720.044	-0.69
720.07	-1.69
720.096	9.31
720.122	-1.69
720.149	19.31
720.175	31.31
720.201	7.31
720.227	-1.69
720.254	0.31
720.28	20.31
720.306	2.31
720.332	-11.69
720.359	14.31
720.385	14.31
720.411	-4.69
720.437	-1.69
720.463	-2.69
720.49	1.31
720.516	0.31
720.542	-3.69
720.568	20.31
720.595	5.31
720.621	3.31
720.647	-5.69
720.673	-4.69
720.699	-7.69
720.725	7.31
720.752	8.31
720.778	-1.69
720.804	-0.69
720.83	5.31
720.856	9.31
720.883	-10.69
720.909	-4.69
720.935	4.31
720.961	14.31
720.987	6.31
721.013	7.31
721.04	-3.69
721.066	-15.69
721.092	-0.69
721.118	11.31
721.144	-4.69
721.17	3.31
721.196	5.31
721.223	-13.69
721.249	-15.69
721.275	3.31
721.301	-5.69
721.327	-4.69
721.353	1.31
721.379	0.31
721.405	-12.69
721.432	-4.69
721.458	-6.69
721.484	10.31
721.51	-12.69
721.536	9.31
721.562	-5.69
721.588	-2.69
721.614	-21.69
721.64	-5.69
721.666	-6.69
721.693	-11.69
721.719	-12.69
721.745	-5.69
721.771	4.31
721.797	-2.69
721.823	16.31
721.849	20.31
721.875	11.31
721.901	12.31
721.927	3.31
721.953	1.31
721.979	7.31
722.005	-0.69
722.031	-7.69
722.057	4.31
722.083	-6.69
722.109	2.31
722.135	4.31
722.161	20.31
722.187	1.31
722.214	2.31
722.24	0.31
722.266	-0.69
722.292	1.31
722.318	6.31
722.344	6.31
722.37	4.31
722.396	-1.69
722.422	0.31
722.448	-8.69
722.474	-5.69
722.5	17.31
722.526	8.31
722.552	1.31
722.578	-5.69
722.603	3.31
722.629	-3.69
722.655	-7.69
722.681	-5.69
722.707	-7.69
722.733	-8.69
722.759	-2.69
722.785	-8.69
722.811	-8.69
722.837	-10.69
722.863	3.31
722.889	1.31
722.915	-13.69
722.941	-5.69
722.967	0.31
722.993	2.31
723.019	1.31
723.045	11.31
723.071	5.31
723.097	-5.69
723.122	8.31
723.148	2.31
723.174	1.31
723.2	-1.69
723.226	-6.69
723.252	-3.69
723.278	-9.69
723.304	-10.69
723.33	-5.69
723.356	-6.69
723.381	-10.69
723.407	-2.69
723.433	-0.69
723.459	-2.69
723.485	4.31
723.511	2.31
723.537	-11.69
723.563	-11.69
723.588	-10.69
723.614	9.31
723.64	-10.69
723.666	3.31
723.692	5.31
723.718	6.31
723.744	5.31
723.769	-3.69
723.795	-15.69
723.821	-9.69
723.847	7.31
723.873	-6.69
723.899	-3.69
723.924	-21.69
723.95	-8.69
723.976	-11.69
724.002	7.31
724.028	1.31
724.053	-1.69
724.079	6.31
724.105	-8.69
724.131	-5.69
724.157	-6.69
724.182	-1.69
724.208	-5.69
724.234	-4.69
724.26	3.31
724.286	12.31
724.311	-0.69
724.337	-5.69
724.363	-2.69
724.389	1.31
724.415	-2.69
724.44	11.31
724.466	5.31
724.492	-2.69
724.518	3.31
724.543	-1.69
724.569	12.31
724.595	2.31
724.621	-13.69
724.646	-10.69
724.672	-8.69
724.698	-14.69
724.723	-13.69
724.749	13.31
724.775	1.31
724.801	1.31
724.826	-3.69
724.852	3.31
724.878	-14.69
724.904	-9.69
724.929	15.31
724.955	-8.69
724.981	7.31
725.006	-7.69
725.032	9.31
725.058	11.31
725.083	-9.69
725.109	-12.69
725.135	-1.69
725.161	7.31
725.186	7.31
725.212	3.31
725.238	9.31
725.263	-4.69
725.289	-12.69
725.315	-13.69
725.34	-2.69
725.366	1.31
725.392	-2.69
725.417	-4.69
725.443	-8.69
725.468	14.31
725.494	4.31
725.52	14.31
725.545	-11.69
725.571	2.31
725.597	-13.69
725.622	3.31
725.648	-1.69
725.674	19.31
725.699	9.31
725.725	-3.69
725.75	27.31
725.776	-8.69
725.802	-3.69
725.827	15.31
725.853	9.31
725.878	18.31
725.904	0.31
725.93	4.31
725.955	-14.69
725.981	-14.69
726.006	7.31
726.032	-1.69
726.057	-5.69
726.083	-5.69
726.109	1.31
726.134	3.31
726.16	-3.69
726.185	3.31
726.211	-5.69
726.236	-1.69
726.262	8.31
726.288	19.31
726.313	-2.69
726.339	3.31
726.364	-12.69
726.39	-5.69
726.415	-8.69
726.441	-2.69
726.466	-4.69
726.492	-2.69
726.517	10.31
726.543	-0.69
726.568	-13.69
726.594	-9.69
726.619	1.31
726.645	5.31
726.67	7.31
726.696	5.31
726.721	-3.69
726.747	-25.69
726.772	-1.69
726.798	1.31
726.823	2.31
726.849	5.31
726.874	2.31
726.9	18.31
726.925	5.31
726.951	-10.69
726.976	2.31
727.002	-12.69
727.027	8.31
727.053	6.31
727.078	1.31
727.104	-5.69
727.129	-9.69
727.155	-7.69
727.18	1.31
727.205	-1.69
727.231	-3.69
727.256	7.31
727.282	1.31
727.307	5.31
727.333	-2.69
727.358	-4.69
727.383	-1.69
727.409	-1.69
727.434	1.31
727.46	-9.69
727.485	-9.69
727.511	0.31
727.536	-10.69
727.561	-8.69
727.587	-2.69
727.612	-9.69
727.637	4.31
727.663	-1.69
727.688	17.31
727.714	-8.69
727.739	-4.69
727.764	6.31
727.79	-0.69
727.815	2.31
727.841	10.31
727.866	9.31
727.891	-2.69
727.917	-12.69
727.942	-23.69
727.967	-9.69
727.993	-15.69
728.018	6.31
728.043	7.31
728.069	4.31
728.094	23.31
728.119	-1.69
728.145	8.31
728.17	-4.69
728.195	-0.69
728.221	14.31
728.246	6.31
728.271	-7.69
728.297	-6.69
728.322	4.31
728.347	3.31
728.373	-4.69
728.398	-3.69
728.423	-8.69
728.448	-1.69
728.474	-1.69
728.499	10.31
728.524	-9.69
728.55	-8.69
728.575	-10.69
728.6	-10.69
728.625	-6.69
728.651	15.31
728.676	5.31
728.701	-7.69
728.727	2.31
728.752	-16.69
728.777	-2.69
728.802	-6.69
728.828	-1.69
728.853	-4.69
728.878	-8.69
728.903	-1.69
728.929	-2.69
728.954	-7.69
728.979	13.31
729.004	-2.69
729.03	-6.69
729.055	-0.69
729.08	-10.69
729.105	-0.69
729.13	18.31
729.156	5.31
729.181	-5.69
729.206	-9.69
729.231	-8.69
729.256	-3.69
729.282	-4.69
729.307	-8.69
729.332	8.31
729.357	-8.69
729.382	-14.69
729.408	10.31
729.433	-0.69
729.458	1.31
729.483	-3.69
729.508	12.31
729.533	12.31
729.559	7.31
729.584	-20.69
729.609	-2.69
729.634	1.31
729.659	-10.69
729.684	-13.69
729.71	10.31
729.735	-5.69
729.76	-2.69
729.785	-3.69
729.81	6.31
729.835	-9.69
729.86	-12.69
729.886	11.31
729.911	0.31
729.936	-11.69
729.961	-6.69
729.986	-7.69
730.011	-1.69
730.036	1.31
730.061	5.31
730.086	2.31
730.112	3.31
730.137	6.31
730.162	1.31
730.187	-0.69
730.212	-4.69
730.237	-2.69
730.262	3.31
730.287	-0.69
730.312	16.31
730.337	2.31
730.362	30.31
730.387	-1.69
730.413	-3.69
730.438	5.31
730.463	-6.69
730.488	-11.69
730.513	-1.69
730.538	-4.69
730.563	22.31
730.588	4.31
730.613	11.31
730.638	-7.69
730.663	13.31
730.688	27.31
730.713	11.31
730.738	1.31
730.763	-1.69
730.788	-6.69
730.813	-0.69
730.838	-1.69
730.863	3.31
730.888	-14.69
730.913	-1.69
730.938	-11.69
730.963	-7.69
730.988	8.31
731.013	5.31
731.038	3.31
731.063	-8.69
731.088	-4.69
731.113	-5.69
731.138	-13.69
731.163	-11.69
731.188	-11.69
731.213	10.31
731.238	0.31
731.263	1.31
731.288	9.31
731.313	18.31
731.338	2.31
731.363	-0.69
731.388	-5.69
731.413	12.31
731.438	19.31
731.463	1.31
731.487	1.31
731.512	-9.69
731.537	-12.69
731.562	0.31
731.587	1.31
731.612	-3.69
731.637	-4.69
731.662	-3.69
731.687	-17.69
731.712	-11.69
731.737	-1.69
731.762	-8.69
731.786	-5.69
731.811	-8.69
731.836	0.31
731.861	-1.69
731.886	-5.69
731.911	-6.69
731.936	10.31
731.961	3.31
731.986	-5.69
732.01	3.31
732.035	-8.69
732.06	8.31
732.085	-3.69
732.11	12.31
732.135	-3.69
732.16	-6.69
732.184	-8.69
732.209	-11.69
732.234	-0.69
732.259	-0.69
732.284	25.31
732.309	-10.69
732.334	-13.69
732.358	-19.69
732.383	-13.69
732.408	-5.69
732.433	10.31
732.458	-12.69
732.482	-0.69
732.507	-4.69
732.532	7.31
732.557	12.31
732.582	15.31
732.607	6.31
732.631	-13.69
732.656	-3.69
732.681	-1.69
732.706	-2.69
732.73	-6.69
732.755	-15.69
732.78	8.31
732.805	0.31
732.83	-2.69
732.854	-2.69
732.879	-4.69
732.904	-0.69
732.929	-11.69
732.953	17.31
732.978	2.31
733.003	-25.69
733.028	-18.69
733.052	-16.69
733.077	5.31
733.102	4.31
733.127	-0.69
733.151	5.31
733.176	22.31
733.201	-4.69
733.226	-14.69
733.25	1.31
733.275	5.31
733.3	0.31
733.324	8.31
733.349	-4.69
733.374	9.31
733.399	-9.69
733.423	2.31
733.448	2.31
733.473	-2.69
733.497	-7.69
733.522	2.31
733.547	5.31
733.571	3.31
733.596	-9.69
733.621	4.31
733.646	5.31
733.67	2.31
733.695	-9.69
733.72	1.31
733.744	-2.69
733.769	6.31
733.794	15.31
733.818	13.31
733.843	-4.69
733.867	-0.69
733.892	3.31
733.917	-4.69
733.941	3.31
733.966	-6.69
733.991	-0.69
734.015	16.31
734.04	2.31
734.065	-5.69
734.089	0.31
734.114	-0.69
734.138	3.31
734.163	-3.69
734.188	10.31
734.212	-3.69
734.237	23.31
734.261	20.31
734.286	8.31
734.311	-3.69
734.335	-2.69
734.36	-7.69
734.384	5.31
734.409	-0.69
734.434	-7.69
734.458	13.31
734.483	19.31
734.507	-7.69
734.532	10.31
734.556	3.31
734.581	-8.69
734.606	0.31
734.63	-18.69
734.655	10.31
734.679	-0.69
734.704	-6.69
734.728	-4.69
734.753	-6.69
734.777	-2.69
734.802	-1.69
734.826	14.31
734.851	7.31
734.876	16.31
734.9	3.31
734.925	8.31
734.949	0.31
734.974	1.31
734.998	-1.69
735.023	-18.69
735.047	-19.69
735.072	11.31
735.096	1.31
735.121	-0.69
735.145	-2.69
735.17	1.31
735.194	6.31
735.219	-1.69
735.243	13.31
735.268	8.31
735.292	5.31
735.317	-9.69
735.341	-1.69
735.365	-14.69
735.39	-6.69
735.414	-2.69
735.439	-2.69
735.463	1.31
735.488	-4.69
735.512	-13.69
735.537	-6.69
735.561	-12.69
735.586	6.31
735.61	-6.69
735.634	1.31
735.659	9.31
735.683	19.31
735.708	-6.69
735.732	-0.69
735.757	6.31
735.781	8.31
735.805	-6.69
735.83	-7.69
735.854	-23.69
735.879	-5.69
735.903	4.31
735.927	6.31
735.952	11.31
735.976	-2.69
736.001	-11.69
736.025	-5.69
736.049	-5.69
736.074	1.31
736.098	-4.69
736.123	-2.69
736.147	-6.69
736.171	2.31
736.196	13.31
736.22	-12.69
736.244	-1.69
736.269	0.31
736.293	2.31
736.317	-3.69
736.342	15.31
736.366	10.31
736.39	20.31
736.415	10.31
736.439	11.31
736.463	16.31
736.488	15.31
736.512	-2.69
736.536	11.31
736.561	9.31
736.585	-8.69
736.609	2.31
736.634	1.31
736.658	7.31
736.682	-20.69
736.707	-11.69
736.731	-13.69
736.755	-2.69
736.78	14.31
736.804	-5.69
736.828	2.31
736.852	-5.69
736.877	-3.69
736.901	7.31
736.925	4.31
736.949	8.31
736.974	-8.69
736.998	-12.69
737.022	0.31
737.047	-1.69
737.071	1.31
737.095	23.31
737.119	16.31
737.144	0.31
737.168	-4.69
737.192	-10.69
737.216	7.31
737.241	-0.69
737.265	-7.69
737.289	-8.69
737.313	-13.69
737.337	-6.69
737.362	9.31
737.386	0.31
737.41	-7.69
737.434	-9.69
737.459	-7.69
737.483	12.31
737.507	21.31
737.531	23.31
737.555	6.31
737.58	0.31
737.604	-1.69
737.628	-3.69
737.652	-4.69
737.676	-2.69
737.701	4.31
737.725	3.31
737.749	5.31
737.773	8.31
737.797	3.31
737.821	1.31
737.846	-9.69
737.87	14.31
737.894	5.31
737.918	-13.69
737.942	-4.69
737.966	6.31
737.99	6.31
738.015	6.31
738.039	-7.69
738.063	-10.69
738.087	-12.69
738.111	-2.69
738.135	1.31
738.159	-8.69
738.184	-7.69
738.208	-3.69
738.232	3.31
738.256	-0.69
738.28	6.31
738.304	21.31
738.328	-2.69
738.352	-1.69
738.376	13.31
738.4	5.31
738.425	4.31
738.449	-1.69
738.473	11.31
738.497	3.31
738.521	-4.69
738.545	3.31
738.569	3.31
738.593	16.31
738.617	1.31
738.641	-8.69
738.665	2.31
738.689	5.31
738.713	-0.69
738.737	6.31
738.762	0.31
738.786	-7.69
738.81	-9.69
738.834	6.31
738.858	-8.69
738.882	10.31
738.906	-3.69
738.93	1.31
738.954	-4.69
738.978	16.31
739.002	-4.69
739.026	5.31
739.05	0.31
739.074	-12.69
739.098	22.31
739.122	14.31
739.146	7.31
739.17	11.31
739.194	7.31
739.218	-12.69
739.242	-11.69
739.266	-1.69
739.29	-1.69
739.314	12.31
739.338	6.31
739.362	1.31
739.386	4.31
739.41	0.31
739.434	-5.69
739.458	9.31
739.482	9.31
739.506	3.31
739.53	2.31
739.554	1.31
739.577	7.31
739.601	5.31
739.625	-2.69
739.649	-14.69
739.673	10.31
739.697	6.31
739.721	-4.69
739.745	11.31
739.769	7.31
739.793	14.31
739.817	9.31
739.841	-10.69
739.865	2.31
739.889	-8.69
739.912	1.31
739.936	-3.69
739.96	1.31
739.984	10.31
740.008	4.31
740.032	0.31
740.056	1.31
740.08	-15.69
740.104	-7.69
740.127	6.31
740.151	1.31
740.175	16.31
740.199	12.31
740.223	41.31
740.247	12.31
740.271	11.31
740.295	0.31
740.318	-22.69
740.342	2.31
740.366	-4.69
740.39	-7.69
740.414	3.31
740.438	8.31
740.461	8.31
740.485	-1.69
740.509	-8.69
740.533	-2.69
740.557	-17.69
740.581	-7.69
740.604	-14.69
740.628	-1.69
740.652	2.31
740.676	-0.69
740.7	6.31
740.723	10.31
740.747	-7.69
740.771	-2.69
740.795	-6.69
740.819	16.31
740.842	10.31
740.866	14.31
740.89	14.31
740.914	-8.69
740.938	-16.69
740.961	1.31
740.985	-4.69
741.009	1.31
741.033	-1.69
741.056	8.31
741.08	-11.69
741.104	-8.69
741.128	-4.69
741.151	3.31
741.175	-1.69
741.199	-1.69
741.223	15.31
741.246	10.31
741.27	6.31
741.294	8.31
741.318	-6.69
741.341	-4.69
741.365	4.31
741.389	0.31
741.413	3.31
741.436	11.31
741.46	18.31
741.484	18.31
741.507	3.31
741.531	13.31
741.555	0.31
741.579	5.31
741.602	3.31
741.626	9.31
741.65	6.31
741.673	3.31
741.697	7.31
741.721	7.31
741.744	-9.69
741.768	-9.69
741.792	-2.69
741.815	-10.69
741.839	-0.69
741.863	0.31
741.886	11.31
741.91	7.31
741.934	-3.69
741.957	-17.69
741.981	3.31
742.005	-0.69
742.028	-14.69
742.052	-9.69
742.075	1.31
742.099	11.31
742.123	-8.69
742.146	-8.69
742.17	-13.69
742.194	-1.69
742.217	-8.69
742.241	-1.69
742.264	-22.69
742.288	-1.69
742.312	-7.69
742.335	-8.69
742.359	-24.69
742.382	7.31
742.406	6.31
742.43	3.31
742.453	-10.69
742.477	-2.69
742.5	7.31
742.524	-12.69
742.548	-6.69
742.571	-0.69
742.595	9.31
742.618	2.31
742.642	1.31
742.665	15.31
742.689	-1.69
742.712	-7.69
742.736	-1.69
742.76	2.31
742.783	-6.69
742.807	12.31
742.83	20.31
742.854	6.31
742.877	2.31
742.901	0.31
742.924	-2.69
742.948	0.31
742.971	0.31
742.995	-2.69
743.018	-11.69
743.042	6.31
743.065	6.31
743.089	-2.69
743.112	-0.69
743.136	-0.69
743.159	-9.69
743.183	1.31
743.206	1.31
743.23	3.31
743.253	9.31
743.277	6.31
743.3	-5.69
743.324	-2.69
743.347	-8.69
743.371	-6.69
743.394	11.31
743.418	27.31
743.441	21.31
743.465	0.31
743.488	10.31
743.512	2.31
743.535	2.31
743.558	3.31
743.582	10.31
743.605	7.31
743.629	27.31
743.652	11.31
743.676	1.31
743.699	3.31
743.723	20.31
743.746	-3.69
743.769	1.31
743.793	7.31
743.816	2.31
743.84	7.31
743.863	1.31
743.886	1.31
743.91	18.31
743.933	7.31
743.957	9.31
743.98	-5.69
744.003	-1.69
744.027	10.31
744.05	-2.69
744.074	2.31
744.097	-19.69
744.12	-5.69
744.144	-23.69
744.167	1.31
744.19	-6.69
744.214	2.31
744.237	-11.69
744.26	14.31
744.284	-4.69
744.307	-1.69
744.331	-6.69
744.354	-13.69
744.377	-8.69
744.401	-9.69
744.424	-18.69
744.447	-12.69
744.471	-7.69
