Data from HighRes_H2_15_09_11_07_2024_HR4C61891__155__15-11-11-901.txt Node

Date: Thu Nov 07 15:11:11 EST 2024
User: crc00042
Spectrometer: HR4C6189
Trigger mode: 4
Integration Time (sec): 1.000000E-1
Scans to average: 1
Electric dark correction enabled: true
Nonlinearity correction enabled: false
Boxcar width: 0
XAxis mode: Wavelengths
Number of Pixels in Spectrum: 3648
>>>>>Begin Spectral Data<<<<<
639.567	-39.31
639.602	-39.31
639.636	-39.31
639.67	-37.31
639.704	-16.31
639.738	-2.31
639.773	-11.31
639.807	-8.31
639.841	-3.31
639.875	16.69
639.909	2.69
639.943	-9.31
639.978	-2.31
640.012	9.69
640.046	0.69
640.08	2.69
640.114	-3.31
640.148	7.69
640.182	5.69
640.217	2.69
640.251	26.69
640.285	19.69
640.319	-11.31
640.353	-1.31
640.387	-3.31
640.421	-1.31
640.455	7.69
640.49	-2.31
640.524	11.69
640.558	13.69
640.592	-25.31
640.626	2.69
640.66	28.69
640.694	-4.31
640.728	3.69
640.762	22.69
640.796	10.69
640.83	19.69
640.865	7.69
640.899	2.69
640.933	-5.31
640.967	-8.31
641.001	6.69
641.035	4.69
641.069	7.69
641.103	-10.31
641.137	2.69
641.171	-20.31
641.205	14.69
641.239	10.69
641.273	12.69
641.307	9.69
641.341	2.69
641.375	3.69
641.409	-16.31
641.443	-0.31
641.477	0.69
641.511	14.69
641.545	5.69
641.579	2.69
641.614	-3.31
641.648	10.69
641.682	-10.31
641.716	21.69
641.75	23.69
641.784	-2.31
641.818	9.69
641.852	8.69
641.886	-14.31
641.919	14.69
641.953	-13.31
641.987	-23.31
642.021	-3.31
642.055	-2.31
642.089	4.69
642.123	-2.31
642.157	-3.31
642.191	-8.31
642.225	2.69
642.259	-4.31
642.293	10.69
642.327	13.69
642.361	11.69
642.395	18.69
642.429	7.69
642.463	11.69
642.497	16.69
642.531	-3.31
642.565	-22.31
642.599	18.69
642.633	-0.31
642.666	10.69
642.7	31.69
642.734	2.69
642.768	-23.31
642.802	14.69
642.836	21.69
642.87	8.69
642.904	15.69
642.938	13.69
642.972	13.69
643.005	2.69
643.039	-3.31
643.073	-4.31
643.107	7.69
643.141	15.69
643.175	-8.31
643.209	7.69
643.243	-1.31
643.276	10.69
643.31	-2.31
643.344	12.69
643.378	2.69
643.412	11.69
643.446	13.69
643.48	7.69
643.513	8.69
643.547	8.69
643.581	12.69
643.615	19.69
643.649	14.69
643.683	3.69
643.716	3.69
643.75	8.69
643.784	-8.31
643.818	3.69
643.852	-1.31
643.886	11.69
643.919	13.69
643.953	5.69
643.987	2.69
644.021	26.69
644.055	8.69
644.088	14.69
644.122	2.69
644.156	-2.31
644.19	14.69
644.224	9.69
644.257	9.69
644.291	35.69
644.325	7.69
644.359	3.69
644.392	20.69
644.426	10.69
644.46	0.69
644.494	10.69
644.527	2.69
644.561	5.69
644.595	5.69
644.629	8.69
644.662	-0.31
644.696	6.69
644.73	6.69
644.764	15.69
644.797	-5.31
644.831	-8.31
644.865	7.69
644.899	8.69
644.932	20.69
644.966	6.69
645	3.69
645.033	34.69
645.067	4.69
645.101	8.69
645.135	13.69
645.168	21.69
645.202	1.69
645.236	19.69
645.269	9.69
645.303	-9.31
645.337	-15.31
645.37	-2.31
645.404	7.69
645.438	-15.31
645.471	-5.31
645.505	14.69
645.539	12.69
645.572	-7.31
645.606	-5.31
645.64	6.69
645.673	12.69
645.707	34.69
645.741	39.69
645.774	9.69
645.808	10.69
645.842	12.69
645.875	11.69
645.909	0.69
645.943	-12.31
645.976	19.69
646.01	11.69
646.043	23.69
646.077	22.69
646.111	4.69
646.144	39.69
646.178	20.69
646.212	-5.31
646.245	-8.31
646.279	12.69
646.312	12.69
646.346	12.69
646.38	2.69
646.413	4.69
646.447	4.69
646.48	-3.31
646.514	8.69
646.547	11.69
646.581	6.69
646.615	9.69
646.648	-4.31
646.682	17.69
646.715	-1.31
646.749	15.69
646.782	-4.31
646.816	5.69
646.85	7.69
646.883	-0.31
646.917	20.69
646.95	-4.31
646.984	3.69
647.017	1.69
647.051	13.69
647.084	6.69
647.118	-6.31
647.151	3.69
647.185	3.69
647.218	14.69
647.252	11.69
647.285	14.69
647.319	16.69
647.353	11.69
647.386	29.69
647.42	-2.31
647.453	4.69
647.487	11.69
647.52	17.69
647.553	9.69
647.587	8.69
647.62	21.69
647.654	11.69
647.687	7.69
647.721	9.69
647.754	13.69
647.788	5.69
647.821	-12.31
647.855	-3.31
647.888	14.69
647.922	9.69
647.955	9.69
647.989	13.69
648.022	15.69
648.055	-1.31
648.089	4.69
648.122	34.69
648.156	7.69
648.189	1.69
648.223	7.69
648.256	29.69
648.29	17.69
648.323	1.69
648.356	13.69
648.39	10.69
648.423	5.69
648.457	7.69
648.49	22.69
648.523	25.69
648.557	6.69
648.59	6.69
648.624	0.69
648.657	3.69
648.69	19.69
648.724	13.69
648.757	3.69
648.791	21.69
648.824	26.69
648.857	24.69
648.891	6.69
648.924	13.69
648.957	23.69
648.991	-0.31
649.024	12.69
649.057	7.69
649.091	10.69
649.124	11.69
649.158	18.69
649.191	25.69
649.224	11.69
649.258	9.69
649.291	-3.31
649.324	-6.31
649.358	8.69
649.391	14.69
649.424	-2.31
649.458	-6.31
649.491	11.69
649.524	10.69
649.557	1.69
649.591	-7.31
649.624	14.69
649.657	-8.31
649.691	9.69
649.724	2.69
649.757	2.69
649.791	-1.31
649.824	9.69
649.857	8.69
649.89	9.69
649.924	-9.31
649.957	-2.31
649.99	-8.31
650.023	-8.31
650.057	-4.31
650.09	4.69
650.123	2.69
650.157	14.69
650.19	28.69
650.223	2.69
650.256	-4.31
650.29	7.69
650.323	9.69
650.356	12.69
650.389	-0.31
650.423	-1.31
650.456	-2.31
650.489	5.69
650.522	30.69
650.555	29.69
650.589	3.69
650.622	-2.31
650.655	20.69
650.688	-3.31
650.721	1.69
650.755	14.69
650.788	-0.31
650.821	11.69
650.854	-4.31
650.887	1.69
650.921	3.69
650.954	-3.31
650.987	9.69
651.02	1.69
651.053	-2.31
651.087	16.69
651.12	29.69
651.153	-6.31
651.186	-4.31
651.219	-11.31
651.252	20.69
651.286	18.69
651.319	-8.31
651.352	0.69
651.385	8.69
651.418	6.69
651.451	12.69
651.484	19.69
651.518	-2.31
651.551	4.69
651.584	2.69
651.617	24.69
651.65	18.69
651.683	12.69
651.716	-2.31
651.749	7.69
651.783	8.69
651.816	-6.31
651.849	2.69
651.882	9.69
651.915	3.69
651.948	2.69
651.981	15.69
652.014	-1.31
652.047	4.69
652.08	-0.31
652.114	4.69
652.147	-7.31
652.18	-0.31
652.213	45.69
652.246	8.69
652.279	12.69
652.312	13.69
652.345	10.69
652.378	10.69
652.411	9.69
652.444	13.69
652.477	5.69
652.51	13.69
652.543	0.69
652.576	5.69
652.609	-0.31
652.642	8.69
652.675	14.69
652.709	7.69
652.742	20.69
652.775	7.69
652.808	10.69
652.841	7.69
652.874	3.69
652.907	8.69
652.94	6.69
652.973	-3.31
653.006	5.69
653.039	-2.31
653.072	16.69
653.105	13.69
653.138	-23.31
653.171	0.69
653.204	5.69
653.237	11.69
653.27	-4.31
653.303	13.69
653.336	-0.31
653.368	1.69
653.401	11.69
653.434	6.69
653.467	9.69
653.5	-6.31
653.533	-8.31
653.566	3.69
653.599	10.69
653.632	8.69
653.665	5.69
653.698	-23.31
653.731	-14.31
653.764	-2.31
653.797	2.69
653.83	10.69
653.863	2.69
653.896	10.69
653.929	8.69
653.961	13.69
653.994	8.69
654.027	6.69
654.06	13.69
654.093	15.69
654.126	10.69
654.159	-12.31
654.192	8.69
654.225	-5.31
654.258	10.69
654.29	3.69
654.323	-7.31
654.356	9.69
654.389	16.69
654.422	7.69
654.455	-1.31
654.488	6.69
654.521	-10.31
654.553	-15.31
654.586	12.69
654.619	-8.31
654.652	-4.31
654.685	19.69
654.718	10.69
654.751	27.69
654.783	10.69
654.816	26.69
654.849	9.69
654.882	-4.31
654.915	2.69
654.948	0.69
654.98	-2.31
655.013	-1.31
655.046	3.69
655.079	-16.31
655.112	21.69
655.144	-3.31
655.177	13.69
655.21	37.69
655.243	19.69
655.276	15.69
655.308	10.69
655.341	7.69
655.374	22.69
655.407	6.69
655.44	6.69
655.472	8.69
655.505	11.69
655.538	3.69
655.571	10.69
655.603	-4.31
655.636	10.69
655.669	22.69
655.702	10.69
655.734	17.69
655.767	15.69
655.8	28.69
655.833	47.69
655.865	22.69
655.898	13.69
655.931	35.69
655.964	34.69
655.996	35.69
656.029	55.69
656.062	62.69
656.095	80.69
656.127	52.69
656.16	108.69
656.193	132.69
656.225	187.69
656.258	277.69
656.291	491.69
656.324	1133.69
656.356	3430.69
656.389	7602.69
656.422	6106.69
656.454	2102.69
656.487	702.69
656.52	261.69
656.552	132.69
656.585	78.69
656.618	47.69
656.65	53.69
656.683	33.69
656.716	37.69
656.748	17.69
656.781	11.69
656.814	17.69
656.846	14.69
656.879	-1.31
656.912	6.69
656.944	-3.31
656.977	-5.31
657.01	8.69
657.042	-3.31
657.075	14.69
657.108	-0.31
657.14	18.69
657.173	22.69
657.205	22.69
657.238	5.69
657.271	15.69
657.303	-7.31
657.336	21.69
657.369	21.69
657.401	17.69
657.434	6.69
657.466	-5.31
657.499	-1.31
657.532	14.69
657.564	11.69
657.597	-10.31
657.629	24.69
657.662	4.69
657.694	-4.31
657.727	-1.31
657.76	7.69
657.792	-5.31
657.825	-7.31
657.857	-3.31
657.89	7.69
657.922	6.69
657.955	-14.31
657.987	3.69
658.02	20.69
658.053	35.69
658.085	11.69
658.118	11.69
658.15	8.69
658.183	20.69
658.215	5.69
658.248	-9.31
658.28	6.69
658.313	20.69
658.345	-9.31
658.378	7.69
658.41	-2.31
658.443	9.69
658.475	6.69
658.508	-5.31
658.54	-1.31
658.573	-4.31
658.605	23.69
658.638	3.69
658.67	11.69
658.703	12.69
658.735	0.69
658.768	-2.31
658.8	-23.31
658.833	22.69
658.865	6.69
658.898	5.69
658.93	-6.31
658.963	-1.31
658.995	-4.31
659.028	-3.31
659.06	-8.31
659.092	-11.31
659.125	3.69
659.157	9.69
659.19	-12.31
659.222	-2.31
659.255	9.69
659.287	15.69
659.32	10.69
659.352	-0.31
659.384	4.69
659.417	-3.31
659.449	3.69
659.482	7.69
659.514	-5.31
659.546	6.69
659.579	-11.31
659.611	11.69
659.644	-10.31
659.676	-6.31
659.708	-12.31
659.741	-1.31
659.773	1.69
659.806	7.69
659.838	2.69
659.87	5.69
659.903	3.69
659.935	22.69
659.967	5.69
660	-4.31
660.032	-13.31
660.065	15.69
660.097	10.69
660.129	14.69
660.162	-19.31
660.194	6.69
660.226	12.69
660.259	17.69
660.291	3.69
660.323	-4.31
660.356	-6.31
660.388	-15.31
660.42	-4.31
660.453	-9.31
660.485	9.69
660.517	0.69
660.55	14.69
660.582	10.69
660.614	20.69
660.647	3.69
660.679	-5.31
660.711	12.69
660.743	-12.31
660.776	0.69
660.808	-2.31
660.84	-7.31
660.873	-3.31
660.905	9.69
660.937	5.69
660.969	10.69
661.002	10.69
661.034	31.69
661.066	14.69
661.099	-1.31
661.131	10.69
661.163	10.69
661.195	19.69
661.228	9.69
661.26	2.69
661.292	-7.31
661.324	6.69
661.357	10.69
661.389	14.69
661.421	7.69
661.453	-2.31
661.485	-0.31
661.518	11.69
661.55	-11.31
661.582	-5.31
661.614	8.69
661.647	16.69
661.679	2.69
661.711	6.69
661.743	12.69
661.775	11.69
661.808	26.69
661.84	-3.31
661.872	7.69
661.904	-7.31
661.936	0.69
661.969	-11.31
662.001	-0.31
662.033	13.69
662.065	9.69
662.097	20.69
662.129	10.69
662.162	-23.31
662.194	-6.31
662.226	-0.31
662.258	-3.31
662.29	9.69
662.322	-1.31
662.355	-15.31
662.387	21.69
662.419	12.69
662.451	27.69
662.483	11.69
662.515	-0.31
662.547	9.69
662.58	-3.31
662.612	-16.31
662.644	-13.31
662.676	14.69
662.708	24.69
662.74	9.69
662.772	11.69
662.804	8.69
662.836	-9.31
662.869	5.69
662.901	19.69
662.933	2.69
662.965	25.69
662.997	8.69
663.029	-0.31
663.061	-2.31
663.093	5.69
663.125	4.69
663.157	5.69
663.189	13.69
663.221	11.69
663.254	-0.31
663.286	6.69
663.318	-2.31
663.35	-5.31
663.382	-3.31
663.414	-4.31
663.446	-3.31
663.478	4.69
663.51	36.69
663.542	1.69
663.574	7.69
663.606	0.69
663.638	1.69
663.67	1.69
663.702	2.69
663.734	5.69
663.766	7.69
663.798	4.69
663.83	-5.31
663.862	10.69
663.894	2.69
663.926	-1.31
663.958	3.69
663.99	-10.31
664.022	-0.31
664.054	23.69
664.086	2.69
664.118	-1.31
664.15	-11.31
664.182	14.69
664.214	-2.31
664.246	21.69
664.278	8.69
664.31	20.69
664.342	14.69
664.374	7.69
664.406	9.69
664.438	6.69
664.47	1.69
664.502	-1.31
664.534	4.69
664.566	9.69
664.598	-0.31
664.63	2.69
664.662	-0.31
664.693	-5.31
664.725	-0.31
664.757	4.69
664.789	0.69
664.821	1.69
664.853	10.69
664.885	11.69
664.917	7.69
664.949	12.69
664.981	25.69
665.013	-5.31
665.045	-23.31
665.076	-20.31
665.108	1.69
665.14	-0.31
665.172	-2.31
665.204	1.69
665.236	11.69
665.268	0.69
665.3	8.69
665.331	-18.31
665.363	14.69
665.395	2.69
665.427	4.69
665.459	15.69
665.491	11.69
665.523	4.69
665.555	1.69
665.586	7.69
665.618	-2.31
665.65	-2.31
665.682	9.69
665.714	4.69
665.746	-8.31
665.777	-2.31
665.809	1.69
665.841	8.69
665.873	3.69
665.905	6.69
665.937	6.69
665.968	11.69
666	10.69
666.032	24.69
666.064	5.69
666.096	3.69
666.127	10.69
666.159	36.69
666.191	12.69
666.223	5.69
666.255	2.69
666.286	7.69
666.318	-10.31
666.35	23.69
666.382	9.69
666.413	-0.31
666.445	-7.31
666.477	-6.31
666.509	-13.31
666.54	-2.31
666.572	-1.31
666.604	1.69
666.636	1.69
666.667	13.69
666.699	18.69
666.731	12.69
666.763	1.69
666.794	-9.31
666.826	3.69
666.858	-11.31
666.89	15.69
666.921	-1.31
666.953	8.69
666.985	18.69
667.017	31.69
667.048	11.69
667.08	6.69
667.112	-3.31
667.143	-17.31
667.175	9.69
667.207	8.69
667.238	6.69
667.27	10.69
667.302	-0.31
667.334	-18.31
667.365	9.69
667.397	19.69
667.429	26.69
667.46	29.69
667.492	2.69
667.524	-3.31
667.555	2.69
667.587	10.69
667.619	-6.31
667.65	-6.31
667.682	7.69
667.714	23.69
667.745	14.69
667.777	8.69
667.808	2.69
667.84	-5.31
667.872	-1.31
667.903	29.69
667.935	18.69
667.967	10.69
667.998	7.69
668.03	-2.31
668.061	11.69
668.093	-5.31
668.125	16.69
668.156	8.69
668.188	-0.31
668.22	-8.31
668.251	-4.31
668.283	3.69
668.314	18.69
668.346	-10.31
668.377	-3.31
668.409	8.69
668.441	16.69
668.472	10.69
668.504	11.69
668.535	14.69
668.567	19.69
668.599	-9.31
668.63	-15.31
668.662	-9.31
668.693	23.69
668.725	7.69
668.756	26.69
668.788	3.69
668.819	11.69
668.851	6.69
668.882	-7.31
668.914	-17.31
668.946	-19.31
668.977	7.69
669.009	-7.31
669.04	-13.31
669.072	2.69
669.103	25.69
669.135	-5.31
669.166	5.69
669.198	-9.31
669.229	-2.31
669.261	9.69
669.292	4.69
669.324	12.69
669.355	10.69
669.387	3.69
669.418	30.69
669.45	4.69
669.481	-3.31
669.513	9.69
669.544	14.69
669.576	-0.31
669.607	19.69
669.639	23.69
669.67	-11.31
669.701	14.69
669.733	-9.31
669.764	13.69
669.796	4.69
669.827	-16.31
669.859	-13.31
669.89	14.69
669.922	10.69
669.953	10.69
669.985	6.69
670.016	19.69
670.047	10.69
670.079	0.69
670.11	5.69
670.142	-4.31
670.173	-3.31
670.204	10.69
670.236	6.69
670.267	4.69
670.299	-4.31
670.33	3.69
670.362	18.69
670.393	1.69
670.424	9.69
670.456	4.69
670.487	0.69
670.518	-12.31
670.55	0.69
670.581	3.69
670.613	-2.31
670.644	-1.31
670.675	-13.31
670.707	-13.31
670.738	2.69
670.769	7.69
670.801	1.69
670.832	9.69
670.864	-13.31
670.895	-5.31
670.926	-6.31
670.958	7.69
670.989	-6.31
671.02	-4.31
671.052	1.69
671.083	0.69
671.114	1.69
671.146	1.69
671.177	1.69
671.208	-5.31
671.24	-4.31
671.271	-0.31
671.302	-2.31
671.333	11.69
671.365	5.69
671.396	-1.31
671.427	10.69
671.459	-2.31
671.49	18.69
671.521	5.69
671.553	14.69
671.584	-0.31
671.615	3.69
671.646	6.69
671.678	5.69
671.709	-10.31
671.74	-7.31
671.771	3.69
671.803	-1.31
671.834	13.69
671.865	5.69
671.896	2.69
671.928	-0.31
671.959	-3.31
671.99	-12.31
672.021	-23.31
672.053	-6.31
672.084	10.69
672.115	5.69
672.146	-15.31
672.178	-6.31
672.209	-7.31
672.24	-10.31
672.271	34.69
672.303	-0.31
672.334	4.69
672.365	7.69
672.396	8.69
672.427	-10.31
672.459	24.69
672.49	21.69
672.521	-4.31
672.552	3.69
672.583	11.69
672.615	7.69
672.646	6.69
672.677	5.69
672.708	-0.31
672.739	-7.31
672.77	15.69
672.802	-1.31
672.833	5.69
672.864	-5.31
672.895	-0.31
672.926	12.69
672.957	-14.31
672.989	-0.31
673.02	15.69
673.051	-0.31
673.082	8.69
673.113	12.69
673.144	7.69
673.175	-2.31
673.206	8.69
673.238	-3.31
673.269	-2.31
673.3	-0.31
673.331	16.69
673.362	-8.31
673.393	12.69
673.424	-0.31
673.455	23.69
673.487	21.69
673.518	2.69
673.549	5.69
673.58	15.69
673.611	-0.31
673.642	-0.31
673.673	-16.31
673.704	5.69
673.735	1.69
673.766	5.69
673.797	-2.31
673.828	0.69
673.86	-17.31
673.891	-12.31
673.922	-5.31
673.953	-7.31
673.984	-11.31
674.015	0.69
674.046	12.69
674.077	0.69
674.108	-7.31
674.139	-12.31
674.17	4.69
674.201	6.69
674.232	5.69
674.263	3.69
674.294	-1.31
674.325	-6.31
674.356	0.69
674.387	25.69
674.418	14.69
674.449	-16.31
674.48	-25.31
674.511	5.69
674.542	9.69
674.573	-4.31
674.604	6.69
674.635	2.69
674.666	6.69
674.697	3.69
674.728	11.69
674.759	10.69
674.79	7.69
674.821	11.69
674.852	14.69
674.883	-9.31
674.914	12.69
674.945	13.69
674.976	13.69
675.007	-3.31
675.038	-2.31
675.069	-9.31
675.1	-7.31
675.131	-0.31
675.162	-8.31
675.193	-4.31
675.224	-5.31
675.254	23.69
675.285	7.69
675.316	26.69
675.347	15.69
675.378	-0.31
675.409	-10.31
675.44	20.69
675.471	-1.31
675.502	-9.31
675.533	2.69
675.564	1.69
675.595	-7.31
675.625	15.69
675.656	3.69
675.687	2.69
675.718	7.69
675.749	10.69
675.78	-5.31
675.811	9.69
675.842	16.69
675.873	10.69
675.903	0.69
675.934	-5.31
675.965	-10.31
675.996	-3.31
676.027	10.69
676.058	4.69
676.089	-6.31
676.119	1.69
676.15	-0.31
676.181	1.69
676.212	-9.31
676.243	12.69
676.274	3.69
676.304	12.69
676.335	-13.31
676.366	19.69
676.397	-6.31
676.428	10.69
676.459	5.69
676.489	-1.31
676.52	8.69
676.551	-4.31
676.582	-2.31
676.613	17.69
676.643	-0.31
676.674	21.69
676.705	2.69
676.736	17.69
676.767	13.69
676.797	8.69
676.828	9.69
676.859	-9.31
676.89	1.69
676.92	8.69
676.951	14.69
676.982	6.69
677.013	-21.31
677.044	7.69
677.074	6.69
677.105	-17.31
677.136	26.69
677.167	6.69
677.197	-1.31
677.228	2.69
677.259	-9.31
677.289	-1.31
677.32	-16.31
677.351	-2.31
677.382	5.69
677.412	-8.31
677.443	15.69
677.474	9.69
677.505	-18.31
677.535	-1.31
677.566	-3.31
677.597	-14.31
677.627	-2.31
677.658	0.69
677.689	7.69
677.72	0.69
677.75	0.69
677.781	4.69
677.812	1.69
677.842	3.69
677.873	0.69
677.904	18.69
677.934	3.69
677.965	-13.31
677.996	-5.31
678.026	11.69
678.057	11.69
678.088	-8.31
678.118	3.69
678.149	-4.31
678.18	6.69
678.21	21.69
678.241	18.69
678.272	3.69
678.302	6.69
678.333	10.69
678.363	15.69
678.394	-2.31
678.425	-0.31
678.455	-5.31
678.486	15.69
678.517	5.69
678.547	15.69
678.578	-2.31
678.608	-8.31
678.639	3.69
678.67	7.69
678.7	-4.31
678.731	-2.31
678.761	2.69
678.792	10.69
678.823	8.69
678.853	2.69
678.884	-8.31
678.914	11.69
678.945	27.69
678.975	-8.31
679.006	4.69
679.037	7.69
679.067	31.69
679.098	2.69
679.128	4.69
679.159	-4.31
679.189	27.69
679.22	-13.31
679.25	11.69
679.281	-0.31
679.312	4.69
679.342	26.69
679.373	26.69
679.403	-0.31
679.434	16.69
679.464	10.69
679.495	3.69
679.525	6.69
679.556	-4.31
679.586	5.69
679.617	5.69
679.647	15.69
679.678	7.69
679.708	2.69
679.739	-2.31
679.769	15.69
679.8	3.69
679.83	3.69
679.861	18.69
679.891	3.69
679.922	-14.31
679.952	-16.31
679.983	22.69
680.013	16.69
680.044	1.69
680.074	9.69
680.105	24.69
680.135	9.69
680.165	11.69
680.196	18.69
680.226	5.69
680.257	21.69
680.287	-2.31
680.318	7.69
680.348	-5.31
680.379	13.69
680.409	12.69
680.439	6.69
680.47	16.69
680.5	8.69
680.531	18.69
680.561	23.69
680.592	6.69
680.622	13.69
680.652	5.69
680.683	14.69
680.713	4.69
680.744	8.69
680.774	-14.31
680.804	13.69
680.835	-1.31
680.865	9.69
680.896	17.69
680.926	16.69
680.956	-0.31
680.987	6.69
681.017	0.69
681.047	-1.31
681.078	9.69
681.108	-8.31
681.139	6.69
681.169	5.69
681.199	4.69
681.23	-8.31
681.26	0.69
681.29	-7.31
681.321	-9.31
681.351	1.69
681.381	-5.31
681.412	0.69
681.442	6.69
681.472	26.69
681.503	12.69
681.533	4.69
681.563	3.69
681.594	0.69
681.624	13.69
681.654	5.69
681.685	3.69
681.715	-2.31
681.745	-0.31
681.775	-7.31
681.806	2.69
681.836	8.69
681.866	2.69
681.897	10.69
681.927	4.69
681.957	-14.31
681.987	8.69
682.018	7.69
682.048	11.69
682.078	4.69
682.109	22.69
682.139	1.69
682.169	-2.31
682.199	-5.31
682.23	-18.31
682.26	-6.31
682.29	-10.31
682.32	14.69
682.351	-0.31
682.381	1.69
682.411	2.69
682.441	-11.31
682.472	-1.31
682.502	4.69
682.532	-3.31
682.562	4.69
682.592	12.69
682.623	8.69
682.653	14.69
682.683	0.69
682.713	7.69
682.743	-1.31
682.774	-1.31
682.804	14.69
682.834	14.69
682.864	-1.31
682.894	0.69
682.925	3.69
682.955	-2.31
682.985	8.69
683.015	7.69
683.045	7.69
683.076	-19.31
683.106	-8.31
683.136	4.69
683.166	1.69
683.196	2.69
683.226	-13.31
683.257	-6.31
683.287	-1.31
683.317	-7.31
683.347	-17.31
683.377	-5.31
683.407	-8.31
683.437	14.69
683.468	8.69
683.498	-0.31
683.528	-9.31
683.558	4.69
683.588	-0.31
683.618	-8.31
683.648	-0.31
683.678	-0.31
683.708	9.69
683.739	2.69
683.769	2.69
683.799	-0.31
683.829	-2.31
683.859	9.69
683.889	5.69
683.919	-9.31
683.949	5.69
683.979	-3.31
684.009	4.69
684.039	-1.31
684.07	-17.31
684.1	3.69
684.13	8.69
684.16	22.69
684.19	6.69
684.22	9.69
684.25	1.69
684.28	-5.31
684.31	25.69
684.34	20.69
684.37	9.69
684.4	4.69
684.43	-1.31
684.46	-1.31
684.49	6.69
684.52	16.69
684.55	19.69
684.58	13.69
684.61	10.69
684.64	15.69
684.67	21.69
684.7	5.69
684.73	32.69
684.76	1.69
684.79	23.69
684.82	-2.31
684.85	-9.31
684.88	8.69
684.91	4.69
684.94	-2.31
684.97	-4.31
685	-3.31
685.03	-13.31
685.06	-4.31
685.09	3.69
685.12	10.69
685.15	-14.31
685.18	-3.31
685.21	-2.31
685.24	8.69
685.27	5.69
685.3	-0.31
685.33	13.69
685.36	-6.31
685.39	-1.31
685.42	-20.31
685.45	-1.31
685.48	8.69
685.51	-7.31
685.54	26.69
685.569	19.69
685.599	13.69
685.629	4.69
685.659	-10.31
685.689	8.69
685.719	8.69
685.749	-4.31
685.779	10.69
685.809	27.69
685.839	20.69
685.869	10.69
685.898	13.69
685.928	7.69
685.958	-6.31
685.988	12.69
686.018	11.69
686.048	-0.31
686.078	13.69
686.108	22.69
686.137	17.69
686.167	16.69
686.197	-3.31
686.227	-2.31
686.257	33.69
686.287	18.69
686.317	4.69
686.346	-0.31
686.376	-1.31
686.406	3.69
686.436	9.69
686.466	-12.31
686.496	1.69
686.525	3.69
686.555	12.69
686.585	15.69
686.615	31.69
686.645	1.69
686.675	16.69
686.704	6.69
686.734	25.69
686.764	-1.31
686.794	4.69
686.824	6.69
686.853	22.69
686.883	14.69
686.913	18.69
686.943	4.69
686.973	1.69
687.002	6.69
687.032	-2.31
687.062	-2.31
687.092	16.69
687.121	3.69
687.151	7.69
687.181	0.69
687.211	16.69
687.24	-0.31
687.27	10.69
687.3	9.69
687.33	5.69
687.359	-1.31
687.389	7.69
687.419	5.69
687.449	4.69
687.478	7.69
687.508	9.69
687.538	8.69
687.568	11.69
687.597	-13.31
687.627	7.69
687.657	7.69
687.686	11.69
687.716	22.69
687.746	-9.31
687.776	-17.31
687.805	9.69
687.835	3.69
687.865	26.69
687.894	14.69
687.924	10.69
687.954	-8.31
687.983	4.69
688.013	25.69
688.043	6.69
688.072	-7.31
688.102	7.69
688.132	-9.31
688.161	6.69
688.191	-6.31
688.221	14.69
688.25	8.69
688.28	3.69
688.31	4.69
688.339	-10.31
688.369	-4.31
688.399	16.69
688.428	6.69
688.458	3.69
688.488	-13.31
688.517	13.69
688.547	13.69
688.576	39.69
688.606	4.69
688.636	1.69
688.665	3.69
688.695	18.69
688.725	13.69
688.754	4.69
688.784	-28.31
688.813	8.69
688.843	-2.31
688.873	2.69
688.902	-3.31
688.932	-11.31
688.961	5.69
688.991	13.69
689.02	10.69
689.05	-5.31
689.08	16.69
689.109	15.69
689.139	8.69
689.168	7.69
689.198	7.69
689.227	13.69
689.257	18.69
689.287	13.69
689.316	16.69
689.346	7.69
689.375	8.69
689.405	11.69
689.434	11.69
689.464	2.69
689.493	10.69
689.523	-0.31
689.552	0.69
689.582	3.69
689.611	9.69
689.641	14.69
689.67	15.69
689.7	8.69
689.73	19.69
689.759	10.69
689.789	4.69
689.818	-2.31
689.848	1.69
689.877	24.69
689.906	5.69
689.936	4.69
689.965	2.69
689.995	-1.31
690.024	5.69
690.054	10.69
690.083	3.69
690.113	-8.31
690.142	2.69
690.172	5.69
690.201	20.69
690.231	5.69
690.26	4.69
690.29	7.69
690.319	14.69
690.348	1.69
690.378	12.69
690.407	2.69
690.437	1.69
690.466	3.69
690.496	7.69
690.525	16.69
690.555	8.69
690.584	10.69
690.613	7.69
690.643	10.69
690.672	17.69
690.702	20.69
690.731	3.69
690.76	18.69
690.79	-9.31
690.819	-1.31
690.849	-3.31
690.878	7.69
690.907	31.69
690.937	15.69
690.966	29.69
690.996	-1.31
691.025	4.69
691.054	10.69
691.084	8.69
691.113	9.69
691.142	10.69
691.172	3.69
691.201	16.69
691.23	3.69
691.26	24.69
691.289	13.69
691.319	16.69
691.348	5.69
691.377	16.69
691.407	-0.31
691.436	3.69
691.465	14.69
691.495	6.69
691.524	-2.31
691.553	-7.31
691.583	-1.31
691.612	3.69
691.641	4.69
691.67	2.69
691.7	17.69
691.729	-9.31
691.758	-2.31
691.788	3.69
691.817	0.69
691.846	4.69
691.876	-5.31
691.905	10.69
691.934	12.69
691.963	28.69
691.993	-0.31
692.022	3.69
692.051	1.69
692.081	6.69
692.11	24.69
692.139	21.69
692.168	5.69
692.198	24.69
692.227	2.69
692.256	9.69
692.285	-4.31
692.315	-3.31
692.344	8.69
692.373	15.69
692.402	-5.31
692.432	5.69
692.461	18.69
692.49	15.69
692.519	-9.31
692.548	2.69
692.578	15.69
692.607	-2.31
692.636	-24.31
692.665	16.69
692.694	-1.31
692.724	14.69
692.753	28.69
692.782	24.69
692.811	7.69
692.84	-9.31
692.87	15.69
692.899	9.69
692.928	5.69
692.957	3.69
692.986	13.69
693.016	8.69
693.045	13.69
693.074	13.69
693.103	6.69
693.132	8.69
693.161	10.69
693.191	-13.31
693.22	-8.31
693.249	2.69
693.278	2.69
693.307	15.69
693.336	-9.31
693.365	-4.31
693.395	14.69
693.424	3.69
693.453	30.69
693.482	-2.31
693.511	-0.31
693.54	2.69
693.569	12.69
693.598	14.69
693.628	13.69
693.657	4.69
693.686	20.69
693.715	3.69
693.744	5.69
693.773	25.69
693.802	6.69
693.831	-6.31
693.86	10.69
693.889	13.69
693.919	6.69
693.948	4.69
693.977	20.69
694.006	3.69
694.035	-2.31
694.064	2.69
694.093	3.69
694.122	-18.31
694.151	4.69
694.18	12.69
694.209	19.69
694.238	3.69
694.267	22.69
694.296	29.69
694.325	14.69
694.354	13.69
694.383	-6.31
694.412	-12.31
694.441	-12.31
694.471	-1.31
694.5	-7.31
694.529	13.69
694.558	33.69
694.587	25.69
694.616	3.69
694.645	-0.31
694.674	17.69
694.703	12.69
694.732	4.69
694.761	22.69
694.79	13.69
694.819	3.69
694.848	2.69
694.877	22.69
694.906	14.69
694.935	-0.31
694.963	23.69
694.992	4.69
695.021	8.69
695.05	15.69
695.079	-6.31
695.108	5.69
695.137	16.69
695.166	7.69
695.195	-5.31
695.224	14.69
695.253	-2.31
695.282	15.69
695.311	1.69
695.34	-5.31
695.369	19.69
695.398	5.69
695.427	30.69
695.456	1.69
695.485	8.69
695.513	8.69
695.542	7.69
695.571	10.69
695.6	34.69
695.629	6.69
695.658	21.69
695.687	2.69
695.716	13.69
695.745	5.69
695.774	-10.31
695.802	6.69
695.831	15.69
695.86	18.69
695.889	26.69
695.918	10.69
695.947	2.69
695.976	15.69
696.005	25.69
696.033	8.69
696.062	25.69
696.091	-4.31
696.12	-0.31
696.149	26.69
696.178	26.69
696.207	16.69
696.235	-2.31
696.264	5.69
696.293	7.69
696.322	9.69
696.351	17.69
696.38	-6.31
696.408	19.69
696.437	13.69
696.466	14.69
696.495	14.69
696.524	31.69
696.553	16.69
696.581	6.69
696.61	3.69
696.639	0.69
696.668	5.69
696.697	8.69
696.725	11.69
696.754	6.69
696.783	14.69
696.812	4.69
696.84	8.69
696.869	1.69
696.898	-1.31
696.927	-3.31
696.956	12.69
696.984	-9.31
697.013	20.69
697.042	5.69
697.071	6.69
697.099	13.69
697.128	3.69
697.157	14.69
697.186	5.69
697.214	7.69
697.243	2.69
697.272	5.69
697.301	5.69
697.329	5.69
697.358	22.69
697.387	18.69
697.415	20.69
697.444	-0.31
697.473	-3.31
697.502	-1.31
697.53	8.69
697.559	5.69
697.588	5.69
697.616	11.69
697.645	4.69
697.674	17.69
697.703	-4.31
697.731	6.69
697.76	5.69
697.789	9.69
697.817	8.69
697.846	19.69
697.875	-0.31
697.903	21.69
697.932	11.69
697.961	3.69
697.989	-1.31
698.018	8.69
698.047	20.69
698.075	19.69
698.104	-17.31
698.133	-12.31
698.161	-6.31
698.19	10.69
698.218	18.69
698.247	19.69
698.276	-11.31
698.304	29.69
698.333	-0.31
698.362	14.69
698.39	10.69
698.419	19.69
698.447	-5.31
698.476	3.69
698.505	23.69
698.533	8.69
698.562	-0.31
698.591	1.69
698.619	0.69
698.648	3.69
698.676	0.69
698.705	-4.31
698.733	-8.31
698.762	13.69
698.791	11.69
698.819	5.69
698.848	-3.31
698.876	6.69
698.905	3.69
698.933	9.69
698.962	-4.31
698.991	-2.31
699.019	16.69
699.048	4.69
699.076	4.69
699.105	-23.31
699.133	4.69
699.162	8.69
699.19	20.69
699.219	5.69
699.248	-2.31
699.276	-9.31
699.305	1.69
699.333	-1.31
699.362	-3.31
699.39	22.69
699.419	2.69
699.447	10.69
699.476	11.69
699.504	6.69
699.533	3.69
699.561	3.69
699.59	7.69
699.618	7.69
699.647	3.69
699.675	9.69
699.704	18.69
699.732	16.69
699.761	7.69
699.789	-6.31
699.818	-3.31
699.846	-8.31
699.874	7.69
699.903	7.69
699.931	-2.31
699.96	-12.31
699.988	2.69
700.017	0.69
700.045	3.69
700.074	21.69
700.102	-14.31
700.13	1.69
700.159	12.69
700.187	18.69
700.216	8.69
700.244	3.69
700.273	8.69
700.301	5.69
700.329	15.69
700.358	5.69
700.386	7.69
700.415	25.69
700.443	6.69
700.472	-4.31
700.5	2.69
700.528	9.69
700.557	16.69
700.585	-0.31
700.614	6.69
700.642	28.69
700.67	22.69
700.699	4.69
700.727	16.69
700.755	7.69
700.784	6.69
700.812	1.69
700.841	2.69
700.869	-7.31
700.897	-14.31
700.926	-1.31
700.954	2.69
700.982	8.69
701.011	9.69
701.039	18.69
701.067	1.69
701.096	7.69
701.124	3.69
701.152	-6.31
701.181	2.69
701.209	-5.31
701.237	-16.31
701.266	-4.31
701.294	1.69
701.322	8.69
701.351	26.69
701.379	6.69
701.407	3.69
701.435	12.69
701.464	7.69
701.492	20.69
701.52	-3.31
701.549	4.69
701.577	-0.31
701.605	8.69
701.634	7.69
701.662	14.69
701.69	-0.31
701.718	-10.31
701.747	-2.31
701.775	-10.31
701.803	-3.31
701.831	21.69
701.86	1.69
701.888	13.69
701.916	12.69
701.944	10.69
701.973	3.69
702.001	-0.31
702.029	-4.31
702.057	7.69
702.086	12.69
702.114	0.69
702.142	-1.31
702.17	-2.31
702.199	9.69
702.227	-0.31
702.255	3.69
702.283	2.69
702.311	-3.31
702.34	2.69
702.368	-2.31
702.396	2.69
702.424	-0.31
702.452	6.69
702.481	9.69
702.509	1.69
702.537	10.69
702.565	-1.31
702.593	-11.31
702.621	2.69
702.65	-0.31
702.678	16.69
702.706	17.69
702.734	-9.31
702.762	-1.31
702.79	1.69
702.819	4.69
702.847	17.69
702.875	38.69
702.903	21.69
702.931	1.69
702.959	4.69
702.988	19.69
703.016	2.69
703.044	-6.31
703.072	-3.31
703.1	-7.31
703.128	-5.31
703.156	10.69
703.184	6.69
703.212	10.69
703.241	22.69
703.269	9.69
703.297	8.69
703.325	11.69
703.353	-1.31
703.381	-1.31
703.409	3.69
703.437	2.69
703.465	-3.31
703.493	6.69
703.522	7.69
703.55	12.69
703.578	-2.31
703.606	-11.31
703.634	0.69
703.662	-4.31
703.69	-1.31
703.718	-0.31
703.746	13.69
703.774	1.69
703.802	6.69
703.83	-4.31
703.858	-0.31
703.886	10.69
703.914	-5.31
703.942	9.69
703.97	4.69
703.998	-10.31
704.027	5.69
704.055	5.69
704.083	-7.31
704.111	-10.31
704.139	3.69
704.167	7.69
704.195	1.69
704.223	-9.31
704.251	-9.31
704.279	9.69
704.307	-2.31
704.335	-10.31
704.363	3.69
704.391	-31.31
704.419	-21.31
704.447	-9.31
704.475	6.69
704.503	-10.31
704.531	21.69
704.558	5.69
704.586	15.69
704.614	-0.31
704.642	9.69
704.67	4.69
704.698	1.69
704.726	4.69
704.754	-6.31
704.782	1.69
704.81	9.69
704.838	6.69
704.866	12.69
704.894	-19.31
704.922	-3.31
704.95	14.69
704.978	18.69
705.006	-0.31
705.034	23.69
705.061	4.69
705.089	-5.31
705.117	-4.31
705.145	-4.31
705.173	-2.31
705.201	3.69
705.229	14.69
705.257	3.69
705.285	18.69
705.313	19.69
705.34	14.69
705.368	-3.31
705.396	2.69
705.424	7.69
705.452	-11.31
705.48	3.69
705.508	-2.31
705.536	2.69
705.563	2.69
705.591	9.69
705.619	8.69
705.647	-5.31
705.675	2.69
705.703	0.69
705.731	-7.31
705.758	0.69
705.786	0.69
705.814	16.69
705.842	11.69
705.87	12.69
705.898	22.69
705.925	9.69
705.953	1.69
705.981	-1.31
706.009	-6.31
706.037	12.69
706.065	-10.31
706.092	-11.31
706.12	-1.31
706.148	-13.31
706.176	7.69
706.204	5.69
706.231	16.69
706.259	-6.31
706.287	-0.31
706.315	3.69
706.342	2.69
706.37	12.69
706.398	10.69
706.426	1.69
706.454	0.69
706.481	5.69
706.509	12.69
706.537	-8.31
706.565	-1.31
706.592	4.69
706.62	9.69
706.648	3.69
706.676	-0.31
706.703	19.69
706.731	7.69
706.759	-6.31
706.787	6.69
706.814	6.69
706.842	-15.31
706.87	-2.31
706.897	29.69
706.925	1.69
706.953	10.69
706.981	12.69
707.008	7.69
707.036	8.69
707.064	9.69
707.091	-16.31
707.119	9.69
707.147	-3.31
707.174	-4.31
707.202	11.69
707.23	-15.31
707.258	6.69
707.285	-11.31
707.313	4.69
707.341	-3.31
707.368	2.69
707.396	25.69
707.424	23.69
707.451	2.69
707.479	15.69
707.507	-1.31
707.534	1.69
707.562	3.69
707.59	-9.31
707.617	-9.31
707.645	-0.31
707.672	1.69
707.7	-1.31
707.728	14.69
707.755	0.69
707.783	6.69
707.811	11.69
707.838	-4.31
707.866	11.69
707.893	8.69
707.921	1.69
707.949	-9.31
707.976	3.69
708.004	1.69
708.031	7.69
708.059	-5.31
708.087	18.69
708.114	0.69
708.142	-12.31
708.169	3.69
708.197	0.69
708.225	-0.31
708.252	4.69
708.28	-2.31
708.307	-11.31
708.335	3.69
708.362	16.69
708.39	-0.31
708.418	-3.31
708.445	-1.31
708.473	-2.31
708.5	9.69
708.528	13.69
708.555	9.69
708.583	-1.31
708.61	-9.31
708.638	-3.31
708.665	-8.31
708.693	12.69
708.72	3.69
708.748	-6.31
708.776	11.69
708.803	19.69
708.831	1.69
708.858	1.69
708.886	6.69
708.913	-0.31
708.941	-17.31
708.968	7.69
708.996	10.69
709.023	25.69
709.051	0.69
709.078	-13.31
709.105	4.69
709.133	10.69
709.16	1.69
709.188	11.69
709.215	7.69
709.243	6.69
709.27	-6.31
709.298	-1.31
709.325	-10.31
709.353	-8.31
709.38	-1.31
709.408	4.69
709.435	-10.31
709.462	2.69
709.49	1.69
709.517	-0.31
709.545	-7.31
709.572	-12.31
709.6	5.69
709.627	0.69
709.655	-1.31
709.682	-5.31
709.709	2.69
709.737	3.69
709.764	-5.31
709.792	8.69
709.819	2.69
709.846	-13.31
709.874	4.69
709.901	20.69
709.929	19.69
709.956	4.69
709.983	-10.31
710.011	-0.31
710.038	-8.31
710.066	9.69
710.093	8.69
710.12	8.69
710.148	-5.31
710.175	-3.31
710.202	-1.31
710.23	2.69
710.257	6.69
710.284	14.69
710.312	9.69
710.339	-0.31
710.366	20.69
710.394	7.69
710.421	2.69
710.448	-2.31
710.476	-12.31
710.503	3.69
710.53	12.69
710.558	21.69
710.585	4.69
710.612	1.69
710.64	3.69
710.667	-3.31
710.694	-9.31
710.722	-2.31
710.749	19.69
710.776	11.69
710.804	33.69
710.831	2.69
710.858	2.69
710.885	-2.31
710.913	1.69
710.94	33.69
710.967	8.69
710.995	0.69
711.022	-8.31
711.049	2.69
711.076	-1.31
711.104	-3.31
711.131	-7.31
711.158	3.69
711.185	13.69
711.213	3.69
711.24	6.69
711.267	-6.31
711.294	3.69
711.322	12.69
711.349	4.69
711.376	4.69
711.403	11.69
711.431	-3.31
711.458	-10.31
711.485	-6.31
711.512	19.69
711.54	-1.31
711.567	9.69
711.594	9.69
711.621	1.69
711.648	-8.31
711.676	2.69
711.703	7.69
711.73	-20.31
711.757	2.69
711.784	-5.31
711.812	-2.31
711.839	5.69
711.866	-13.31
711.893	-4.31
711.92	6.69
711.947	5.69
711.975	6.69
712.002	9.69
712.029	14.69
712.056	8.69
712.083	13.69
712.11	-19.31
712.138	4.69
712.165	11.69
712.192	1.69
712.219	0.69
712.246	-1.31
712.273	7.69
712.3	-1.31
712.328	6.69
712.355	11.69
712.382	-0.31
712.409	-1.31
712.436	-2.31
712.463	19.69
712.49	21.69
712.517	19.69
712.544	5.69
712.572	-0.31
712.599	-6.31
712.626	10.69
712.653	-10.31
712.68	-5.31
712.707	11.69
712.734	16.69
712.761	6.69
712.788	9.69
712.815	2.69
712.842	9.69
712.87	10.69
712.897	-4.31
712.924	-17.31
712.951	8.69
712.978	21.69
713.005	10.69
713.032	9.69
713.059	19.69
713.086	-9.31
713.113	-5.31
713.14	-11.31
713.167	-6.31
713.194	-1.31
713.221	-10.31
713.248	-10.31
713.275	-0.31
713.302	-6.31
713.329	-0.31
713.356	28.69
713.383	15.69
713.41	10.69
713.437	-4.31
713.464	1.69
713.491	-1.31
713.518	-1.31
713.545	5.69
713.572	12.69
713.599	23.69
713.626	6.69
713.653	18.69
713.68	-0.31
713.707	-3.31
713.734	7.69
713.761	0.69
713.788	6.69
713.815	9.69
713.842	7.69
713.869	1.69
713.896	1.69
713.923	-13.31
713.95	4.69
713.977	-0.31
714.004	3.69
714.031	2.69
714.058	-1.31
714.085	-2.31
714.112	10.69
714.139	6.69
714.165	9.69
714.192	1.69
714.219	17.69
714.246	3.69
714.273	11.69
714.3	5.69
714.327	3.69
714.354	-5.31
714.381	9.69
714.408	5.69
714.435	5.69
714.461	-1.31
714.488	23.69
714.515	-5.31
714.542	-18.31
714.569	-0.31
714.596	-7.31
714.623	5.69
714.65	6.69
714.677	17.69
714.703	-1.31
714.73	13.69
714.757	20.69
714.784	1.69
714.811	-6.31
714.838	-2.31
714.865	-12.31
714.891	10.69
714.918	9.69
714.945	-2.31
714.972	-3.31
714.999	14.69
715.026	4.69
715.052	5.69
715.079	3.69
715.106	13.69
715.133	2.69
715.16	-14.31
715.187	13.69
715.213	14.69
715.24	5.69
715.267	1.69
715.294	-4.31
715.321	11.69
715.347	6.69
715.374	-1.31
715.401	7.69
715.428	4.69
715.455	-1.31
715.481	-7.31
715.508	17.69
715.535	5.69
715.562	36.69
715.588	5.69
715.615	-1.31
715.642	-3.31
715.669	11.69
715.695	-9.31
715.722	1.69
715.749	20.69
715.776	12.69
715.802	2.69
715.829	3.69
715.856	-18.31
715.883	2.69
715.909	-3.31
715.936	-3.31
715.963	-13.31
715.99	-11.31
716.016	-0.31
716.043	3.69
716.07	-4.31
716.096	-12.31
716.123	9.69
716.15	13.69
716.177	7.69
716.203	9.69
716.23	12.69
716.257	3.69
716.283	28.69
716.31	24.69
716.337	1.69
716.363	5.69
716.39	10.69
716.417	10.69
716.443	18.69
716.47	16.69
716.497	4.69
716.523	18.69
716.55	6.69
716.577	1.69
716.603	-4.31
716.63	8.69
716.657	25.69
716.683	-10.31
716.71	-6.31
716.737	4.69
716.763	7.69
716.79	7.69
716.817	13.69
716.843	7.69
716.87	-1.31
716.897	9.69
716.923	12.69
716.95	2.69
716.976	-5.31
717.003	-6.31
717.03	-3.31
717.056	17.69
717.083	3.69
717.109	10.69
717.136	15.69
717.163	5.69
717.189	18.69
717.216	-6.31
717.242	1.69
717.269	7.69
717.296	5.69
717.322	10.69
717.349	12.69
717.375	9.69
717.402	-4.31
717.428	-3.31
717.455	4.69
717.481	3.69
717.508	4.69
717.535	-4.31
717.561	1.69
717.588	8.69
717.614	-5.31
717.641	-2.31
717.667	12.69
717.694	15.69
717.72	7.69
717.747	8.69
717.773	-13.31
717.8	2.69
717.826	-0.31
717.853	7.69
717.88	8.69
717.906	3.69
717.933	16.69
717.959	1.69
717.986	21.69
718.012	1.69
718.039	12.69
718.065	30.69
718.092	2.69
718.118	-0.31
718.144	-8.31
718.171	9.69
718.197	3.69
718.224	5.69
718.25	-5.31
718.277	4.69
718.303	8.69
718.33	-5.31
718.356	1.69
718.383	-0.31
718.409	-0.31
718.436	-0.31
718.462	-10.31
718.489	-7.31
718.515	13.69
718.541	11.69
718.568	-1.31
718.594	5.69
718.621	15.69
718.647	2.69
718.674	7.69
718.7	11.69
718.726	-11.31
718.753	-5.31
718.779	-2.31
718.806	-4.31
718.832	-2.31
718.858	6.69
718.885	-4.31
718.911	6.69
718.938	7.69
718.964	-12.31
718.99	-2.31
719.017	18.69
719.043	9.69
719.07	13.69
719.096	-5.31
719.122	9.69
719.149	5.69
719.175	-2.31
719.201	11.69
719.228	11.69
719.254	8.69
719.281	-2.31
719.307	2.69
719.333	-2.31
719.36	7.69
719.386	1.69
719.412	10.69
719.439	4.69
719.465	-0.31
719.491	6.69
719.518	14.69
719.544	-13.31
719.57	5.69
719.597	-4.31
719.623	-1.31
719.649	20.69
719.675	5.69
719.702	5.69
719.728	27.69
719.754	-1.31
719.781	3.69
719.807	0.69
719.833	5.69
719.86	-1.31
719.886	-2.31
719.912	8.69
719.938	-5.31
719.965	11.69
719.991	25.69
720.017	9.69
720.044	2.69
720.07	9.69
720.096	14.69
720.122	11.69
720.149	9.69
720.175	20.69
720.201	14.69
720.227	9.69
720.254	4.69
720.28	10.69
720.306	4.69
720.332	20.69
720.359	10.69
720.385	15.69
720.411	15.69
720.437	-1.31
720.463	-8.31
720.49	23.69
720.516	4.69
720.542	-6.31
720.568	0.69
720.595	17.69
720.621	-6.31
720.647	-5.31
720.673	-2.31
720.699	3.69
720.725	-1.31
720.752	6.69
720.778	9.69
720.804	5.69
720.83	-3.31
720.856	2.69
720.883	-1.31
720.909	6.69
720.935	5.69
720.961	21.69
720.987	11.69
721.013	12.69
721.04	-7.31
721.066	7.69
721.092	2.69
721.118	6.69
721.144	22.69
721.17	3.69
721.196	18.69
721.223	2.69
721.249	17.69
721.275	27.69
721.301	13.69
721.327	7.69
721.353	7.69
721.379	9.69
721.405	5.69
721.432	0.69
721.458	1.69
721.484	23.69
721.51	-14.31
721.536	7.69
721.562	3.69
721.588	11.69
721.614	1.69
721.64	-0.31
721.666	15.69
721.693	-0.31
721.719	1.69
721.745	8.69
721.771	4.69
721.797	-10.31
721.823	5.69
721.849	18.69
721.875	5.69
721.901	-0.31
721.927	-5.31
721.953	-9.31
721.979	18.69
722.005	25.69
722.031	12.69
722.057	4.69
722.083	-7.31
722.109	7.69
722.135	14.69
722.161	5.69
722.187	-9.31
722.214	2.69
722.24	12.69
722.266	-8.31
722.292	5.69
722.318	16.69
722.344	6.69
722.37	8.69
722.396	20.69
722.422	6.69
722.448	-2.31
722.474	7.69
722.5	10.69
722.526	1.69
722.552	-8.31
722.578	-1.31
722.603	3.69
722.629	0.69
722.655	9.69
722.681	4.69
722.707	3.69
722.733	3.69
722.759	14.69
722.785	0.69
722.811	11.69
722.837	15.69
722.863	24.69
722.889	11.69
722.915	3.69
722.941	7.69
722.967	-6.31
722.993	21.69
723.019	9.69
723.045	9.69
723.071	13.69
723.097	18.69
723.122	4.69
723.148	-8.31
723.174	-2.31
723.2	0.69
723.226	2.69
723.252	11.69
723.278	-10.31
723.304	3.69
723.33	12.69
723.356	-5.31
723.381	-6.31
723.407	-12.31
723.433	24.69
723.459	2.69
723.485	5.69
723.511	14.69
723.537	5.69
723.563	6.69
723.588	7.69
723.614	9.69
723.64	-5.31
723.666	-1.31
723.692	8.69
723.718	8.69
723.744	-4.31
723.769	-1.31
723.795	-2.31
723.821	-0.31
723.847	-4.31
723.873	6.69
723.899	2.69
723.924	-8.31
723.95	2.69
723.976	1.69
724.002	13.69
724.028	6.69
724.053	-10.31
724.079	2.69
724.105	0.69
724.131	-10.31
724.157	3.69
724.182	6.69
724.208	-1.31
724.234	5.69
724.26	4.69
724.286	3.69
724.311	-0.31
724.337	-12.31
724.363	-6.31
724.389	17.69
724.415	-5.31
724.44	14.69
724.466	-2.31
724.492	2.69
724.518	1.69
724.543	11.69
724.569	0.69
724.595	14.69
724.621	1.69
724.646	-10.31
724.672	0.69
724.698	-7.31
724.723	-3.31
724.749	8.69
724.775	26.69
724.801	2.69
724.826	-1.31
724.852	6.69
724.878	1.69
724.904	1.69
724.929	2.69
724.955	-11.31
724.981	-1.31
725.006	13.69
725.032	15.69
725.058	32.69
725.083	6.69
725.109	-12.31
725.135	-4.31
725.161	-7.31
725.186	1.69
725.212	-0.31
725.238	-3.31
725.263	5.69
725.289	-5.31
725.315	-19.31
725.34	-0.31
725.366	1.69
725.392	4.69
725.417	3.69
725.443	-1.31
725.468	18.69
725.494	32.69
725.52	15.69
725.545	-0.31
725.571	6.69
725.597	0.69
725.622	2.69
725.648	-9.31
725.674	5.69
725.699	15.69
725.725	-9.31
725.75	25.69
725.776	-3.31
725.802	0.69
725.827	5.69
725.853	10.69
725.878	12.69
725.904	0.69
725.93	7.69
725.955	-1.31
725.981	0.69
726.006	-4.31
726.032	-0.31
726.057	-4.31
726.083	-1.31
726.109	-1.31
726.134	-4.31
726.16	1.69
726.185	-13.31
726.211	-1.31
726.236	4.69
726.262	1.69
726.288	6.69
726.313	24.69
726.339	8.69
726.364	7.69
726.39	8.69
726.415	2.69
726.441	-2.31
726.466	5.69
726.492	-0.31
726.517	12.69
726.543	1.69
726.568	-8.31
726.594	14.69
726.619	-1.31
726.645	1.69
726.67	13.69
726.696	5.69
726.721	1.69
726.747	-5.31
726.772	5.69
726.798	2.69
726.823	7.69
726.849	7.69
726.874	14.69
726.9	24.69
726.925	17.69
726.951	6.69
726.976	10.69
727.002	-10.31
727.027	2.69
727.053	6.69
727.078	-0.31
727.104	8.69
727.129	-1.31
727.155	7.69
727.18	6.69
727.205	4.69
727.231	4.69
727.256	16.69
727.282	1.69
727.307	2.69
727.333	1.69
727.358	6.69
727.383	-1.31
727.409	-8.31
727.434	19.69
727.46	-6.31
727.485	2.69
727.511	17.69
727.536	-3.31
727.561	-8.31
727.587	-8.31
727.612	-5.31
727.637	1.69
727.663	-9.31
727.688	11.69
727.714	-4.31
727.739	1.69
727.764	-10.31
727.79	-3.31
727.815	1.69
727.841	30.69
727.866	2.69
727.891	9.69
727.917	-8.31
727.942	-18.31
727.967	-1.31
727.993	-10.31
728.018	-4.31
728.043	10.69
728.069	18.69
728.094	10.69
728.119	11.69
728.145	17.69
728.17	12.69
728.195	4.69
728.221	14.69
728.246	-0.31
728.271	-6.31
728.297	3.69
728.322	15.69
728.347	-7.31
728.373	10.69
728.398	15.69
728.423	-1.31
728.448	-6.31
728.474	-10.31
728.499	15.69
728.524	-2.31
728.55	-11.31
728.575	4.69
728.6	2.69
728.625	2.69
728.651	10.69
728.676	13.69
728.701	10.69
728.727	9.69
728.752	-5.31
728.777	-1.31
728.802	10.69
728.828	1.69
728.853	1.69
728.878	5.69
728.903	-1.31
728.929	-2.31
728.954	5.69
728.979	4.69
729.004	1.69
729.03	-19.31
729.055	-0.31
729.08	-6.31
729.105	-2.31
729.13	-0.31
729.156	23.69
729.181	22.69
729.206	-2.31
729.231	-6.31
729.256	7.69
729.282	9.69
729.307	6.69
729.332	2.69
729.357	1.69
729.382	1.69
729.408	4.69
729.433	5.69
729.458	-3.31
729.483	17.69
729.508	19.69
729.533	1.69
729.559	0.69
729.584	-10.31
729.609	9.69
729.634	10.69
729.659	8.69
729.684	0.69
729.71	22.69
729.735	18.69
729.76	-1.31
729.785	-9.31
729.81	4.69
729.835	-1.31
729.86	-20.31
729.886	14.69
729.911	7.69
729.936	-2.31
729.961	11.69
729.986	-17.31
730.011	1.69
730.036	2.69
730.061	6.69
730.086	-0.31
730.112	15.69
730.137	28.69
730.162	-7.31
730.187	-9.31
730.212	-0.31
730.237	-6.31
730.262	-4.31
730.287	-10.31
730.312	21.69
730.337	-13.31
730.362	12.69
730.387	-9.31
730.413	-6.31
730.438	-12.31
730.463	22.69
730.488	-3.31
730.513	-4.31
730.538	-4.31
730.563	15.69
730.588	10.69
730.613	2.69
730.638	2.69
730.663	-7.31
730.688	17.69
730.713	15.69
730.738	2.69
730.763	6.69
730.788	-4.31
730.813	17.69
730.838	11.69
730.863	11.69
730.888	-8.31
730.913	-7.31
730.938	-3.31
730.963	7.69
730.988	13.69
731.013	17.69
731.038	-3.31
731.063	-6.31
731.088	14.69
731.113	5.69
731.138	-2.31
731.163	-9.31
731.188	-8.31
731.213	1.69
731.238	9.69
731.263	-3.31
731.288	-1.31
731.313	21.69
731.338	10.69
731.363	-0.31
731.388	2.69
731.413	-1.31
731.438	16.69
731.463	-2.31
731.487	1.69
731.512	-7.31
731.537	-5.31
731.562	-8.31
731.587	7.69
731.612	9.69
731.637	-4.31
731.662	-10.31
731.687	-16.31
731.712	-7.31
731.737	3.69
731.762	1.69
731.786	13.69
731.811	-3.31
731.836	5.69
731.861	12.69
731.886	-9.31
731.911	3.69
731.936	6.69
731.961	3.69
731.986	-3.31
732.01	25.69
732.035	2.69
732.06	19.69
732.085	-5.31
732.11	11.69
732.135	-12.31
732.16	-1.31
732.184	6.69
732.209	3.69
732.234	7.69
732.259	-8.31
732.284	19.69
732.309	-2.31
732.334	4.69
732.358	-2.31
732.383	-33.31
732.408	-4.31
732.433	8.69
732.458	-6.31
732.482	5.69
732.507	-6.31
732.532	1.69
732.557	11.69
732.582	2.69
732.607	11.69
732.631	-2.31
732.656	-9.31
732.681	3.69
732.706	7.69
732.73	-1.31
732.755	-13.31
732.78	7.69
732.805	12.69
732.83	-3.31
732.854	10.69
732.879	7.69
732.904	0.69
732.929	3.69
732.953	2.69
732.978	2.69
733.003	-6.31
733.028	-7.31
733.052	1.69
733.077	2.69
733.102	6.69
733.127	-6.31
733.151	-6.31
733.176	23.69
733.201	3.69
733.226	-6.31
733.25	4.69
733.275	9.69
733.3	12.69
733.324	15.69
733.349	11.69
733.374	22.69
733.399	17.69
733.423	12.69
733.448	9.69
733.473	8.69
733.497	7.69
733.522	9.69
733.547	29.69
733.571	22.69
733.596	-0.31
733.621	14.69
733.646	5.69
733.67	15.69
733.695	-7.31
733.72	-6.31
733.744	22.69
733.769	19.69
733.794	10.69
733.818	14.69
733.843	-3.31
733.867	-5.31
733.892	12.69
733.917	13.69
733.941	9.69
733.966	-10.31
733.991	0.69
734.015	12.69
734.04	8.69
734.065	16.69
734.089	13.69
734.114	2.69
734.138	21.69
734.163	6.69
734.188	-3.31
734.212	1.69
734.237	14.69
734.261	9.69
734.286	5.69
734.311	3.69
734.335	9.69
734.36	4.69
734.384	13.69
734.409	10.69
734.434	0.69
734.458	8.69
734.483	-0.31
734.507	-6.31
734.532	-1.31
734.556	-1.31
734.581	2.69
734.606	-4.31
734.63	-4.31
734.655	10.69
734.679	3.69
734.704	-4.31
734.728	-2.31
734.753	-2.31
734.777	-0.31
734.802	14.69
734.826	10.69
734.851	9.69
734.876	31.69
734.9	3.69
734.925	14.69
734.949	2.69
734.974	2.69
734.998	4.69
735.023	-8.31
735.047	7.69
735.072	13.69
735.096	-7.31
735.121	1.69
735.145	5.69
735.17	1.69
735.194	13.69
735.219	-2.31
735.243	-2.31
735.268	15.69
735.292	32.69
735.317	10.69
735.341	2.69
735.365	-8.31
735.39	14.69
735.414	8.69
735.439	11.69
735.463	29.69
735.488	16.69
735.512	-1.31
735.537	6.69
735.561	1.69
735.586	-1.31
735.61	9.69
735.634	-4.31
735.659	9.69
735.683	22.69
735.708	6.69
735.732	-3.31
735.757	5.69
735.781	6.69
735.805	11.69
735.83	-2.31
735.854	-16.31
735.879	7.69
735.903	3.69
735.927	1.69
735.952	7.69
735.976	7.69
736.001	7.69
736.025	4.69
736.049	1.69
736.074	4.69
736.098	9.69
736.123	11.69
736.147	-3.31
736.171	7.69
736.196	23.69
736.22	4.69
736.244	-2.31
736.269	1.69
736.293	-9.31
736.317	6.69
736.342	11.69
736.366	-0.31
736.39	27.69
736.415	17.69
736.439	11.69
736.463	3.69
736.488	11.69
736.512	-0.31
736.536	9.69
736.561	22.69
736.585	-4.31
736.609	10.69
736.634	-11.31
736.658	1.69
736.682	-17.31
736.707	8.69
736.731	-3.31
736.755	13.69
736.78	3.69
736.804	-0.31
736.828	3.69
736.852	8.69
736.877	-1.31
736.901	7.69
736.925	1.69
736.949	15.69
736.974	4.69
736.998	-7.31
737.022	1.69
737.047	-9.31
737.071	-0.31
737.095	29.69
737.119	26.69
737.144	14.69
737.168	-8.31
737.192	2.69
737.216	-1.31
737.241	12.69
737.265	15.69
737.289	0.69
737.313	6.69
737.337	18.69
737.362	16.69
737.386	4.69
737.41	-0.31
737.434	5.69
737.459	3.69
737.483	22.69
737.507	14.69
737.531	27.69
737.555	12.69
737.58	13.69
737.604	4.69
737.628	-5.31
737.652	-20.31
737.676	9.69
737.701	0.69
737.725	-4.31
737.749	-0.31
737.773	2.69
737.797	-5.31
737.821	1.69
737.846	5.69
737.87	12.69
737.894	11.69
737.918	8.69
737.942	-2.31
737.966	7.69
737.99	26.69
738.015	24.69
738.039	7.69
738.063	4.69
738.087	0.69
738.111	10.69
738.135	19.69
738.159	-7.31
738.184	-0.31
738.208	0.69
738.232	11.69
738.256	20.69
738.28	17.69
738.304	21.69
738.328	3.69
738.352	13.69
738.376	-1.31
738.4	14.69
738.425	20.69
738.449	0.69
738.473	9.69
738.497	13.69
738.521	13.69
738.545	-0.31
738.569	1.69
738.593	21.69
738.617	9.69
738.641	3.69
738.665	-1.31
738.689	-1.31
738.713	-3.31
738.737	-5.31
738.762	27.69
738.786	-5.31
738.81	0.69
738.834	16.69
738.858	-0.31
738.882	-0.31
738.906	-1.31
738.93	8.69
738.954	16.69
738.978	15.69
739.002	6.69
739.026	13.69
739.05	13.69
739.074	-9.31
739.098	23.69
739.122	37.69
739.146	13.69
739.17	17.69
739.194	4.69
739.218	1.69
739.242	-8.31
739.266	6.69
739.29	16.69
739.314	14.69
739.338	11.69
739.362	-1.31
739.386	3.69
739.41	-17.31
739.434	-2.31
739.458	14.69
739.482	8.69
739.506	6.69
739.53	-4.31
739.554	13.69
739.577	-0.31
739.601	16.69
739.625	-9.31
739.649	-2.31
739.673	2.69
739.697	10.69
739.721	5.69
739.745	22.69
739.769	5.69
739.793	3.69
739.817	10.69
739.841	2.69
739.865	21.69
739.889	-9.31
739.912	12.69
739.936	4.69
739.96	2.69
739.984	12.69
740.008	3.69
740.032	-14.31
740.056	-6.31
740.08	-0.31
740.104	-3.31
740.127	24.69
740.151	3.69
740.175	-2.31
740.199	15.69
740.223	50.69
740.247	11.69
740.271	8.69
740.295	-3.31
740.318	-16.31
740.342	4.69
740.366	7.69
740.39	8.69
740.414	-9.31
740.438	-7.31
740.461	14.69
740.485	-5.31
740.509	7.69
740.533	6.69
740.557	-4.31
740.581	12.69
740.604	-20.31
740.628	-14.31
740.652	-5.31
740.676	7.69
740.7	15.69
740.723	-2.31
740.747	5.69
740.771	0.69
740.795	6.69
740.819	7.69
740.842	5.69
740.866	2.69
740.89	9.69
740.914	-2.31
740.938	5.69
740.961	28.69
740.985	-3.31
741.009	-13.31
741.033	-2.31
741.056	10.69
741.08	2.69
741.104	-8.31
741.128	20.69
741.151	-0.31
741.175	-5.31
741.199	4.69
741.223	27.69
741.246	1.69
741.27	10.69
741.294	21.69
741.318	-7.31
741.341	-8.31
741.365	10.69
741.389	-0.31
741.413	14.69
741.436	29.69
741.46	9.69
741.484	18.69
741.507	7.69
741.531	23.69
741.555	20.69
741.579	7.69
741.602	6.69
741.626	14.69
741.65	16.69
741.673	13.69
741.697	32.69
741.721	15.69
741.744	-14.31
741.768	-4.31
741.792	-2.31
741.815	-2.31
741.839	14.69
741.863	13.69
741.886	21.69
741.91	10.69
741.934	32.69
741.957	-5.31
741.981	12.69
742.005	8.69
742.028	-7.31
742.052	-10.31
742.075	1.69
742.099	4.69
742.123	9.69
742.146	7.69
742.17	3.69
742.194	-12.31
742.217	-0.31
742.241	5.69
742.264	10.69
742.288	17.69
742.312	6.69
742.335	4.69
742.359	-4.31
742.382	16.69
742.406	24.69
742.43	-6.31
742.453	-1.31
742.477	0.69
742.5	12.69
742.524	4.69
742.548	-1.31
742.571	8.69
742.595	6.69
742.618	-3.31
742.642	-16.31
742.665	16.69
742.689	7.69
742.712	16.69
742.736	7.69
742.76	10.69
742.783	2.69
742.807	-2.31
742.83	7.69
742.854	-4.31
742.877	10.69
742.901	-6.31
742.924	-0.31
742.948	7.69
742.971	5.69
742.995	4.69
743.018	-2.31
743.042	-1.31
743.065	-3.31
743.089	8.69
743.112	8.69
743.136	-1.31
743.159	0.69
743.183	-2.31
743.206	-0.31
743.23	-4.31
743.253	7.69
743.277	7.69
743.3	-0.31
743.324	1.69
743.347	2.69
743.371	17.69
743.394	14.69
743.418	14.69
743.441	12.69
743.465	4.69
743.488	20.69
743.512	-6.31
743.535	5.69
743.558	7.69
743.582	0.69
743.605	12.69
743.629	11.69
743.652	10.69
743.676	12.69
743.699	11.69
743.723	-2.31
743.746	3.69
743.769	12.69
743.793	-0.31
743.816	-14.31
743.84	-2.31
743.863	-1.31
743.886	11.69
743.91	11.69
743.933	9.69
743.957	23.69
743.98	14.69
744.003	18.69
744.027	16.69
744.05	-1.31
744.074	10.69
744.097	-1.31
744.12	4.69
744.144	-2.31
744.167	12.69
744.19	12.69
744.214	5.69
744.237	-8.31
744.26	13.69
744.284	-10.31
744.307	-3.31
744.331	-5.31
744.354	-3.31
744.377	-2.31
744.401	-4.31
744.424	13.69
744.447	9.69
744.471	8.69
