Data from HighRes_H2_15_09_11_07_2024_HR4C61891__106__15-11-07-001.txt Node

Date: Thu Nov 07 15:11:07 EST 2024
User: crc00042
Spectrometer: HR4C6189
Trigger mode: 4
Integration Time (sec): 1.000000E-1
Scans to average: 1
Electric dark correction enabled: true
Nonlinearity correction enabled: false
Boxcar width: 0
XAxis mode: Wavelengths
Number of Pixels in Spectrum: 3648
>>>>>Begin Spectral Data<<<<<
639.567	-35.69
639.602	-35.69
639.636	-35.69
639.67	-34.69
639.704	-17.69
639.738	-3.69
639.773	19.31
639.807	8.31
639.841	-0.69
639.875	11.31
639.909	-2.69
639.943	-13.69
639.978	-19.69
640.012	1.31
640.046	1.31
640.08	7.31
640.114	5.31
640.148	-13.69
640.182	-7.69
640.217	-0.69
640.251	33.31
640.285	12.31
640.319	-6.69
640.353	1.31
640.387	21.31
640.421	10.31
640.455	-2.69
640.49	-2.69
640.524	5.31
640.558	16.31
640.592	15.31
640.626	5.31
640.66	5.31
640.694	-6.69
640.728	8.31
640.762	10.31
640.796	2.31
640.83	16.31
640.865	-7.69
640.899	8.31
640.933	8.31
640.967	-1.69
641.001	7.31
641.035	20.31
641.069	-0.69
641.103	-20.69
641.137	-1.69
641.171	-2.69
641.205	4.31
641.239	1.31
641.273	29.31
641.307	-1.69
641.341	1.31
641.375	-4.69
641.409	-4.69
641.443	-5.69
641.477	6.31
641.511	0.31
641.545	-1.69
641.579	-12.69
641.614	0.31
641.648	-10.69
641.682	8.31
641.716	6.31
641.75	6.31
641.784	-7.69
641.818	0.31
641.852	7.31
641.886	3.31
641.919	20.31
641.953	-1.69
641.987	-9.69
642.021	3.31
642.055	19.31
642.089	10.31
642.123	-4.69
642.157	-13.69
642.191	-13.69
642.225	6.31
642.259	2.31
642.293	13.31
642.327	11.31
642.361	-2.69
642.395	1.31
642.429	10.31
642.463	8.31
642.497	-1.69
642.531	2.31
642.565	-0.69
642.599	14.31
642.633	-2.69
642.666	12.31
642.7	18.31
642.734	13.31
642.768	-14.69
642.802	10.31
642.836	3.31
642.87	-6.69
642.904	15.31
642.938	-1.69
642.972	11.31
643.005	6.31
643.039	17.31
643.073	7.31
643.107	7.31
643.141	2.31
643.175	0.31
643.209	-4.69
643.243	8.31
643.276	13.31
643.31	10.31
643.344	-8.69
643.378	7.31
643.412	23.31
643.446	6.31
643.48	-1.69
643.513	14.31
643.547	-10.69
643.581	-19.69
643.615	-11.69
643.649	-4.69
643.683	13.31
643.716	-11.69
643.75	2.31
643.784	-19.69
643.818	-2.69
643.852	-4.69
643.886	-0.69
643.919	8.31
643.953	-7.69
643.987	8.31
644.021	7.31
644.055	5.31
644.088	-0.69
644.122	-6.69
644.156	-7.69
644.19	7.31
644.224	3.31
644.257	5.31
644.291	5.31
644.325	2.31
644.359	11.31
644.392	12.31
644.426	13.31
644.46	3.31
644.494	6.31
644.527	-20.69
644.561	-11.69
644.595	3.31
644.629	-10.69
644.662	-1.69
644.696	5.31
644.73	5.31
644.764	-11.69
644.797	8.31
644.831	16.31
644.865	24.31
644.899	2.31
644.932	21.31
644.966	-3.69
645	-4.69
645.033	23.31
645.067	3.31
645.101	7.31
645.135	9.31
645.168	0.31
645.202	13.31
645.236	9.31
645.269	15.31
645.303	6.31
645.337	-5.69
645.37	-0.69
645.404	1.31
645.438	15.31
645.471	13.31
645.505	21.31
645.539	5.31
645.572	-15.69
645.606	-1.69
645.64	3.31
645.673	9.31
645.707	15.31
645.741	2.31
645.774	10.31
645.808	15.31
645.842	-8.69
645.875	7.31
645.909	6.31
645.943	-2.69
645.976	-1.69
646.01	8.31
646.043	13.31
646.077	17.31
646.111	-1.69
646.144	4.31
646.178	16.31
646.212	-15.69
646.245	-17.69
646.279	1.31
646.312	-2.69
646.346	7.31
646.38	-6.69
646.413	1.31
646.447	2.31
646.48	3.31
646.514	13.31
646.547	-3.69
646.581	-6.69
646.615	3.31
646.648	4.31
646.682	5.31
646.715	6.31
646.749	5.31
646.782	5.31
646.816	11.31
646.85	15.31
646.883	-1.69
646.917	12.31
646.95	-7.69
646.984	14.31
647.017	5.31
647.051	20.31
647.084	5.31
647.118	5.31
647.151	3.31
647.185	6.31
647.218	-7.69
647.252	-1.69
647.285	-6.69
647.319	-12.69
647.353	-1.69
647.386	11.31
647.42	6.31
647.453	1.31
647.487	-0.69
647.52	9.31
647.553	-7.69
647.587	-12.69
647.62	-7.69
647.654	10.31
647.687	14.31
647.721	24.31
647.754	-0.69
647.788	4.31
647.821	-7.69
647.855	9.31
647.888	4.31
647.922	4.31
647.955	-3.69
647.989	-5.69
648.022	-1.69
648.055	14.31
648.089	-9.69
648.122	27.31
648.156	2.31
648.189	-10.69
648.223	1.31
648.256	26.31
648.29	22.31
648.323	10.31
648.356	7.31
648.39	20.31
648.423	25.31
648.457	4.31
648.49	-1.69
648.523	12.31
648.557	-2.69
648.59	-0.69
648.624	6.31
648.657	2.31
648.69	12.31
648.724	20.31
648.757	7.31
648.791	5.31
648.824	11.31
648.857	3.31
648.891	1.31
648.924	11.31
648.957	21.31
648.991	3.31
649.024	11.31
649.057	2.31
649.091	-2.69
649.124	6.31
649.158	14.31
649.191	25.31
649.224	7.31
649.258	-2.69
649.291	11.31
649.324	4.31
649.358	-0.69
649.391	6.31
649.424	11.31
649.458	-3.69
649.491	9.31
649.524	-2.69
649.557	-8.69
649.591	-15.69
649.624	-3.69
649.657	6.31
649.691	-0.69
649.724	3.31
649.757	13.31
649.791	5.31
649.824	27.31
649.857	-3.69
649.89	-4.69
649.924	-14.69
649.957	-7.69
649.99	-14.69
650.023	-8.69
650.057	-6.69
650.09	7.31
650.123	-3.69
650.157	12.31
650.19	10.31
650.223	-14.69
650.256	-13.69
650.29	-16.69
650.323	12.31
650.356	9.31
650.389	6.31
650.423	8.31
650.456	7.31
650.489	7.31
650.522	8.31
650.555	19.31
650.589	24.31
650.622	15.31
650.655	13.31
650.688	22.31
650.721	-3.69
650.755	3.31
650.788	20.31
650.821	6.31
650.854	11.31
650.887	2.31
650.921	-4.69
650.954	4.31
650.987	-10.69
651.02	7.31
651.053	-1.69
651.087	-19.69
651.12	13.31
651.153	3.31
651.186	-8.69
651.219	-9.69
651.252	18.31
651.286	16.31
651.319	-9.69
651.352	7.31
651.385	-2.69
651.418	13.31
651.451	14.31
651.484	8.31
651.518	-14.69
651.551	26.31
651.584	0.31
651.617	16.31
651.65	-5.69
651.683	17.31
651.716	10.31
651.749	-17.69
651.783	2.31
651.816	-5.69
651.849	16.31
651.882	6.31
651.915	3.31
651.948	4.31
651.981	10.31
652.014	-2.69
652.047	-0.69
652.08	-10.69
652.114	1.31
652.147	-15.69
652.18	-3.69
652.213	4.31
652.246	-10.69
652.279	-10.69
652.312	10.31
652.345	-9.69
652.378	7.31
652.411	24.31
652.444	3.31
652.477	1.31
652.51	-9.69
652.543	-9.69
652.576	6.31
652.609	2.31
652.642	-14.69
652.675	10.31
652.709	8.31
652.742	14.31
652.775	-2.69
652.808	10.31
652.841	-2.69
652.874	8.31
652.907	3.31
652.94	1.31
652.973	-6.69
653.006	-14.69
653.039	-4.69
653.072	10.31
653.105	4.31
653.138	-7.69
653.171	-3.69
653.204	7.31
653.237	14.31
653.27	-2.69
653.303	10.31
653.336	26.31
653.368	-3.69
653.401	9.31
653.434	-1.69
653.467	2.31
653.5	-6.69
653.533	1.31
653.566	5.31
653.599	3.31
653.632	11.31
653.665	-1.69
653.698	-10.69
653.731	-3.69
653.764	9.31
653.797	-6.69
653.83	0.31
653.863	-0.69
653.896	-1.69
653.929	-5.69
653.961	13.31
653.994	3.31
654.027	1.31
654.06	3.31
654.093	-0.69
654.126	4.31
654.159	5.31
654.192	9.31
654.225	0.31
654.258	2.31
654.29	-0.69
654.323	6.31
654.356	4.31
654.389	9.31
654.422	6.31
654.455	4.31
654.488	-0.69
654.521	-2.69
654.553	-7.69
654.586	20.31
654.619	6.31
654.652	-12.69
654.685	11.31
654.718	12.31
654.751	5.31
654.783	-2.69
654.816	17.31
654.849	20.31
654.882	-7.69
654.915	-12.69
654.948	6.31
654.98	-15.69
655.013	0.31
655.046	7.31
655.079	-7.69
655.112	4.31
655.144	0.31
655.177	9.31
655.21	24.31
655.243	22.31
655.276	16.31
655.308	4.31
655.341	4.31
655.374	5.31
655.407	-2.69
655.44	7.31
655.472	19.31
655.505	10.31
655.538	17.31
655.571	17.31
655.603	16.31
655.636	-2.69
655.669	8.31
655.702	16.31
655.734	3.31
655.767	14.31
655.8	23.31
655.833	7.31
655.865	20.31
655.898	16.31
655.931	36.31
655.964	51.31
655.996	64.31
656.029	69.31
656.062	66.31
656.095	72.31
656.127	64.31
656.16	98.31
656.193	127.31
656.225	179.31
656.258	275.31
656.291	506.31
656.324	1152.31
656.356	3388.31
656.389	7569.31
656.422	6044.31
656.454	2051.31
656.487	699.31
656.52	254.31
656.552	122.31
656.585	79.31
656.618	53.31
656.65	54.31
656.683	37.31
656.716	18.31
656.748	21.31
656.781	16.31
656.814	-3.69
656.846	14.31
656.879	14.31
656.912	17.31
656.944	4.31
656.977	-11.69
657.01	-4.69
657.042	6.31
657.075	3.31
657.108	6.31
657.14	3.31
657.173	6.31
657.205	38.31
657.238	23.31
657.271	-9.69
657.303	-3.69
657.336	0.31
657.369	1.31
657.401	2.31
657.434	6.31
657.466	9.31
657.499	-5.69
657.532	-5.69
657.564	18.31
657.597	23.31
657.629	9.31
657.662	3.31
657.694	4.31
657.727	-19.69
657.76	0.31
657.792	-1.69
657.825	-0.69
657.857	6.31
657.89	-2.69
657.922	5.31
657.955	-19.69
657.987	5.31
658.02	18.31
658.053	14.31
658.085	-6.69
658.118	3.31
658.15	17.31
658.183	18.31
658.215	-4.69
658.248	-12.69
658.28	-1.69
658.313	10.31
658.345	21.31
658.378	11.31
658.41	-5.69
658.443	-0.69
658.475	8.31
658.508	13.31
658.54	6.31
658.573	-6.69
658.605	12.31
658.638	10.31
658.67	9.31
658.703	-7.69
658.735	2.31
658.768	1.31
658.8	-2.69
658.833	-2.69
658.865	-3.69
658.898	-4.69
658.93	0.31
658.963	-2.69
658.995	1.31
659.028	10.31
659.06	2.31
659.092	-0.69
659.125	-11.69
659.157	13.31
659.19	4.31
659.222	-6.69
659.255	-12.69
659.287	9.31
659.32	-4.69
659.352	1.31
659.384	18.31
659.417	4.31
659.449	-6.69
659.482	6.31
659.514	-5.69
659.546	6.31
659.579	-4.69
659.611	6.31
659.644	0.31
659.676	-25.69
659.708	0.31
659.741	-21.69
659.773	-1.69
659.806	3.31
659.838	14.31
659.87	7.31
659.903	-1.69
659.935	8.31
659.967	12.31
660	6.31
660.032	-7.69
660.065	19.31
660.097	9.31
660.129	7.31
660.162	0.31
660.194	10.31
660.226	16.31
660.259	0.31
660.291	-9.69
660.323	-18.69
660.356	5.31
660.388	10.31
660.42	-6.69
660.453	4.31
660.485	3.31
660.517	-0.69
660.55	-2.69
660.582	-18.69
660.614	10.31
660.647	-11.69
660.679	-13.69
660.711	6.31
660.743	-4.69
660.776	-4.69
660.808	6.31
660.84	-7.69
660.873	-9.69
660.905	2.31
660.937	17.31
660.969	8.31
661.002	1.31
661.034	16.31
661.066	1.31
661.099	6.31
661.131	6.31
661.163	-4.69
661.195	4.31
661.228	26.31
661.26	0.31
661.292	-4.69
661.324	6.31
661.357	12.31
661.389	8.31
661.421	3.31
661.453	3.31
661.485	16.31
661.518	6.31
661.55	-13.69
661.582	-6.69
661.614	-11.69
661.647	6.31
661.679	-7.69
661.711	7.31
661.743	-1.69
661.775	0.31
661.808	23.31
661.84	4.31
661.872	9.31
661.904	9.31
661.936	6.31
661.969	-0.69
662.001	6.31
662.033	-1.69
662.065	9.31
662.097	22.31
662.129	14.31
662.162	7.31
662.194	0.31
662.226	0.31
662.258	2.31
662.29	4.31
662.322	-3.69
662.355	-6.69
662.387	19.31
662.419	21.31
662.451	14.31
662.483	11.31
662.515	5.31
662.547	0.31
662.58	-0.69
662.612	5.31
662.644	-21.69
662.676	-2.69
662.708	1.31
662.74	5.31
662.772	2.31
662.804	13.31
662.836	-9.69
662.869	1.31
662.901	-2.69
662.933	5.31
662.965	26.31
662.997	18.31
663.029	-10.69
663.061	-9.69
663.093	-3.69
663.125	24.31
663.157	4.31
663.189	6.31
663.221	8.31
663.254	15.31
663.286	-2.69
663.318	-6.69
663.35	4.31
663.382	5.31
663.414	20.31
663.446	21.31
663.478	15.31
663.51	33.31
663.542	14.31
663.574	14.31
663.606	8.31
663.638	-22.69
663.67	-3.69
663.702	5.31
663.734	4.31
663.766	-2.69
663.798	-4.69
663.83	8.31
663.862	17.31
663.894	10.31
663.926	-18.69
663.958	7.31
663.99	12.31
664.022	1.31
664.054	15.31
664.086	-6.69
664.118	-1.69
664.15	-14.69
664.182	-2.69
664.214	2.31
664.246	18.31
664.278	8.31
664.31	25.31
664.342	12.31
664.374	8.31
664.406	-8.69
664.438	-8.69
664.47	9.31
664.502	-3.69
664.534	-0.69
664.566	2.31
664.598	1.31
664.63	-1.69
664.662	3.31
664.693	-22.69
664.725	-11.69
664.757	-5.69
664.789	-24.69
664.821	2.31
664.853	6.31
664.885	-10.69
664.917	-11.69
664.949	3.31
664.981	9.31
665.013	6.31
665.045	-16.69
665.076	1.31
665.108	4.31
665.14	10.31
665.172	-5.69
665.204	7.31
665.236	-3.69
665.268	17.31
665.3	3.31
665.331	-5.69
665.363	4.31
665.395	-9.69
665.427	-5.69
665.459	3.31
665.491	6.31
665.523	2.31
665.555	9.31
665.586	-5.69
665.618	-10.69
665.65	-17.69
665.682	0.31
665.714	-1.69
665.746	4.31
665.777	12.31
665.809	7.31
665.841	-1.69
665.873	-8.69
665.905	0.31
665.937	16.31
665.968	5.31
666	0.31
666.032	-1.69
666.064	-11.69
666.096	-10.69
666.127	-1.69
666.159	0.31
666.191	12.31
666.223	-5.69
666.255	17.31
666.286	9.31
666.318	11.31
666.35	13.31
666.382	1.31
666.413	4.31
666.445	-19.69
666.477	-10.69
666.509	10.31
666.54	22.31
666.572	-8.69
666.604	-1.69
666.636	10.31
666.667	8.31
666.699	4.31
666.731	-1.69
666.763	2.31
666.794	-2.69
666.826	3.31
666.858	-22.69
666.89	-6.69
666.921	-7.69
666.953	13.31
666.985	19.31
667.017	19.31
667.048	7.31
667.08	1.31
667.112	3.31
667.143	1.31
667.175	6.31
667.207	4.31
667.238	-3.69
667.27	4.31
667.302	2.31
667.334	-4.69
667.365	20.31
667.397	8.31
667.429	-6.69
667.46	9.31
667.492	4.31
667.524	-11.69
667.555	-13.69
667.587	-3.69
667.619	6.31
667.65	-11.69
667.682	5.31
667.714	10.31
667.745	-13.69
667.777	-15.69
667.808	12.31
667.84	9.31
667.872	10.31
667.903	10.31
667.935	-14.69
667.967	-9.69
667.998	-1.69
668.03	3.31
668.061	3.31
668.093	-0.69
668.125	13.31
668.156	4.31
668.188	-2.69
668.22	-4.69
668.251	1.31
668.283	2.31
668.314	10.31
668.346	9.31
668.377	-0.69
668.409	11.31
668.441	12.31
668.472	20.31
668.504	25.31
668.535	24.31
668.567	32.31
668.599	16.31
668.63	14.31
668.662	9.31
668.693	34.31
668.725	0.31
668.756	17.31
668.788	-7.69
668.819	2.31
668.851	0.31
668.882	-6.69
668.914	-2.69
668.946	6.31
668.977	4.31
669.009	-8.69
669.04	-3.69
669.072	-0.69
669.103	-7.69
669.135	-0.69
669.166	-2.69
669.198	-3.69
669.229	6.31
669.261	-5.69
669.292	5.31
669.324	-2.69
669.355	4.31
669.387	1.31
669.418	6.31
669.45	-14.69
669.481	11.31
669.513	10.31
669.544	10.31
669.576	-1.69
669.607	31.31
669.639	15.31
669.67	-13.69
669.701	7.31
669.733	-8.69
669.764	-6.69
669.796	-8.69
669.827	-7.69
669.859	-8.69
669.89	6.31
669.922	19.31
669.953	0.31
669.985	-5.69
670.016	12.31
670.047	0.31
670.079	4.31
670.11	-6.69
670.142	2.31
670.173	2.31
670.204	-12.69
670.236	-5.69
670.267	-22.69
670.299	-4.69
670.33	-9.69
670.362	8.31
670.393	-22.69
670.424	-1.69
670.456	-16.69
670.487	-8.69
670.518	9.31
670.55	9.31
670.581	1.31
670.613	0.31
670.644	-12.69
670.675	-12.69
670.707	-1.69
670.738	8.31
670.769	12.31
670.801	7.31
670.832	8.31
670.864	-5.69
670.895	-6.69
670.926	-6.69
670.958	2.31
670.989	7.31
671.02	-1.69
671.052	5.31
671.083	-7.69
671.114	-8.69
671.146	-0.69
671.177	-2.69
671.208	-10.69
671.24	-8.69
671.271	-2.69
671.302	5.31
671.333	-5.69
671.365	-3.69
671.396	1.31
671.427	5.31
671.459	25.31
671.49	12.31
671.521	-7.69
671.553	-12.69
671.584	10.31
671.615	1.31
671.646	9.31
671.678	-1.69
671.709	-12.69
671.74	-38.69
671.771	10.31
671.803	-5.69
671.834	11.31
671.865	-4.69
671.896	4.31
671.928	6.31
671.959	-4.69
671.99	-15.69
672.021	-18.69
672.053	-21.69
672.084	14.31
672.115	14.31
672.146	-2.69
672.178	-7.69
672.209	-3.69
672.24	5.31
672.271	28.31
672.303	-2.69
672.334	-8.69
672.365	3.31
672.396	9.31
672.427	9.31
672.459	-2.69
672.49	30.31
672.521	5.31
672.552	11.31
672.583	-2.69
672.615	1.31
672.646	11.31
672.677	-12.69
672.708	-4.69
672.739	-5.69
672.77	25.31
672.802	7.31
672.833	-6.69
672.864	0.31
672.895	5.31
672.926	-7.69
672.957	-11.69
672.989	-3.69
673.02	3.31
673.051	10.31
673.082	12.31
673.113	14.31
673.144	20.31
673.175	3.31
673.206	1.31
673.238	-8.69
673.269	-4.69
673.3	-2.69
673.331	2.31
673.362	4.31
673.393	1.31
673.424	5.31
673.455	19.31
673.487	8.31
673.518	25.31
673.549	1.31
673.58	-10.69
673.611	-11.69
673.642	3.31
673.673	-7.69
673.704	6.31
673.735	-8.69
673.766	-6.69
673.797	20.31
673.828	7.31
673.86	3.31
673.891	-4.69
673.922	-27.69
673.953	-10.69
673.984	9.31
674.015	14.31
674.046	5.31
674.077	9.31
674.108	2.31
674.139	-0.69
674.17	-5.69
674.201	-11.69
674.232	-0.69
674.263	-10.69
674.294	8.31
674.325	-5.69
674.356	8.31
674.387	12.31
674.418	13.31
674.449	5.31
674.48	-6.69
674.511	1.31
674.542	9.31
674.573	7.31
674.604	20.31
674.635	-3.69
674.666	2.31
674.697	6.31
674.728	-12.69
674.759	-2.69
674.79	-14.69
674.821	-7.69
674.852	-3.69
674.883	-1.69
674.914	7.31
674.945	4.31
674.976	5.31
675.007	-21.69
675.038	-8.69
675.069	-7.69
675.1	0.31
675.131	-12.69
675.162	-15.69
675.193	-0.69
675.224	-8.69
675.254	8.31
675.285	3.31
675.316	11.31
675.347	-0.69
675.378	8.31
675.409	-8.69
675.44	8.31
675.471	5.31
675.502	-11.69
675.533	3.31
675.564	1.31
675.595	7.31
675.625	24.31
675.656	5.31
675.687	3.31
675.718	5.31
675.749	9.31
675.78	18.31
675.811	7.31
675.842	7.31
675.873	5.31
675.903	2.31
675.934	6.31
675.965	-9.69
675.996	-0.69
676.027	9.31
676.058	-6.69
676.089	-8.69
676.119	2.31
676.15	-4.69
676.181	0.31
676.212	6.31
676.243	-0.69
676.274	-10.69
676.304	1.31
676.335	-11.69
676.366	5.31
676.397	9.31
676.428	-3.69
676.459	6.31
676.489	5.31
676.52	4.31
676.551	17.31
676.582	3.31
676.613	7.31
676.643	-4.69
676.674	-2.69
676.705	8.31
676.736	11.31
676.767	6.31
676.797	2.31
676.828	14.31
676.859	-13.69
676.89	-6.69
676.92	-13.69
676.951	0.31
676.982	4.31
677.013	6.31
677.044	14.31
677.074	1.31
677.105	-12.69
677.136	4.31
677.167	0.31
677.197	15.31
677.228	-3.69
677.259	-4.69
677.289	3.31
677.32	-15.69
677.351	3.31
677.382	-9.69
677.412	-4.69
677.443	6.31
677.474	-14.69
677.505	4.31
677.535	23.31
677.566	5.31
677.597	4.31
677.627	-9.69
677.658	8.31
677.689	7.31
677.72	12.31
677.75	-1.69
677.781	21.31
677.812	8.31
677.842	7.31
677.873	-4.69
677.904	-5.69
677.934	2.31
677.965	0.31
677.996	-13.69
678.026	11.31
678.057	5.31
678.088	-3.69
678.118	2.31
678.149	0.31
678.18	7.31
678.21	-2.69
678.241	-10.69
678.272	9.31
678.302	0.31
678.333	17.31
678.363	9.31
678.394	15.31
678.425	5.31
678.455	7.31
678.486	16.31
678.517	-7.69
678.547	-5.69
678.578	2.31
678.608	-18.69
678.639	-9.69
678.67	-10.69
678.7	-18.69
678.731	7.31
678.761	5.31
678.792	12.31
678.823	12.31
678.853	8.31
678.884	-4.69
678.914	0.31
678.945	13.31
678.975	-12.69
679.006	-7.69
679.037	-3.69
679.067	15.31
679.098	5.31
679.128	-4.69
679.159	-11.69
679.189	6.31
679.22	-0.69
679.25	13.31
679.281	-2.69
679.312	3.31
679.342	9.31
679.373	5.31
679.403	-0.69
679.434	-0.69
679.464	7.31
679.495	6.31
679.525	-1.69
679.556	-10.69
679.586	13.31
679.617	11.31
679.647	11.31
679.678	12.31
679.708	-3.69
679.739	0.31
679.769	3.31
679.8	-2.69
679.83	7.31
679.861	-9.69
679.891	2.31
679.922	-4.69
679.952	3.31
679.983	13.31
680.013	-0.69
680.044	-24.69
680.074	19.31
680.105	24.31
680.135	8.31
680.165	4.31
680.196	13.31
680.226	0.31
680.257	8.31
680.287	6.31
680.318	13.31
680.348	-19.69
680.379	12.31
680.409	3.31
680.439	4.31
680.47	-19.69
680.5	-12.69
680.531	-3.69
680.561	15.31
680.592	-3.69
680.622	15.31
680.652	-18.69
680.683	13.31
680.713	1.31
680.744	-12.69
680.774	-4.69
680.804	5.31
680.835	-0.69
680.865	-19.69
680.896	3.31
680.926	11.31
680.956	3.31
680.987	0.31
681.017	-8.69
681.047	9.31
681.078	-4.69
681.108	3.31
681.139	3.31
681.169	2.31
681.199	4.31
681.23	3.31
681.26	1.31
681.29	16.31
681.321	-9.69
681.351	-2.69
681.381	-4.69
681.412	10.31
681.442	-5.69
681.472	15.31
681.503	23.31
681.533	12.31
681.563	-8.69
681.594	-9.69
681.624	-9.69
681.654	13.31
681.685	-2.69
681.715	-15.69
681.745	-18.69
681.775	-21.69
681.806	4.31
681.836	4.31
681.866	-11.69
681.897	2.31
681.927	10.31
681.957	-15.69
681.987	-4.69
682.018	8.31
682.048	6.31
682.078	11.31
682.109	19.31
682.139	6.31
682.169	0.31
682.199	-4.69
682.23	-13.69
682.26	2.31
682.29	6.31
682.32	12.31
682.351	-2.69
682.381	2.31
682.411	6.31
682.441	0.31
682.472	-5.69
682.502	-1.69
682.532	-14.69
682.562	2.31
682.592	3.31
682.623	6.31
682.653	8.31
682.683	-2.69
682.713	14.31
682.743	8.31
682.774	8.31
682.804	-7.69
682.834	16.31
682.864	2.31
682.894	-4.69
682.925	-10.69
682.955	-13.69
682.985	-6.69
683.015	7.31
683.045	12.31
683.076	-9.69
683.106	-6.69
683.136	0.31
683.166	3.31
683.196	6.31
683.226	6.31
683.257	-9.69
683.287	2.31
683.317	-7.69
683.347	-13.69
683.377	-5.69
683.407	0.31
683.437	9.31
683.468	17.31
683.498	1.31
683.528	1.31
683.558	12.31
683.588	1.31
683.618	-5.69
683.648	-9.69
683.678	-2.69
683.708	-3.69
683.739	17.31
683.769	-1.69
683.799	-3.69
683.829	5.31
683.859	12.31
683.889	14.31
683.919	-3.69
683.949	13.31
683.979	4.31
684.009	3.31
684.039	7.31
684.07	1.31
684.1	21.31
684.13	2.31
684.16	8.31
684.19	0.31
684.22	18.31
684.25	3.31
684.28	-13.69
684.31	17.31
684.34	22.31
684.37	9.31
684.4	-10.69
684.43	0.31
684.46	9.31
684.49	14.31
684.52	7.31
684.55	18.31
684.58	-1.69
684.61	-2.69
684.64	9.31
684.67	14.31
684.7	-2.69
684.73	16.31
684.76	3.31
684.79	22.31
684.82	4.31
684.85	-7.69
684.88	7.31
684.91	-7.69
684.94	3.31
684.97	-4.69
685	3.31
685.03	-1.69
685.06	-5.69
685.09	13.31
685.12	10.31
685.15	1.31
685.18	4.31
685.21	3.31
685.24	17.31
685.27	24.31
685.3	-0.69
685.33	-1.69
685.36	-7.69
685.39	-3.69
685.42	2.31
685.45	8.31
685.48	4.31
685.51	-7.69
685.54	18.31
685.569	14.31
685.599	12.31
685.629	17.31
685.659	-2.69
685.689	-6.69
685.719	6.31
685.749	4.31
685.779	10.31
685.809	9.31
685.839	14.31
685.869	4.31
685.898	27.31
685.928	9.31
685.958	2.31
685.988	8.31
686.018	-5.69
686.048	-5.69
686.078	14.31
686.108	20.31
686.137	2.31
686.167	13.31
686.197	0.31
686.227	8.31
686.257	20.31
686.287	28.31
686.317	9.31
686.346	-2.69
686.376	7.31
686.406	4.31
686.436	2.31
686.466	-6.69
686.496	13.31
686.525	7.31
686.555	22.31
686.585	16.31
686.615	25.31
686.645	11.31
686.675	8.31
686.704	7.31
686.734	14.31
686.764	9.31
686.794	10.31
686.824	4.31
686.853	0.31
686.883	1.31
686.913	22.31
686.943	15.31
686.973	8.31
687.002	5.31
687.032	6.31
687.062	-0.69
687.092	24.31
687.121	13.31
687.151	4.31
687.181	-1.69
687.211	9.31
687.24	4.31
687.27	6.31
687.3	-2.69
687.33	-2.69
687.359	-20.69
687.389	-0.69
687.419	-6.69
687.449	11.31
687.478	15.31
687.508	-4.69
687.538	2.31
687.568	15.31
687.597	-3.69
687.627	17.31
687.657	-1.69
687.686	8.31
687.716	20.31
687.746	-10.69
687.776	-15.69
687.805	21.31
687.835	10.31
687.865	5.31
687.894	17.31
687.924	-5.69
687.954	13.31
687.983	8.31
688.013	11.31
688.043	9.31
688.072	-6.69
688.102	6.31
688.132	0.31
688.161	-8.69
688.191	3.31
688.221	18.31
688.25	-11.69
688.28	24.31
688.31	2.31
688.339	3.31
688.369	-2.69
688.399	-3.69
688.428	-12.69
688.458	0.31
688.488	1.31
688.517	18.31
688.547	13.31
688.576	30.31
688.606	19.31
688.636	-1.69
688.665	-2.69
688.695	0.31
688.725	2.31
688.754	12.31
688.784	1.31
688.813	19.31
688.843	-2.69
688.873	11.31
688.902	1.31
688.932	5.31
688.961	11.31
688.991	19.31
689.02	3.31
689.05	-5.69
689.08	18.31
689.109	12.31
689.139	-0.69
689.168	20.31
689.198	-3.69
689.227	-2.69
689.257	1.31
689.287	15.31
689.316	21.31
689.346	-0.69
689.375	-18.69
689.405	-16.69
689.434	15.31
689.464	12.31
689.493	-5.69
689.523	-14.69
689.552	4.31
689.582	7.31
689.611	3.31
689.641	3.31
689.67	-6.69
689.7	1.31
689.73	23.31
689.759	13.31
689.789	20.31
689.818	-17.69
689.848	3.31
689.877	19.31
689.906	-8.69
689.936	2.31
689.965	5.31
689.995	-3.69
690.024	5.31
690.054	7.31
690.083	14.31
690.113	-0.69
690.142	2.31
690.172	6.31
690.201	-1.69
690.231	19.31
690.26	-1.69
690.29	19.31
690.319	13.31
690.348	4.31
690.378	5.31
690.407	12.31
690.437	-1.69
690.466	4.31
690.496	4.31
690.525	-2.69
690.555	-7.69
690.584	-7.69
690.613	6.31
690.643	0.31
690.672	1.31
690.702	20.31
690.731	13.31
690.76	15.31
690.79	8.31
690.819	-3.69
690.849	-8.69
690.878	17.31
690.907	2.31
690.937	13.31
690.966	-3.69
690.996	-0.69
691.025	6.31
691.054	-3.69
691.084	3.31
691.113	6.31
691.142	11.31
691.172	7.31
691.201	6.31
691.23	14.31
691.26	12.31
691.289	16.31
691.319	-7.69
691.348	0.31
691.377	4.31
691.407	9.31
691.436	14.31
691.465	-9.69
691.495	4.31
691.524	-1.69
691.553	-15.69
691.583	1.31
691.612	20.31
691.641	6.31
691.67	15.31
691.7	14.31
691.729	2.31
691.758	3.31
691.788	6.31
691.817	0.31
691.846	-6.69
691.876	7.31
691.905	10.31
691.934	-2.69
691.963	13.31
691.993	6.31
692.022	-3.69
692.051	-3.69
692.081	20.31
692.11	10.31
692.139	2.31
692.168	12.31
692.198	13.31
692.227	19.31
692.256	17.31
692.285	12.31
692.315	11.31
692.344	24.31
692.373	9.31
692.402	-22.69
692.432	-7.69
692.461	3.31
692.49	12.31
692.519	4.31
692.548	-3.69
692.578	16.31
692.607	12.31
692.636	-1.69
692.665	26.31
692.694	10.31
692.724	6.31
692.753	11.31
692.782	17.31
692.811	-7.69
692.84	0.31
692.87	1.31
692.899	3.31
692.928	8.31
692.957	9.31
692.986	5.31
693.016	11.31
693.045	8.31
693.074	-0.69
693.103	-1.69
693.132	4.31
693.161	6.31
693.191	-0.69
693.22	-0.69
693.249	0.31
693.278	-0.69
693.307	2.31
693.336	-11.69
693.365	-0.69
693.395	13.31
693.424	5.31
693.453	11.31
693.482	6.31
693.511	9.31
693.54	9.31
693.569	21.31
693.598	14.31
693.628	15.31
693.657	6.31
693.686	22.31
693.715	20.31
693.744	-5.69
693.773	14.31
693.802	14.31
693.831	-1.69
693.86	11.31
693.889	3.31
693.919	3.31
693.948	-5.69
693.977	10.31
694.006	2.31
694.035	-9.69
694.064	-2.69
694.093	-1.69
694.122	-3.69
694.151	5.31
694.18	15.31
694.209	29.31
694.238	2.31
694.267	28.31
694.296	7.31
694.325	4.31
694.354	12.31
694.383	14.31
694.412	5.31
694.441	-9.69
694.471	-0.69
694.5	-1.69
694.529	8.31
694.558	19.31
694.587	12.31
694.616	-3.69
694.645	1.31
694.674	10.31
694.703	5.31
694.732	-2.69
694.761	16.31
694.79	20.31
694.819	4.31
694.848	6.31
694.877	7.31
694.906	19.31
694.935	18.31
694.963	26.31
694.992	2.31
695.021	6.31
695.05	16.31
695.079	1.31
695.108	-9.69
695.137	21.31
695.166	0.31
695.195	-3.69
695.224	7.31
695.253	6.31
695.282	4.31
695.311	0.31
695.34	-5.69
695.369	9.31
695.398	-6.69
695.427	13.31
695.456	7.31
695.485	14.31
695.513	8.31
695.542	4.31
695.571	-7.69
695.6	2.31
695.629	10.31
695.658	9.31
695.687	-1.69
695.716	5.31
695.745	16.31
695.774	-0.69
695.802	-4.69
695.831	-1.69
695.86	8.31
695.889	10.31
695.918	2.31
695.947	3.31
695.976	4.31
696.005	16.31
696.033	5.31
696.062	18.31
696.091	0.31
696.12	0.31
696.149	20.31
696.178	-3.69
696.207	-6.69
696.235	-12.69
696.264	16.31
696.293	13.31
696.322	5.31
696.351	25.31
696.38	14.31
696.408	16.31
696.437	0.31
696.466	12.31
696.495	9.31
696.524	4.31
696.553	-1.69
696.581	11.31
696.61	4.31
696.639	-2.69
696.668	-4.69
696.697	-1.69
696.725	-0.69
696.754	5.31
696.783	5.31
696.812	-11.69
696.84	-1.69
696.869	2.31
696.898	3.31
696.927	-3.69
696.956	8.31
696.984	7.31
697.013	9.31
697.042	10.31
697.071	8.31
697.099	4.31
697.128	8.31
697.157	7.31
697.186	-12.69
697.214	-4.69
697.243	-6.69
697.272	4.31
697.301	6.31
697.329	17.31
697.358	15.31
697.387	13.31
697.415	10.31
697.444	2.31
697.473	1.31
697.502	-7.69
697.53	-1.69
697.559	6.31
697.588	5.31
697.616	4.31
697.645	6.31
697.674	2.31
697.703	4.31
697.731	29.31
697.76	24.31
697.789	8.31
697.817	3.31
697.846	11.31
697.875	1.31
697.903	24.31
697.932	16.31
697.961	9.31
697.989	13.31
698.018	-1.69
698.047	3.31
698.075	14.31
698.104	-8.69
698.133	-5.69
698.161	-17.69
698.19	14.31
698.218	1.31
698.247	5.31
698.276	-14.69
698.304	8.31
698.333	23.31
698.362	17.31
698.39	3.31
698.419	14.31
698.447	-5.69
698.476	4.31
698.505	16.31
698.533	17.31
698.562	10.31
698.591	-14.69
698.619	-11.69
698.648	-6.69
698.676	4.31
698.705	3.31
698.733	-10.69
698.762	13.31
698.791	4.31
698.819	13.31
698.848	10.31
698.876	23.31
698.905	14.31
698.933	24.31
698.962	3.31
698.991	2.31
699.019	22.31
699.048	8.31
699.076	18.31
699.105	-7.69
699.133	0.31
699.162	6.31
699.19	7.31
699.219	-10.69
699.248	-14.69
699.276	4.31
699.305	-2.69
699.333	9.31
699.362	-10.69
699.39	2.31
699.419	8.31
699.447	3.31
699.476	6.31
699.504	5.31
699.533	6.31
699.561	-0.69
699.59	-4.69
699.618	6.31
699.647	10.31
699.675	1.31
699.704	19.31
699.732	13.31
699.761	11.31
699.789	4.31
699.818	2.31
699.846	-11.69
699.874	-7.69
699.903	-1.69
699.931	-8.69
699.96	14.31
699.988	12.31
700.017	0.31
700.045	12.31
700.074	-1.69
700.102	11.31
700.13	2.31
700.159	8.31
700.187	-1.69
700.216	-2.69
700.244	1.31
700.273	12.31
700.301	10.31
700.329	13.31
700.358	20.31
700.386	-0.69
700.415	0.31
700.443	10.31
700.472	3.31
700.5	10.31
700.528	10.31
700.557	4.31
700.585	14.31
700.614	4.31
700.642	-3.69
700.67	29.31
700.699	4.31
700.727	11.31
700.755	5.31
700.784	12.31
700.812	-18.69
700.841	16.31
700.869	4.31
700.897	-10.69
700.926	16.31
700.954	10.31
700.982	-5.69
701.011	-16.69
701.039	1.31
701.067	2.31
701.096	5.31
701.124	-5.69
701.152	2.31
701.181	16.31
701.209	-3.69
701.237	0.31
701.266	-1.69
701.294	-2.69
701.322	7.31
701.351	8.31
701.379	24.31
701.407	3.31
701.435	5.31
701.464	24.31
701.492	14.31
701.52	2.31
701.549	11.31
701.577	-13.69
701.605	11.31
701.634	1.31
701.662	7.31
701.69	-8.69
701.718	2.31
701.747	23.31
701.775	-1.69
701.803	-2.69
701.831	17.31
701.86	-8.69
701.888	13.31
701.916	-4.69
701.944	5.31
701.973	1.31
702.001	-5.69
702.029	-10.69
702.057	-8.69
702.086	0.31
702.114	-4.69
702.142	4.31
702.17	-4.69
702.199	-1.69
702.227	1.31
702.255	8.31
702.283	-4.69
702.311	5.31
702.34	-7.69
702.368	7.31
702.396	-1.69
702.424	-8.69
702.452	11.31
702.481	-4.69
702.509	0.31
702.537	-1.69
702.565	0.31
702.593	-10.69
702.621	9.31
702.65	12.31
702.678	14.31
702.706	10.31
702.734	0.31
702.762	4.31
702.79	1.31
702.819	9.31
702.847	16.31
702.875	25.31
702.903	3.31
702.931	-6.69
702.959	-10.69
702.988	2.31
703.016	-2.69
703.044	4.31
703.072	-4.69
703.1	-5.69
703.128	9.31
703.156	9.31
703.184	8.31
703.212	18.31
703.241	3.31
703.269	-6.69
703.297	-6.69
703.325	11.31
703.353	-0.69
703.381	3.31
703.409	0.31
703.437	-12.69
703.465	1.31
703.493	5.31
703.522	0.31
703.55	11.31
703.578	15.31
703.606	-13.69
703.634	0.31
703.662	-3.69
703.69	-2.69
703.718	4.31
703.746	8.31
703.774	-0.69
703.802	4.31
703.83	8.31
703.858	8.31
703.886	-4.69
703.914	2.31
703.942	-4.69
703.97	-6.69
703.998	1.31
704.027	12.31
704.055	4.31
704.083	-6.69
704.111	-3.69
704.139	1.31
704.167	2.31
704.195	-3.69
704.223	-15.69
704.251	-14.69
704.279	9.31
704.307	-7.69
704.335	-16.69
704.363	11.31
704.391	6.31
704.419	2.31
704.447	-8.69
704.475	-9.69
704.503	-4.69
704.531	23.31
704.558	6.31
704.586	18.31
704.614	8.31
704.642	1.31
704.67	-1.69
704.698	-4.69
704.726	-6.69
704.754	9.31
704.782	-4.69
704.81	1.31
704.838	21.31
704.866	-0.69
704.894	-3.69
704.922	-3.69
704.95	4.31
704.978	7.31
705.006	6.31
705.034	20.31
705.061	0.31
705.089	7.31
705.117	-11.69
705.145	-0.69
705.173	-2.69
705.201	-2.69
705.229	18.31
705.257	14.31
705.285	-1.69
705.313	3.31
705.34	-6.69
705.368	-15.69
705.396	-2.69
705.424	18.31
705.452	-1.69
705.48	5.31
705.508	-3.69
705.536	-3.69
705.563	6.31
705.591	16.31
705.619	22.31
705.647	-8.69
705.675	10.31
705.703	5.31
705.731	-4.69
705.758	5.31
705.786	12.31
705.814	15.31
705.842	4.31
705.87	25.31
705.898	3.31
705.925	2.31
705.953	17.31
705.981	-3.69
706.009	-11.69
706.037	-0.69
706.065	6.31
706.092	5.31
706.12	8.31
706.148	-6.69
706.176	-3.69
706.204	19.31
706.231	1.31
706.259	-1.69
706.287	-10.69
706.315	2.31
706.342	-6.69
706.37	5.31
706.398	-7.69
706.426	0.31
706.454	2.31
706.481	-2.69
706.509	3.31
706.537	-3.69
706.565	9.31
706.592	9.31
706.62	0.31
706.648	4.31
706.676	-9.69
706.703	-0.69
706.731	-8.69
706.759	-5.69
706.787	-6.69
706.814	-4.69
706.842	-1.69
706.87	-8.69
706.897	2.31
706.925	7.31
706.953	10.31
706.981	9.31
707.008	6.31
707.036	3.31
707.064	-4.69
707.091	-16.69
707.119	17.31
707.147	-9.69
707.174	-6.69
707.202	16.31
707.23	1.31
707.258	12.31
707.285	0.31
707.313	-14.69
707.341	-0.69
707.368	0.31
707.396	20.31
707.424	8.31
707.451	3.31
707.479	7.31
707.507	1.31
707.534	-2.69
707.562	11.31
707.59	-9.69
707.617	-13.69
707.645	-0.69
707.672	3.31
707.7	8.31
707.728	8.31
707.755	5.31
707.783	7.31
707.811	-0.69
707.838	5.31
707.866	-1.69
707.893	-2.69
707.921	0.31
707.949	-9.69
707.976	10.31
708.004	17.31
708.031	-2.69
708.059	-6.69
708.087	3.31
708.114	9.31
708.142	3.31
708.169	-8.69
708.197	-2.69
708.225	-1.69
708.252	-15.69
708.28	4.31
708.307	-2.69
708.335	1.31
708.362	-6.69
708.39	-3.69
708.418	2.31
708.445	-12.69
708.473	0.31
708.5	-9.69
708.528	0.31
708.555	-2.69
708.583	-6.69
708.61	7.31
708.638	14.31
708.665	-7.69
708.693	10.31
708.72	-1.69
708.748	-15.69
708.776	-1.69
708.803	22.31
708.831	11.31
708.858	7.31
708.886	12.31
708.913	12.31
708.941	-12.69
708.968	1.31
708.996	-8.69
709.023	4.31
709.051	-2.69
709.078	10.31
709.105	11.31
709.133	0.31
709.16	-6.69
709.188	12.31
709.215	12.31
709.243	12.31
709.27	0.31
709.298	0.31
709.325	-8.69
709.353	7.31
709.38	-9.69
709.408	11.31
709.435	3.31
709.462	-2.69
709.49	21.31
709.517	9.31
709.545	11.31
709.572	-0.69
709.6	2.31
709.627	-0.69
709.655	-3.69
709.682	-5.69
709.709	14.31
709.737	-6.69
709.764	-19.69
709.792	-2.69
709.819	-12.69
709.846	-9.69
709.874	8.31
709.901	19.31
709.929	21.31
709.956	4.31
709.983	2.31
710.011	9.31
710.038	2.31
710.066	-0.69
710.093	10.31
710.12	4.31
710.148	0.31
710.175	-13.69
710.202	-10.69
710.23	8.31
710.257	8.31
710.284	0.31
710.312	-12.69
710.339	-4.69
710.366	-1.69
710.394	0.31
710.421	7.31
710.448	-1.69
710.476	-0.69
710.503	-4.69
710.53	30.31
710.558	21.31
710.585	19.31
710.612	4.31
710.64	2.31
710.667	-4.69
710.694	-9.69
710.722	-21.69
710.749	-13.69
710.776	-1.69
710.804	19.31
710.831	23.31
710.858	3.31
710.885	0.31
710.913	6.31
710.94	13.31
710.967	-4.69
710.995	10.31
711.022	-1.69
711.049	4.31
711.076	-7.69
711.104	4.31
711.131	-13.69
711.158	5.31
711.185	1.31
711.213	-9.69
711.24	-18.69
711.267	-8.69
711.294	-5.69
711.322	5.31
711.349	-8.69
711.376	-4.69
711.403	-2.69
711.431	-0.69
711.458	-6.69
711.485	-9.69
711.512	-8.69
711.54	13.31
711.567	10.31
711.594	1.31
711.621	-12.69
711.648	-5.69
711.676	23.31
711.703	8.31
711.73	-7.69
711.757	5.31
711.784	-7.69
711.812	-7.69
711.839	-1.69
711.866	-2.69
711.893	-7.69
711.92	3.31
711.947	3.31
711.975	22.31
712.002	2.31
712.029	1.31
712.056	-1.69
712.083	-3.69
712.11	-12.69
712.138	12.31
712.165	12.31
712.192	7.31
712.219	0.31
712.246	-3.69
712.273	-10.69
712.3	-21.69
712.328	-0.69
712.355	1.31
712.382	3.31
712.409	11.31
712.436	-9.69
712.463	12.31
712.49	6.31
712.517	4.31
712.544	3.31
712.572	1.31
712.599	-4.69
712.626	10.31
712.653	-10.69
712.68	-7.69
712.707	4.31
712.734	-0.69
712.761	-15.69
712.788	9.31
712.815	-1.69
712.842	14.31
712.87	4.31
712.897	-13.69
712.924	-5.69
712.951	0.31
712.978	19.31
713.005	28.31
713.032	21.31
713.059	-2.69
713.086	-5.69
713.113	-10.69
713.14	-4.69
713.167	5.31
713.194	17.31
713.221	-4.69
713.248	5.31
713.275	9.31
713.302	-15.69
713.329	4.31
713.356	0.31
713.383	0.31
713.41	8.31
713.437	-11.69
713.464	-22.69
713.491	22.31
713.518	18.31
713.545	-4.69
713.572	-5.69
713.599	7.31
713.626	12.31
713.653	16.31
713.68	-2.69
713.707	-1.69
713.734	4.31
713.761	0.31
713.788	1.31
713.815	21.31
713.842	-0.69
713.869	-1.69
713.896	0.31
713.923	-4.69
713.95	-2.69
713.977	-20.69
714.004	-2.69
714.031	-5.69
714.058	-2.69
714.085	1.31
714.112	10.31
714.139	1.31
714.165	-1.69
714.192	-4.69
714.219	5.31
714.246	9.31
714.273	7.31
714.3	2.31
714.327	1.31
714.354	-10.69
714.381	-1.69
714.408	6.31
714.435	-1.69
714.461	-1.69
714.488	12.31
714.515	-11.69
714.542	-17.69
714.569	-11.69
714.596	-4.69
714.623	-6.69
714.65	0.31
714.677	-8.69
714.703	-1.69
714.73	0.31
714.757	6.31
714.784	5.31
714.811	0.31
714.838	-3.69
714.865	-18.69
714.891	13.31
714.918	4.31
714.945	-15.69
714.972	-13.69
714.999	11.31
715.026	-2.69
715.052	24.31
715.079	-1.69
715.106	4.31
715.133	2.31
715.16	-2.69
715.187	0.31
715.213	6.31
715.24	3.31
715.267	-6.69
715.294	0.31
715.321	-0.69
715.347	-3.69
715.374	-11.69
715.401	-2.69
715.428	-5.69
715.455	-6.69
715.481	-6.69
715.508	8.31
715.535	-3.69
715.562	12.31
715.588	9.31
715.615	18.31
715.642	1.31
715.669	5.31
715.695	-5.69
715.722	1.31
715.749	0.31
715.776	16.31
715.802	6.31
715.829	-1.69
715.856	-8.69
715.883	7.31
715.909	-6.69
715.936	1.31
715.963	6.31
715.99	8.31
716.016	13.31
716.043	-3.69
716.07	-4.69
716.096	4.31
716.123	5.31
716.15	-3.69
716.177	-1.69
716.203	6.31
716.23	6.31
716.257	7.31
716.283	11.31
716.31	1.31
716.337	-3.69
716.363	3.31
716.39	0.31
716.417	12.31
716.443	14.31
716.47	20.31
716.497	17.31
716.523	9.31
716.55	5.31
716.577	-6.69
716.603	-0.69
716.63	15.31
716.657	19.31
716.683	2.31
716.71	6.31
716.737	-2.69
716.763	6.31
716.79	17.31
716.817	17.31
716.843	6.31
716.87	12.31
716.897	-11.69
716.923	17.31
716.95	-3.69
716.976	-9.69
717.003	-19.69
717.03	10.31
717.056	12.31
717.083	0.31
717.109	8.31
717.136	9.31
717.163	-3.69
717.189	1.31
717.216	10.31
717.242	0.31
717.269	-5.69
717.296	16.31
717.322	15.31
717.349	3.31
717.375	-1.69
717.402	5.31
717.428	10.31
717.455	11.31
717.481	5.31
717.508	8.31
717.535	-10.69
717.561	-5.69
717.588	-11.69
717.614	0.31
717.641	13.31
717.667	13.31
717.694	5.31
717.72	-5.69
717.747	14.31
717.773	-10.69
717.8	7.31
717.826	29.31
717.853	15.31
717.88	18.31
717.906	9.31
717.933	13.31
717.959	11.31
717.986	-2.69
718.012	0.31
718.039	15.31
718.065	13.31
718.092	16.31
718.118	-1.69
718.144	4.31
718.171	10.31
718.197	9.31
718.224	-6.69
718.25	-8.69
718.277	3.31
718.303	11.31
718.33	-8.69
718.356	-0.69
718.383	-2.69
718.409	0.31
718.436	-3.69
718.462	-17.69
718.489	-11.69
718.515	11.31
718.541	4.31
718.568	5.31
718.594	12.31
718.621	19.31
718.647	3.31
718.674	3.31
718.7	8.31
718.726	1.31
718.753	-1.69
718.779	15.31
718.806	8.31
718.832	-2.69
718.858	-7.69
718.885	-4.69
718.911	8.31
718.938	10.31
718.964	-1.69
718.99	4.31
719.017	1.31
719.043	8.31
719.07	18.31
719.096	-9.69
719.122	32.31
719.149	24.31
719.175	9.31
719.201	-1.69
719.228	12.31
719.254	1.31
719.281	-7.69
719.307	-3.69
719.333	-6.69
719.36	5.31
719.386	-5.69
719.412	11.31
719.439	-13.69
719.465	-13.69
719.491	-10.69
719.518	18.31
719.544	8.31
719.57	4.31
719.597	-0.69
719.623	-1.69
719.649	-6.69
719.675	4.31
719.702	8.31
719.728	11.31
719.754	-2.69
719.781	10.31
719.807	0.31
719.833	-2.69
719.86	-3.69
719.886	12.31
719.912	9.31
719.938	9.31
719.965	14.31
719.991	7.31
720.017	13.31
720.044	5.31
720.07	4.31
720.096	8.31
720.122	-9.69
720.149	0.31
720.175	21.31
720.201	-2.69
720.227	-5.69
720.254	9.31
720.28	0.31
720.306	-9.69
720.332	8.31
720.359	5.31
720.385	11.31
720.411	11.31
720.437	16.31
720.463	4.31
720.49	19.31
720.516	-8.69
720.542	-5.69
720.568	14.31
720.595	5.31
720.621	-7.69
720.647	4.31
720.673	7.31
720.699	5.31
720.725	0.31
720.752	3.31
720.778	9.31
720.804	21.31
720.83	10.31
720.856	9.31
720.883	-6.69
720.909	1.31
720.935	-3.69
720.961	21.31
720.987	5.31
721.013	25.31
721.04	3.31
721.066	3.31
721.092	-3.69
721.118	10.31
721.144	-12.69
721.17	-5.69
721.196	0.31
721.223	-9.69
721.249	-4.69
721.275	21.31
721.301	13.31
721.327	22.31
721.353	-3.69
721.379	1.31
721.405	11.31
721.432	24.31
721.458	9.31
721.484	23.31
721.51	-4.69
721.536	9.31
721.562	2.31
721.588	10.31
721.614	2.31
721.64	16.31
721.666	-4.69
721.693	0.31
721.719	-1.69
721.745	0.31
721.771	6.31
721.797	9.31
721.823	-1.69
721.849	8.31
721.875	10.31
721.901	6.31
721.927	13.31
721.953	1.31
721.979	28.31
722.005	14.31
722.031	2.31
722.057	6.31
722.083	-0.69
722.109	-1.69
722.135	23.31
722.161	11.31
722.187	5.31
722.214	0.31
722.24	2.31
722.266	4.31
722.292	16.31
722.318	24.31
722.344	-5.69
722.37	-6.69
722.396	11.31
722.422	6.31
722.448	2.31
722.474	-1.69
722.5	12.31
722.526	-3.69
722.552	4.31
722.578	-2.69
722.603	4.31
722.629	3.31
722.655	1.31
722.681	-4.69
722.707	-0.69
722.733	0.31
722.759	-22.69
722.785	-3.69
722.811	2.31
722.837	-0.69
722.863	5.31
722.889	0.31
722.915	-3.69
722.941	0.31
722.967	10.31
722.993	13.31
723.019	1.31
723.045	4.31
723.071	10.31
723.097	20.31
723.122	8.31
723.148	-11.69
723.174	3.31
723.2	10.31
723.226	0.31
723.252	9.31
723.278	-8.69
723.304	8.31
723.33	6.31
723.356	-1.69
723.381	-3.69
723.407	-2.69
723.433	-2.69
723.459	-1.69
723.485	9.31
723.511	0.31
723.537	4.31
723.563	12.31
723.588	-0.69
723.614	14.31
723.64	0.31
723.666	-7.69
723.692	14.31
723.718	12.31
723.744	1.31
723.769	5.31
723.795	0.31
723.821	12.31
723.847	-1.69
723.873	0.31
723.899	-1.69
723.924	0.31
723.95	4.31
723.976	-12.69
724.002	16.31
724.028	8.31
724.053	-3.69
724.079	-2.69
724.105	-1.69
724.131	-2.69
724.157	-7.69
724.182	5.31
724.208	-6.69
724.234	8.31
724.26	-15.69
724.286	10.31
724.311	8.31
724.337	-10.69
724.363	-9.69
724.389	5.31
724.415	9.31
724.44	24.31
724.466	-5.69
724.492	1.31
724.518	2.31
724.543	1.31
724.569	16.31
724.595	5.31
724.621	0.31
724.646	-0.69
724.672	-4.69
724.698	-1.69
724.723	-2.69
724.749	4.31
724.775	19.31
724.801	0.31
724.826	-2.69
724.852	0.31
724.878	-0.69
724.904	-0.69
724.929	19.31
724.955	-1.69
724.981	2.31
725.006	-3.69
725.032	-0.69
725.058	12.31
725.083	-4.69
725.109	0.31
725.135	4.31
725.161	10.31
725.186	2.31
725.212	8.31
725.238	6.31
725.263	11.31
725.289	3.31
725.315	-11.69
725.34	-14.69
725.366	2.31
725.392	-10.69
725.417	-4.69
725.443	-5.69
725.468	0.31
725.494	19.31
725.52	26.31
725.545	19.31
725.571	4.31
725.597	5.31
725.622	3.31
725.648	1.31
725.674	15.31
725.699	14.31
725.725	10.31
725.75	31.31
725.776	-2.69
725.802	7.31
725.827	15.31
725.853	1.31
725.878	5.31
725.904	5.31
725.93	19.31
725.955	-15.69
725.981	1.31
726.006	-11.69
726.032	16.31
726.057	4.31
726.083	-3.69
726.109	4.31
726.134	5.31
726.16	2.31
726.185	-3.69
726.211	0.31
726.236	8.31
726.262	1.31
726.288	10.31
726.313	2.31
726.339	13.31
726.364	1.31
726.39	10.31
726.415	-2.69
726.441	0.31
726.466	-14.69
726.492	-2.69
726.517	-0.69
726.543	10.31
726.568	0.31
726.594	-13.69
726.619	8.31
726.645	2.31
726.67	7.31
726.696	5.31
726.721	-15.69
726.747	-7.69
726.772	9.31
726.798	5.31
726.823	14.31
726.849	7.31
726.874	13.31
726.9	29.31
726.925	9.31
726.951	0.31
726.976	5.31
727.002	-10.69
727.027	0.31
727.053	4.31
727.078	-3.69
727.104	17.31
727.129	-10.69
727.155	-3.69
727.18	2.31
727.205	14.31
727.231	-4.69
727.256	-2.69
727.282	9.31
727.307	19.31
727.333	-0.69
727.358	-6.69
727.383	-11.69
727.409	-6.69
727.434	8.31
727.46	0.31
727.485	-10.69
727.511	6.31
727.536	-5.69
727.561	-2.69
727.587	2.31
727.612	-1.69
727.637	-10.69
727.663	-3.69
727.688	8.31
727.714	-3.69
727.739	-3.69
727.764	-10.69
727.79	5.31
727.815	6.31
727.841	0.31
727.866	2.31
727.891	14.31
727.917	-3.69
727.942	4.31
727.967	0.31
727.993	-13.69
728.018	-22.69
728.043	0.31
728.069	17.31
728.094	17.31
728.119	3.31
728.145	18.31
728.17	13.31
728.195	1.31
728.221	5.31
728.246	8.31
728.271	-3.69
728.297	4.31
728.322	1.31
728.347	0.31
728.373	2.31
728.398	5.31
728.423	-7.69
728.448	0.31
728.474	-3.69
728.499	4.31
728.524	-2.69
728.55	-0.69
728.575	-18.69
728.6	-7.69
728.625	9.31
728.651	-4.69
728.676	8.31
728.701	-10.69
728.727	0.31
728.752	-9.69
728.777	10.31
728.802	16.31
728.828	16.31
728.853	-8.69
728.878	6.31
728.903	14.31
728.929	-9.69
728.954	0.31
728.979	6.31
729.004	15.31
729.03	-13.69
729.055	0.31
729.08	0.31
729.105	-9.69
729.13	5.31
729.156	9.31
729.181	0.31
729.206	-15.69
729.231	-13.69
729.256	-0.69
729.282	7.31
729.307	-14.69
729.332	-10.69
729.357	12.31
729.382	-11.69
729.408	-3.69
729.433	-1.69
729.458	-9.69
729.483	13.31
729.508	20.31
729.533	-12.69
729.559	-2.69
729.584	-18.69
729.609	-4.69
729.634	4.31
729.659	-4.69
729.684	-6.69
729.71	8.31
729.735	-11.69
729.76	-9.69
729.785	-17.69
729.81	10.31
729.835	-11.69
729.86	-3.69
729.886	0.31
729.911	1.31
729.936	-0.69
729.961	12.31
729.986	-7.69
730.011	-5.69
730.036	20.31
730.061	2.31
730.086	-18.69
730.112	11.31
730.137	22.31
730.162	11.31
730.187	-0.69
730.212	-1.69
730.237	-5.69
730.262	4.31
730.287	-7.69
730.312	16.31
730.337	-14.69
730.362	1.31
730.387	0.31
730.413	-11.69
730.438	-6.69
730.463	9.31
730.488	-3.69
730.513	-0.69
730.538	0.31
730.563	20.31
730.588	2.31
730.613	7.31
730.638	19.31
730.663	4.31
730.688	12.31
730.713	0.31
730.738	-6.69
730.763	-1.69
730.788	8.31
730.813	5.31
730.838	-2.69
730.863	16.31
730.888	-2.69
730.913	-9.69
730.938	-5.69
730.963	7.31
730.988	3.31
731.013	12.31
731.038	1.31
731.063	-1.69
731.088	13.31
731.113	-5.69
731.138	-1.69
731.163	8.31
731.188	14.31
731.213	11.31
731.238	20.31
731.263	-3.69
731.288	-6.69
731.313	-2.69
731.338	2.31
731.363	-5.69
731.388	-11.69
731.413	6.31
731.438	12.31
731.463	10.31
731.487	12.31
731.512	-3.69
731.537	-4.69
731.562	5.31
731.587	8.31
731.612	-1.69
731.637	-4.69
731.662	-14.69
731.687	-3.69
731.712	-17.69
731.737	6.31
731.762	-9.69
731.786	-1.69
731.811	9.31
731.836	-2.69
731.861	14.31
731.886	-17.69
731.911	6.31
731.936	-10.69
731.961	-9.69
731.986	0.31
732.01	6.31
732.035	15.31
732.06	10.31
732.085	-8.69
732.11	1.31
732.135	-4.69
732.16	-4.69
732.184	-1.69
732.209	13.31
732.234	-2.69
732.259	3.31
732.284	24.31
732.309	0.31
732.334	-6.69
732.358	-22.69
732.383	-4.69
732.408	14.31
732.433	13.31
732.458	7.31
732.482	2.31
732.507	-10.69
732.532	3.31
732.557	10.31
732.582	5.31
732.607	-5.69
732.631	-3.69
732.656	3.31
732.681	-0.69
732.706	16.31
732.73	-0.69
732.755	-11.69
732.78	-4.69
732.805	-0.69
732.83	-2.69
732.854	-7.69
732.879	5.31
732.904	-3.69
732.929	-10.69
732.953	-5.69
732.978	-6.69
733.003	-8.69
733.028	-0.69
733.052	9.31
733.077	-0.69
733.102	7.31
733.127	-1.69
733.151	-12.69
733.176	-2.69
733.201	0.31
733.226	-8.69
733.25	-11.69
733.275	-7.69
733.3	8.31
733.324	17.31
733.349	12.31
733.374	4.31
733.399	-6.69
733.423	15.31
733.448	-0.69
733.473	-3.69
733.497	-11.69
733.522	-8.69
733.547	1.31
733.571	2.31
733.596	6.31
733.621	2.31
733.646	-1.69
733.67	4.31
733.695	-7.69
733.72	-2.69
733.744	3.31
733.769	5.31
733.794	1.31
733.818	10.31
733.843	-20.69
733.867	5.31
733.892	1.31
733.917	-2.69
733.941	7.31
733.966	-1.69
733.991	-11.69
734.015	4.31
734.04	13.31
734.065	16.31
734.089	16.31
734.114	7.31
734.138	9.31
734.163	8.31
734.188	-1.69
734.212	2.31
734.237	2.31
734.261	2.31
734.286	-5.69
734.311	2.31
734.335	2.31
734.36	5.31
734.384	13.31
734.409	1.31
734.434	-9.69
734.458	-1.69
734.483	-3.69
734.507	-9.69
734.532	3.31
734.556	-2.69
734.581	-1.69
734.606	1.31
734.63	-11.69
734.655	10.31
734.679	-3.69
734.704	3.31
734.728	8.31
734.753	-5.69
734.777	-5.69
734.802	-2.69
734.826	-7.69
734.851	9.31
734.876	14.31
734.9	10.31
734.925	-3.69
734.949	4.31
734.974	6.31
734.998	-2.69
735.023	-8.69
735.047	-8.69
735.072	18.31
735.096	-4.69
735.121	-1.69
735.145	1.31
735.17	5.31
735.194	7.31
735.219	-0.69
735.243	10.31
735.268	7.31
735.292	1.31
735.317	2.31
735.341	11.31
735.365	-3.69
735.39	-3.69
735.414	12.31
735.439	2.31
735.463	6.31
735.488	14.31
735.512	8.31
735.537	0.31
735.561	10.31
735.586	-3.69
735.61	14.31
735.634	-4.69
735.659	17.31
735.683	22.31
735.708	6.31
735.732	4.31
735.757	-2.69
735.781	-2.69
735.805	14.31
735.83	1.31
735.854	4.31
735.879	5.31
735.903	16.31
735.927	1.31
735.952	8.31
735.976	-2.69
736.001	4.31
736.025	11.31
736.049	18.31
736.074	-2.69
736.098	-3.69
736.123	-7.69
736.147	1.31
736.171	-2.69
736.196	2.31
736.22	0.31
736.244	3.31
736.269	5.31
736.293	-8.69
736.317	0.31
736.342	3.31
736.366	9.31
736.39	4.31
736.415	14.31
736.439	8.31
736.463	8.31
736.488	7.31
736.512	6.31
736.536	1.31
736.561	31.31
736.585	-3.69
736.609	-3.69
736.634	-14.69
736.658	-1.69
736.682	-5.69
736.707	-10.69
736.731	-10.69
736.755	5.31
736.78	16.31
736.804	16.31
736.828	2.31
736.852	4.31
736.877	7.31
736.901	18.31
736.925	11.31
736.949	11.31
736.974	-7.69
736.998	-6.69
737.022	1.31
737.047	-13.69
737.071	-3.69
737.095	19.31
737.119	18.31
737.144	-5.69
737.168	-2.69
737.192	1.31
737.216	6.31
737.241	5.31
737.265	0.31
737.289	9.31
737.313	-5.69
737.337	2.31
737.362	-2.69
737.386	-0.69
737.41	-8.69
737.434	9.31
737.459	9.31
737.483	-5.69
737.507	17.31
737.531	7.31
737.555	4.31
737.58	11.31
737.604	4.31
737.628	-23.69
737.652	-4.69
737.676	6.31
737.701	11.31
737.725	29.31
737.749	14.31
737.773	-3.69
737.797	0.31
737.821	3.31
737.846	4.31
737.87	27.31
737.894	4.31
737.918	-4.69
737.942	0.31
737.966	10.31
737.99	9.31
738.015	9.31
738.039	14.31
738.063	1.31
738.087	0.31
738.111	-2.69
738.135	12.31
738.159	18.31
738.184	0.31
738.208	10.31
738.232	9.31
738.256	16.31
738.28	10.31
738.304	13.31
738.328	-7.69
738.352	4.31
738.376	2.31
738.4	10.31
738.425	21.31
738.449	-18.69
738.473	11.31
738.497	10.31
738.521	4.31
738.545	-5.69
738.569	2.31
738.593	1.31
738.617	19.31
738.641	12.31
738.665	13.31
738.689	13.31
738.713	5.31
738.737	12.31
738.762	8.31
738.786	12.31
738.81	-4.69
738.834	0.31
738.858	10.31
738.882	1.31
738.906	-24.69
738.93	5.31
738.954	-3.69
738.978	1.31
739.002	13.31
739.026	8.31
739.05	13.31
739.074	-3.69
739.098	29.31
739.122	5.31
739.146	-0.69
739.17	10.31
739.194	1.31
739.218	-1.69
739.242	-0.69
739.266	-6.69
739.29	9.31
739.314	6.31
739.338	5.31
739.362	-4.69
739.386	8.31
739.41	9.31
739.434	-2.69
739.458	10.31
739.482	5.31
739.506	21.31
739.53	18.31
739.554	0.31
739.577	9.31
739.601	0.31
739.625	-12.69
739.649	0.31
739.673	-12.69
739.697	19.31
739.721	3.31
739.745	17.31
739.769	4.31
739.793	14.31
739.817	17.31
739.841	-0.69
739.865	3.31
739.889	-2.69
739.912	5.31
739.936	-3.69
739.96	4.31
739.984	17.31
740.008	4.31
740.032	-6.69
740.056	12.31
740.08	12.31
740.104	-1.69
740.127	0.31
740.151	-1.69
740.175	2.31
740.199	4.31
740.223	49.31
740.247	21.31
740.271	21.31
740.295	5.31
740.318	-9.69
740.342	-7.69
740.366	11.31
740.39	-1.69
740.414	-1.69
740.438	-7.69
740.461	18.31
740.485	0.31
740.509	-9.69
740.533	9.31
740.557	-11.69
740.581	4.31
740.604	-10.69
740.628	2.31
740.652	0.31
740.676	-4.69
740.7	8.31
740.723	13.31
740.747	-15.69
740.771	-3.69
740.795	-13.69
740.819	10.31
740.842	0.31
740.866	13.31
740.89	-5.69
740.914	-6.69
740.938	-6.69
740.961	16.31
740.985	-0.69
741.009	-6.69
741.033	7.31
741.056	-6.69
741.08	-2.69
741.104	-8.69
741.128	-7.69
741.151	17.31
741.175	8.31
741.199	13.31
741.223	13.31
741.246	-4.69
741.27	7.31
741.294	10.31
741.318	0.31
741.341	-5.69
741.365	8.31
741.389	2.31
741.413	18.31
741.436	19.31
741.46	14.31
741.484	14.31
741.507	7.31
741.531	24.31
741.555	20.31
741.579	5.31
741.602	15.31
741.626	16.31
741.65	13.31
741.673	6.31
741.697	29.31
741.721	8.31
741.744	4.31
741.768	-1.69
741.792	11.31
741.815	-5.69
741.839	6.31
741.863	6.31
741.886	15.31
741.91	27.31
741.934	0.31
741.957	-15.69
741.981	10.31
742.005	3.31
742.028	4.31
742.052	-5.69
742.075	3.31
742.099	7.31
742.123	-0.69
742.146	1.31
742.17	6.31
742.194	0.31
742.217	1.31
742.241	4.31
742.264	0.31
742.288	21.31
742.312	20.31
742.335	-0.69
742.359	11.31
742.382	9.31
742.406	11.31
742.43	-16.69
742.453	-2.69
742.477	-10.69
742.5	6.31
742.524	-10.69
742.548	4.31
742.571	-2.69
742.595	0.31
742.618	1.31
742.642	-10.69
742.665	18.31
742.689	-9.69
742.712	-5.69
742.736	4.31
742.76	-2.69
742.783	5.31
742.807	14.31
742.83	6.31
742.854	-9.69
742.877	3.31
742.901	7.31
742.924	-9.69
742.948	0.31
742.971	6.31
742.995	-4.69
743.018	-25.69
743.042	-10.69
743.065	-5.69
743.089	-14.69
743.112	2.31
743.136	0.31
743.159	11.31
743.183	12.31
743.206	8.31
743.23	8.31
743.253	11.31
743.277	9.31
743.3	1.31
743.324	2.31
743.347	0.31
743.371	32.31
743.394	11.31
743.418	18.31
743.441	9.31
743.465	5.31
743.488	0.31
743.512	-13.69
743.535	12.31
743.558	-8.69
743.582	-0.69
743.605	1.31
743.629	24.31
743.652	0.31
743.676	6.31
743.699	8.31
743.723	12.31
743.746	12.31
743.769	-7.69
743.793	10.31
743.816	-1.69
743.84	11.31
743.863	0.31
743.886	-5.69
743.91	9.31
743.933	13.31
743.957	10.31
743.98	-2.69
744.003	1.31
744.027	2.31
744.05	4.31
744.074	-3.69
744.097	-9.69
744.12	-4.69
744.144	-8.69
744.167	17.31
744.19	11.31
744.214	-2.69
744.237	-1.69
744.26	9.31
744.284	-4.69
744.307	-9.69
744.331	-15.69
744.354	-2.69
744.377	-3.69
744.401	8.31
744.424	-5.69
744.447	3.31
744.471	-5.69
