Data from HighRes_H2_15_09_11_07_2024_HR4C61891__91__15-11-05-502.txt Node

Date: Thu Nov 07 15:11:05 EST 2024
User: crc00042
Spectrometer: HR4C6189
Trigger mode: 4
Integration Time (sec): 1.000000E-1
Scans to average: 1
Electric dark correction enabled: true
Nonlinearity correction enabled: false
Boxcar width: 0
XAxis mode: Wavelengths
Number of Pixels in Spectrum: 3648
>>>>>Begin Spectral Data<<<<<
639.567	-47.69
639.602	-47.69
639.636	-47.69
639.67	-45.69
639.704	-17.69
639.738	-6.69
639.773	3.31
639.807	-8.69
639.841	1.31
639.875	-3.69
639.909	-0.69
639.943	0.31
639.978	2.31
640.012	2.31
640.046	11.31
640.08	2.31
640.114	5.31
640.148	-8.69
640.182	-2.69
640.217	-0.69
640.251	18.31
640.285	21.31
640.319	-5.69
640.353	-0.69
640.387	7.31
640.421	-13.69
640.455	-15.69
640.49	-9.69
640.524	2.31
640.558	10.31
640.592	7.31
640.626	7.31
640.66	5.31
640.694	7.31
640.728	-1.69
640.762	16.31
640.796	25.31
640.83	7.31
640.865	-9.69
640.899	20.31
640.933	-2.69
640.967	-0.69
641.001	14.31
641.035	8.31
641.069	-7.69
641.103	-13.69
641.137	-7.69
641.171	-4.69
641.205	10.31
641.239	13.31
641.273	23.31
641.307	13.31
641.341	-9.69
641.375	-5.69
641.409	3.31
641.443	-3.69
641.477	3.31
641.511	7.31
641.545	-1.69
641.579	-0.69
641.614	8.31
641.648	1.31
641.682	-8.69
641.716	0.31
641.75	19.31
641.784	6.31
641.818	8.31
641.852	1.31
641.886	0.31
641.919	21.31
641.953	7.31
641.987	-8.69
642.021	-4.69
642.055	9.31
642.089	15.31
642.123	1.31
642.157	-14.69
642.191	-16.69
642.225	2.31
642.259	-6.69
642.293	4.31
642.327	-7.69
642.361	4.31
642.395	14.31
642.429	14.31
642.463	0.31
642.497	17.31
642.531	5.31
642.565	-1.69
642.599	11.31
642.633	3.31
642.666	28.31
642.7	7.31
642.734	5.31
642.768	-22.69
642.802	11.31
642.836	9.31
642.87	5.31
642.904	41.31
642.938	13.31
642.972	-10.69
643.005	5.31
643.039	18.31
643.073	-1.69
643.107	9.31
643.141	1.31
643.175	2.31
643.209	2.31
643.243	3.31
643.276	9.31
643.31	5.31
643.344	9.31
643.378	5.31
643.412	8.31
643.446	2.31
643.48	3.31
643.513	12.31
643.547	2.31
643.581	-5.69
643.615	-2.69
643.649	1.31
643.683	10.31
643.716	5.31
643.75	-1.69
643.784	-21.69
643.818	0.31
643.852	-1.69
643.886	4.31
643.919	1.31
643.953	4.31
643.987	3.31
644.021	29.31
644.055	17.31
644.088	-3.69
644.122	-14.69
644.156	-14.69
644.19	2.31
644.224	3.31
644.257	-4.69
644.291	6.31
644.325	-6.69
644.359	3.31
644.392	20.31
644.426	17.31
644.46	6.31
644.494	5.31
644.527	5.31
644.561	23.31
644.595	4.31
644.629	5.31
644.662	-6.69
644.696	9.31
644.73	2.31
644.764	11.31
644.797	2.31
644.831	-3.69
644.865	6.31
644.899	4.31
644.932	26.31
644.966	-4.69
645	29.31
645.033	16.31
645.067	-4.69
645.101	-2.69
645.135	10.31
645.168	-6.69
645.202	-6.69
645.236	3.31
645.269	5.31
645.303	-8.69
645.337	-10.69
645.37	-2.69
645.404	3.31
645.438	11.31
645.471	6.31
645.505	-1.69
645.539	0.31
645.572	-23.69
645.606	-10.69
645.64	1.31
645.673	10.31
645.707	22.31
645.741	-0.69
645.774	-3.69
645.808	17.31
645.842	-12.69
645.875	22.31
645.909	-0.69
645.943	4.31
645.976	9.31
646.01	4.31
646.043	14.31
646.077	24.31
646.111	1.31
646.144	14.31
646.178	18.31
646.212	1.31
646.245	9.31
646.279	19.31
646.312	31.31
646.346	8.31
646.38	4.31
646.413	9.31
646.447	6.31
646.48	6.31
646.514	12.31
646.547	3.31
646.581	-6.69
646.615	16.31
646.648	3.31
646.682	12.31
646.715	-3.69
646.749	6.31
646.782	6.31
646.816	5.31
646.85	7.31
646.883	-5.69
646.917	7.31
646.95	4.31
646.984	13.31
647.017	-0.69
647.051	14.31
647.084	10.31
647.118	-5.69
647.151	11.31
647.185	20.31
647.218	0.31
647.252	18.31
647.285	3.31
647.319	-17.69
647.353	-0.69
647.386	30.31
647.42	11.31
647.453	13.31
647.487	15.31
647.52	2.31
647.553	24.31
647.587	19.31
647.62	-3.69
647.654	-6.69
647.687	-5.69
647.721	5.31
647.754	12.31
647.788	5.31
647.821	-3.69
647.855	-11.69
647.888	3.31
647.922	7.31
647.955	1.31
647.989	5.31
648.022	-8.69
648.055	-0.69
648.089	-15.69
648.122	22.31
648.156	-1.69
648.189	-2.69
648.223	15.31
648.256	33.31
648.29	3.31
648.323	2.31
648.356	16.31
648.39	9.31
648.423	9.31
648.457	6.31
648.49	9.31
648.523	7.31
648.557	-1.69
648.59	-12.69
648.624	-0.69
648.657	14.31
648.69	16.31
648.724	-2.69
648.757	12.31
648.791	7.31
648.824	7.31
648.857	24.31
648.891	3.31
648.924	6.31
648.957	12.31
648.991	-5.69
649.024	1.31
649.057	-2.69
649.091	-17.69
649.124	-0.69
649.158	22.31
649.191	31.31
649.224	6.31
649.258	2.31
649.291	17.31
649.324	20.31
649.358	9.31
649.391	7.31
649.424	1.31
649.458	-18.69
649.491	-7.69
649.524	-1.69
649.557	-16.69
649.591	-2.69
649.624	9.31
649.657	-12.69
649.691	-3.69
649.724	9.31
649.757	14.31
649.791	2.31
649.824	20.31
649.857	15.31
649.89	1.31
649.924	1.31
649.957	-8.69
649.99	-14.69
650.023	-4.69
650.057	-1.69
650.09	18.31
650.123	9.31
650.157	23.31
650.19	9.31
650.223	-6.69
650.256	8.31
650.29	2.31
650.323	5.31
650.356	0.31
650.389	-4.69
650.423	-20.69
650.456	2.31
650.489	-2.69
650.522	8.31
650.555	33.31
650.589	14.31
650.622	9.31
650.655	16.31
650.688	7.31
650.721	8.31
650.755	9.31
650.788	6.31
650.821	-2.69
650.854	-14.69
650.887	15.31
650.921	6.31
650.954	2.31
650.987	22.31
651.02	8.31
651.053	-2.69
651.087	-7.69
651.12	7.31
651.153	8.31
651.186	-5.69
651.219	-8.69
651.252	20.31
651.286	6.31
651.319	-6.69
651.352	12.31
651.385	24.31
651.418	9.31
651.451	17.31
651.484	6.31
651.518	-3.69
651.551	14.31
651.584	11.31
651.617	7.31
651.65	-3.69
651.683	9.31
651.716	0.31
651.749	15.31
651.783	3.31
651.816	0.31
651.849	18.31
651.882	14.31
651.915	2.31
651.948	6.31
651.981	-2.69
652.014	-10.69
652.047	-5.69
652.08	-13.69
652.114	4.31
652.147	-10.69
652.18	-18.69
652.213	23.31
652.246	7.31
652.279	5.31
652.312	6.31
652.345	-0.69
652.378	0.31
652.411	17.31
652.444	13.31
652.477	3.31
652.51	0.31
652.543	-1.69
652.576	-0.69
652.609	-2.69
652.642	15.31
652.675	13.31
652.709	4.31
652.742	20.31
652.775	4.31
652.808	0.31
652.841	6.31
652.874	11.31
652.907	4.31
652.94	4.31
652.973	2.31
653.006	12.31
653.039	-4.69
653.072	2.31
653.105	2.31
653.138	-17.69
653.171	1.31
653.204	-8.69
653.237	11.31
653.27	-3.69
653.303	30.31
653.336	25.31
653.368	2.31
653.401	11.31
653.434	-3.69
653.467	10.31
653.5	7.31
653.533	-5.69
653.566	-2.69
653.599	8.31
653.632	12.31
653.665	12.31
653.698	-2.69
653.731	-7.69
653.764	14.31
653.797	1.31
653.83	17.31
653.863	-3.69
653.896	4.31
653.929	-1.69
653.961	10.31
653.994	9.31
654.027	-6.69
654.06	6.31
654.093	12.31
654.126	-1.69
654.159	-5.69
654.192	6.31
654.225	-15.69
654.258	6.31
654.29	-1.69
654.323	-0.69
654.356	-6.69
654.389	8.31
654.422	7.31
654.455	7.31
654.488	4.31
654.521	-16.69
654.553	-18.69
654.586	24.31
654.619	6.31
654.652	15.31
654.685	4.31
654.718	12.31
654.751	12.31
654.783	-0.69
654.816	17.31
654.849	-5.69
654.882	7.31
654.915	5.31
654.948	8.31
654.98	-19.69
655.013	-19.69
655.046	7.31
655.079	-1.69
655.112	18.31
655.144	-14.69
655.177	12.31
655.21	11.31
655.243	23.31
655.276	20.31
655.308	7.31
655.341	9.31
655.374	16.31
655.407	1.31
655.44	4.31
655.472	26.31
655.505	20.31
655.538	11.31
655.571	11.31
655.603	12.31
655.636	25.31
655.669	28.31
655.702	24.31
655.734	2.31
655.767	3.31
655.8	22.31
655.833	32.31
655.865	30.31
655.898	37.31
655.931	51.31
655.964	52.31
655.996	58.31
656.029	68.31
656.062	65.31
656.095	68.31
656.127	76.31
656.16	104.31
656.193	130.31
656.225	170.31
656.258	269.31
656.291	508.31
656.324	1124.31
656.356	3400.31
656.389	7520.31
656.422	6054.31
656.454	2048.31
656.487	684.31
656.52	265.31
656.552	122.31
656.585	79.31
656.618	56.31
656.65	44.31
656.683	22.31
656.716	25.31
656.748	13.31
656.781	7.31
656.814	0.31
656.846	-3.69
656.879	9.31
656.912	5.31
656.944	-22.69
656.977	-2.69
657.01	-7.69
657.042	8.31
657.075	35.31
657.108	6.31
657.14	3.31
657.173	9.31
657.205	36.31
657.238	15.31
657.271	-0.69
657.303	2.31
657.336	12.31
657.369	-2.69
657.401	-5.69
657.434	6.31
657.466	5.31
657.499	1.31
657.532	8.31
657.564	4.31
657.597	14.31
657.629	1.31
657.662	-0.69
657.694	13.31
657.727	-17.69
657.76	25.31
657.792	-8.69
657.825	-5.69
657.857	-9.69
657.89	5.31
657.922	14.31
657.955	-7.69
657.987	3.31
658.02	32.31
658.053	18.31
658.085	-11.69
658.118	11.31
658.15	7.31
658.183	28.31
658.215	1.31
658.248	-8.69
658.28	-14.69
658.313	15.31
658.345	22.31
658.378	4.31
658.41	-8.69
658.443	17.31
658.475	11.31
658.508	3.31
658.54	7.31
658.573	2.31
658.605	2.31
658.638	5.31
658.67	-11.69
658.703	0.31
658.735	-10.69
658.768	10.31
658.8	-3.69
658.833	15.31
658.865	-4.69
658.898	-6.69
658.93	-17.69
658.963	-3.69
658.995	-14.69
659.028	3.31
659.06	-6.69
659.092	-3.69
659.125	-9.69
659.157	15.31
659.19	-5.69
659.222	-20.69
659.255	-14.69
659.287	-11.69
659.32	3.31
659.352	-1.69
659.384	18.31
659.417	-12.69
659.449	0.31
659.482	18.31
659.514	12.31
659.546	-3.69
659.579	-6.69
659.611	12.31
659.644	3.31
659.676	-9.69
659.708	4.31
659.741	-1.69
659.773	22.31
659.806	18.31
659.838	-2.69
659.87	11.31
659.903	-1.69
659.935	12.31
659.967	3.31
660	10.31
660.032	-27.69
660.065	-1.69
660.097	5.31
660.129	7.31
660.162	-14.69
660.194	17.31
660.226	12.31
660.259	20.31
660.291	1.31
660.323	8.31
660.356	-0.69
660.388	-5.69
660.42	2.31
660.453	15.31
660.485	9.31
660.517	5.31
660.55	6.31
660.582	3.31
660.614	9.31
660.647	19.31
660.679	5.31
660.711	9.31
660.743	-1.69
660.776	10.31
660.808	1.31
660.84	4.31
660.873	-0.69
660.905	-8.69
660.937	-0.69
660.969	5.31
661.002	10.31
661.034	9.31
661.066	-3.69
661.099	5.31
661.131	9.31
661.163	-7.69
661.195	-0.69
661.228	18.31
661.26	-0.69
661.292	2.31
661.324	10.31
661.357	6.31
661.389	8.31
661.421	1.31
661.453	-4.69
661.485	5.31
661.518	12.31
661.55	-1.69
661.582	-21.69
661.614	8.31
661.647	12.31
661.679	9.31
661.711	-0.69
661.743	-1.69
661.775	4.31
661.808	20.31
661.84	-2.69
661.872	2.31
661.904	-5.69
661.936	2.31
661.969	-13.69
662.001	-1.69
662.033	17.31
662.065	-10.69
662.097	19.31
662.129	4.31
662.162	3.31
662.194	5.31
662.226	3.31
662.258	13.31
662.29	5.31
662.322	-12.69
662.355	5.31
662.387	21.31
662.419	23.31
662.451	11.31
662.483	6.31
662.515	5.31
662.547	-11.69
662.58	-22.69
662.612	-9.69
662.644	-17.69
662.676	5.31
662.708	12.31
662.74	-6.69
662.772	-5.69
662.804	4.31
662.836	11.31
662.869	12.31
662.901	7.31
662.933	6.31
662.965	6.31
662.997	6.31
663.029	-0.69
663.061	-9.69
663.093	-6.69
663.125	12.31
663.157	0.31
663.189	4.31
663.221	1.31
663.254	3.31
663.286	2.31
663.318	8.31
663.35	-15.69
663.382	13.31
663.414	13.31
663.446	24.31
663.478	-8.69
663.51	21.31
663.542	-5.69
663.574	9.31
663.606	13.31
663.638	3.31
663.67	2.31
663.702	8.31
663.734	5.31
663.766	-1.69
663.798	8.31
663.83	16.31
663.862	14.31
663.894	8.31
663.926	-4.69
663.958	11.31
663.99	0.31
664.022	-14.69
664.054	5.31
664.086	4.31
664.118	-7.69
664.15	-3.69
664.182	7.31
664.214	-8.69
664.246	17.31
664.278	-2.69
664.31	4.31
664.342	13.31
664.374	7.31
664.406	-4.69
664.438	-15.69
664.47	-0.69
664.502	-1.69
664.534	8.31
664.566	-1.69
664.598	8.31
664.63	8.31
664.662	5.31
664.693	-12.69
664.725	-1.69
664.757	-0.69
664.789	1.31
664.821	17.31
664.853	9.31
664.885	8.31
664.917	3.31
664.949	3.31
664.981	-8.69
665.013	2.31
665.045	-27.69
665.076	-0.69
665.108	-0.69
665.14	5.31
665.172	-19.69
665.204	-24.69
665.236	1.31
665.268	9.31
665.3	-7.69
665.331	-3.69
665.363	2.31
665.395	-16.69
665.427	-2.69
665.459	7.31
665.491	15.31
665.523	-3.69
665.555	4.31
665.586	0.31
665.618	-14.69
665.65	-12.69
665.682	2.31
665.714	8.31
665.746	6.31
665.777	11.31
665.809	5.31
665.841	25.31
665.873	6.31
665.905	5.31
665.937	10.31
665.968	1.31
666	7.31
666.032	7.31
666.064	5.31
666.096	-6.69
666.127	6.31
666.159	14.31
666.191	17.31
666.223	1.31
666.255	10.31
666.286	10.31
666.318	10.31
666.35	11.31
666.382	8.31
666.413	-20.69
666.445	-32.69
666.477	-32.69
666.509	-19.69
666.54	-7.69
666.572	-3.69
666.604	8.31
666.636	-3.69
666.667	19.31
666.699	6.31
666.731	10.31
666.763	-9.69
666.794	15.31
666.826	10.31
666.858	-11.69
666.89	13.31
666.921	-0.69
666.953	15.31
666.985	6.31
667.017	28.31
667.048	3.31
667.08	3.31
667.112	-3.69
667.143	-4.69
667.175	8.31
667.207	-8.69
667.238	4.31
667.27	11.31
667.302	-0.69
667.334	4.31
667.365	17.31
667.397	1.31
667.429	-17.69
667.46	0.31
667.492	-11.69
667.524	-3.69
667.555	3.31
667.587	5.31
667.619	11.31
667.65	13.31
667.682	16.31
667.714	-4.69
667.745	9.31
667.777	-11.69
667.808	6.31
667.84	18.31
667.872	10.31
667.903	23.31
667.935	1.31
667.967	3.31
667.998	-14.69
668.03	3.31
668.061	4.31
668.093	1.31
668.125	7.31
668.156	5.31
668.188	-1.69
668.22	-5.69
668.251	12.31
668.283	1.31
668.314	14.31
668.346	6.31
668.377	-6.69
668.409	-9.69
668.441	-9.69
668.472	-3.69
668.504	14.31
668.535	10.31
668.567	17.31
668.599	0.31
668.63	7.31
668.662	2.31
668.693	7.31
668.725	11.31
668.756	2.31
668.788	15.31
668.819	4.31
668.851	7.31
668.882	12.31
668.914	-4.69
668.946	-1.69
668.977	-14.69
669.009	6.31
669.04	-7.69
669.072	-10.69
669.103	-1.69
669.135	2.31
669.166	6.31
669.198	1.31
669.229	8.31
669.261	-6.69
669.292	10.31
669.324	11.31
669.355	-0.69
669.387	-0.69
669.418	10.31
669.45	13.31
669.481	15.31
669.513	11.31
669.544	9.31
669.576	-19.69
669.607	5.31
669.639	13.31
669.67	14.31
669.701	-4.69
669.733	-5.69
669.764	-2.69
669.796	6.31
669.827	-14.69
669.859	2.31
669.89	25.31
669.922	10.31
669.953	11.31
669.985	13.31
670.016	9.31
670.047	13.31
670.079	3.31
670.11	8.31
670.142	2.31
670.173	-7.69
670.204	0.31
670.236	-3.69
670.267	-9.69
670.299	5.31
670.33	-9.69
670.362	11.31
670.393	1.31
670.424	11.31
670.456	-6.69
670.487	-6.69
670.518	-16.69
670.55	5.31
670.581	3.31
670.613	-3.69
670.644	-7.69
670.675	-9.69
670.707	-7.69
670.738	0.31
670.769	-1.69
670.801	-22.69
670.832	9.31
670.864	-11.69
670.895	-4.69
670.926	-4.69
670.958	-3.69
670.989	0.31
671.02	2.31
671.052	4.31
671.083	15.31
671.114	9.31
671.146	14.31
671.177	20.31
671.208	-3.69
671.24	-12.69
671.271	-5.69
671.302	0.31
671.333	0.31
671.365	-10.69
671.396	-5.69
671.427	6.31
671.459	16.31
671.49	1.31
671.521	12.31
671.553	8.31
671.584	13.31
671.615	-4.69
671.646	-2.69
671.678	1.31
671.709	-14.69
671.74	4.31
671.771	5.31
671.803	-12.69
671.834	2.31
671.865	4.31
671.896	15.31
671.928	-0.69
671.959	1.31
671.99	3.31
672.021	-2.69
672.053	-12.69
672.084	19.31
672.115	6.31
672.146	-2.69
672.178	-5.69
672.209	-10.69
672.24	2.31
672.271	5.31
672.303	9.31
672.334	-12.69
672.365	-21.69
672.396	-2.69
672.427	-4.69
672.459	9.31
672.49	14.31
672.521	0.31
672.552	6.31
672.583	13.31
672.615	0.31
672.646	-0.69
672.677	6.31
672.708	-2.69
672.739	17.31
672.77	15.31
672.802	-8.69
672.833	-10.69
672.864	4.31
672.895	-1.69
672.926	-5.69
672.957	-14.69
672.989	-6.69
673.02	9.31
673.051	-5.69
673.082	15.31
673.113	13.31
673.144	17.31
673.175	9.31
673.206	11.31
673.238	-2.69
673.269	10.31
673.3	1.31
673.331	4.31
673.362	-6.69
673.393	-7.69
673.424	13.31
673.455	14.31
673.487	6.31
673.518	22.31
673.549	14.31
673.58	-6.69
673.611	7.31
673.642	-5.69
673.673	-41.69
673.704	-5.69
673.735	6.31
673.766	-5.69
673.797	-2.69
673.828	10.31
673.86	-9.69
673.891	-23.69
673.922	-7.69
673.953	-7.69
673.984	12.31
674.015	23.31
674.046	-8.69
674.077	0.31
674.108	-24.69
674.139	-9.69
674.17	2.31
674.201	-12.69
674.232	0.31
674.263	10.31
674.294	1.31
674.325	-1.69
674.356	-12.69
674.387	2.31
674.418	17.31
674.449	-7.69
674.48	-0.69
674.511	-0.69
674.542	3.31
674.573	1.31
674.604	8.31
674.635	0.31
674.666	3.31
674.697	5.31
674.728	-4.69
674.759	-1.69
674.79	-9.69
674.821	-14.69
674.852	1.31
674.883	-2.69
674.914	-2.69
674.945	-0.69
674.976	4.31
675.007	-0.69
675.038	-14.69
675.069	-4.69
675.1	-8.69
675.131	-5.69
675.162	-12.69
675.193	-9.69
675.224	-13.69
675.254	12.31
675.285	11.31
675.316	4.31
675.347	8.31
675.378	-4.69
675.409	-19.69
675.44	-0.69
675.471	3.31
675.502	-4.69
675.533	1.31
675.564	6.31
675.595	8.31
675.625	27.31
675.656	7.31
675.687	0.31
675.718	-11.69
675.749	-1.69
675.78	-5.69
675.811	6.31
675.842	6.31
675.873	-4.69
675.903	-7.69
675.934	15.31
675.965	-3.69
675.996	-5.69
676.027	-3.69
676.058	-0.69
676.089	-8.69
676.119	-4.69
676.15	-4.69
676.181	-6.69
676.212	-8.69
676.243	2.31
676.274	1.31
676.304	18.31
676.335	-13.69
676.366	6.31
676.397	4.31
676.428	-5.69
676.459	1.31
676.489	-6.69
676.52	-4.69
676.551	3.31
676.582	-0.69
676.613	8.31
676.643	11.31
676.674	4.31
676.705	4.31
676.736	4.31
676.767	2.31
676.797	4.31
676.828	18.31
676.859	-4.69
676.89	-1.69
676.92	1.31
676.951	2.31
676.982	-3.69
677.013	-19.69
677.044	21.31
677.074	16.31
677.105	-6.69
677.136	7.31
677.167	1.31
677.197	16.31
677.228	15.31
677.259	-9.69
677.289	1.31
677.32	-17.69
677.351	-7.69
677.382	-7.69
677.412	-2.69
677.443	2.31
677.474	-5.69
677.505	0.31
677.535	5.31
677.566	-14.69
677.597	-8.69
677.627	-13.69
677.658	-7.69
677.689	1.31
677.72	8.31
677.75	-11.69
677.781	1.31
677.812	4.31
677.842	20.31
677.873	9.31
677.904	-1.69
677.934	21.31
677.965	-6.69
677.996	-6.69
678.026	9.31
678.057	14.31
678.088	-4.69
678.118	4.31
678.149	-15.69
678.18	-6.69
678.21	-9.69
678.241	-8.69
678.272	-5.69
678.302	16.31
678.333	14.31
678.363	-3.69
678.394	-7.69
678.425	-0.69
678.455	4.31
678.486	12.31
678.517	-6.69
678.547	-3.69
678.578	5.31
678.608	-2.69
678.639	-4.69
678.67	-3.69
678.7	-3.69
678.731	-11.69
678.761	0.31
678.792	9.31
678.823	12.31
678.853	0.31
678.884	-9.69
678.914	1.31
678.945	5.31
678.975	-12.69
679.006	-4.69
679.037	-14.69
679.067	26.31
679.098	-3.69
679.128	-4.69
679.159	4.31
679.189	0.31
679.22	-23.69
679.25	1.31
679.281	1.31
679.312	-4.69
679.342	-5.69
679.373	25.31
679.403	13.31
679.434	10.31
679.464	13.31
679.495	7.31
679.525	-8.69
679.556	1.31
679.586	18.31
679.617	9.31
679.647	10.31
679.678	-9.69
679.708	5.31
679.739	-4.69
679.769	5.31
679.8	-4.69
679.83	-9.69
679.861	5.31
679.891	-3.69
679.922	-13.69
679.952	-0.69
679.983	5.31
680.013	-3.69
680.044	2.31
680.074	8.31
680.105	15.31
680.135	-10.69
680.165	8.31
680.196	4.31
680.226	7.31
680.257	6.31
680.287	-14.69
680.318	-18.69
680.348	-9.69
680.379	13.31
680.409	7.31
680.439	-1.69
680.47	0.31
680.5	0.31
680.531	-5.69
680.561	3.31
680.592	5.31
680.622	18.31
680.652	3.31
680.683	12.31
680.713	-0.69
680.744	0.31
680.774	-15.69
680.804	8.31
680.835	4.31
680.865	-1.69
680.896	18.31
680.926	4.31
680.956	6.31
680.987	7.31
681.017	-18.69
681.047	-0.69
681.078	-12.69
681.108	2.31
681.139	17.31
681.169	0.31
681.199	-6.69
681.23	-3.69
681.26	11.31
681.29	5.31
681.321	-12.69
681.351	2.31
681.381	0.31
681.412	-2.69
681.442	5.31
681.472	26.31
681.503	14.31
681.533	5.31
681.563	-0.69
681.594	3.31
681.624	-2.69
681.654	8.31
681.685	3.31
681.715	10.31
681.745	-3.69
681.775	-28.69
681.806	-1.69
681.836	-12.69
681.866	-7.69
681.897	12.31
681.927	16.31
681.957	-20.69
681.987	4.31
682.018	2.31
682.048	14.31
682.078	3.31
682.109	22.31
682.139	12.31
682.169	12.31
682.199	5.31
682.23	-13.69
682.26	6.31
682.29	0.31
682.32	2.31
682.351	12.31
682.381	-10.69
682.411	-1.69
682.441	-1.69
682.472	-10.69
682.502	-7.69
682.532	-7.69
682.562	7.31
682.592	2.31
682.623	8.31
682.653	-4.69
682.683	0.31
682.713	2.31
682.743	-15.69
682.774	-20.69
682.804	4.31
682.834	1.31
682.864	1.31
682.894	2.31
682.925	-5.69
682.955	-8.69
682.985	-20.69
683.015	-0.69
683.045	-0.69
683.076	-5.69
683.106	-8.69
683.136	3.31
683.166	-2.69
683.196	-6.69
683.226	-6.69
683.257	4.31
683.287	-15.69
683.317	-22.69
683.347	-2.69
683.377	4.31
683.407	3.31
683.437	-8.69
683.468	18.31
683.498	8.31
683.528	1.31
683.558	4.31
683.588	7.31
683.618	-7.69
683.648	-17.69
683.678	0.31
683.708	8.31
683.739	-6.69
683.769	-11.69
683.799	1.31
683.829	9.31
683.859	-1.69
683.889	17.31
683.919	5.31
683.949	2.31
683.979	-3.69
684.009	1.31
684.039	6.31
684.07	1.31
684.1	5.31
684.13	-7.69
684.16	-1.69
684.19	-10.69
684.22	-5.69
684.25	10.31
684.28	5.31
684.31	29.31
684.34	6.31
684.37	5.31
684.4	9.31
684.43	15.31
684.46	4.31
684.49	8.31
684.52	10.31
684.55	17.31
684.58	4.31
684.61	10.31
684.64	-1.69
684.67	11.31
684.7	3.31
684.73	2.31
684.76	4.31
684.79	21.31
684.82	6.31
684.85	-8.69
684.88	12.31
684.91	-3.69
684.94	6.31
684.97	-16.69
685	-3.69
685.03	-9.69
685.06	-4.69
685.09	1.31
685.12	23.31
685.15	-14.69
685.18	-9.69
685.21	3.31
685.24	15.31
685.27	10.31
685.3	2.31
685.33	5.31
685.36	-9.69
685.39	-9.69
685.42	-1.69
685.45	7.31
685.48	-1.69
685.51	-7.69
685.54	5.31
685.569	-2.69
685.599	1.31
685.629	15.31
685.659	-3.69
685.689	-7.69
685.719	-1.69
685.749	-1.69
685.779	10.31
685.809	20.31
685.839	1.31
685.869	2.31
685.898	5.31
685.928	2.31
685.958	2.31
685.988	19.31
686.018	-12.69
686.048	18.31
686.078	30.31
686.108	17.31
686.137	9.31
686.167	21.31
686.197	-11.69
686.227	0.31
686.257	28.31
686.287	14.31
686.317	4.31
686.346	-5.69
686.376	-11.69
686.406	-13.69
686.436	30.31
686.466	-8.69
686.496	1.31
686.525	-0.69
686.555	9.31
686.585	18.31
686.615	21.31
686.645	9.31
686.675	2.31
686.704	11.31
686.734	7.31
686.764	-2.69
686.794	-4.69
686.824	2.31
686.853	14.31
686.883	7.31
686.913	18.31
686.943	8.31
686.973	-2.69
687.002	-8.69
687.032	4.31
687.062	6.31
687.092	20.31
687.121	9.31
687.151	12.31
687.181	5.31
687.211	11.31
687.24	-4.69
687.27	-9.69
687.3	8.31
687.33	17.31
687.359	-7.69
687.389	12.31
687.419	-17.69
687.449	-4.69
687.478	5.31
687.508	5.31
687.538	15.31
687.568	3.31
687.597	-15.69
687.627	12.31
687.657	8.31
687.686	27.31
687.716	17.31
687.746	-8.69
687.776	4.31
687.805	7.31
687.835	0.31
687.865	24.31
687.894	3.31
687.924	1.31
687.954	0.31
687.983	-3.69
688.013	3.31
688.043	-2.69
688.072	-17.69
688.102	-1.69
688.132	0.31
688.161	8.31
688.191	-9.69
688.221	10.31
688.25	-11.69
688.28	3.31
688.31	17.31
688.339	4.31
688.369	-10.69
688.399	2.31
688.428	1.31
688.458	1.31
688.488	1.31
688.517	9.31
688.547	10.31
688.576	28.31
688.606	7.31
688.636	-9.69
688.665	-3.69
688.695	-5.69
688.725	5.31
688.754	-0.69
688.784	-1.69
688.813	21.31
688.843	-5.69
688.873	-5.69
688.902	0.31
688.932	-20.69
688.961	3.31
688.991	1.31
689.02	22.31
689.05	7.31
689.08	31.31
689.109	27.31
689.139	0.31
689.168	18.31
689.198	11.31
689.227	9.31
689.257	6.31
689.287	-2.69
689.316	-7.69
689.346	-14.69
689.375	-7.69
689.405	0.31
689.434	-5.69
689.464	-0.69
689.493	5.31
689.523	-10.69
689.552	-5.69
689.582	-7.69
689.611	0.31
689.641	19.31
689.67	3.31
689.7	4.31
689.73	10.31
689.759	4.31
689.789	4.31
689.818	-10.69
689.848	4.31
689.877	17.31
689.906	-2.69
689.936	2.31
689.965	15.31
689.995	15.31
690.024	25.31
690.054	5.31
690.083	6.31
690.113	-1.69
690.142	-2.69
690.172	-3.69
690.201	11.31
690.231	1.31
690.26	21.31
690.29	5.31
690.319	26.31
690.348	19.31
690.378	10.31
690.407	-1.69
690.437	-6.69
690.466	1.31
690.496	4.31
690.525	4.31
690.555	-0.69
690.584	8.31
690.613	5.31
690.643	12.31
690.672	10.31
690.702	-13.69
690.731	9.31
690.76	2.31
690.79	-8.69
690.819	-10.69
690.849	3.31
690.878	1.31
690.907	6.31
690.937	14.31
690.966	13.31
690.996	11.31
691.025	-13.69
691.054	-3.69
691.084	-3.69
691.113	13.31
691.142	11.31
691.172	14.31
691.201	1.31
691.23	-13.69
691.26	15.31
691.289	-5.69
691.319	2.31
691.348	6.31
691.377	-6.69
691.407	13.31
691.436	7.31
691.465	0.31
691.495	-13.69
691.524	-6.69
691.553	3.31
691.583	-6.69
691.612	10.31
691.641	5.31
691.67	-2.69
691.7	14.31
691.729	-6.69
691.758	-2.69
691.788	4.31
691.817	-9.69
691.846	-6.69
691.876	10.31
691.905	4.31
691.934	4.31
691.963	26.31
691.993	4.31
692.022	-4.69
692.051	-26.69
692.081	-6.69
692.11	21.31
692.139	4.31
692.168	12.31
692.198	27.31
692.227	18.31
692.256	6.31
692.285	14.31
692.315	-3.69
692.344	0.31
692.373	4.31
692.402	-18.69
692.432	-8.69
692.461	5.31
692.49	4.31
692.519	11.31
692.548	0.31
692.578	9.31
692.607	-4.69
692.636	-6.69
692.665	7.31
692.694	5.31
692.724	5.31
692.753	10.31
692.782	10.31
692.811	-6.69
692.84	-1.69
692.87	10.31
692.899	3.31
692.928	8.31
692.957	11.31
692.986	4.31
693.016	6.31
693.045	8.31
693.074	12.31
693.103	5.31
693.132	10.31
693.161	9.31
693.191	8.31
693.22	-5.69
693.249	-5.69
693.278	-4.69
693.307	0.31
693.336	-5.69
693.365	-14.69
693.395	-4.69
693.424	4.31
693.453	14.31
693.482	1.31
693.511	12.31
693.54	12.31
693.569	4.31
693.598	3.31
693.628	22.31
693.657	7.31
693.686	29.31
693.715	17.31
693.744	5.31
693.773	6.31
693.802	6.31
693.831	-10.69
693.86	3.31
693.889	11.31
693.919	2.31
693.948	-18.69
693.977	-9.69
694.006	-1.69
694.035	-3.69
694.064	-8.69
694.093	-1.69
694.122	1.31
694.151	-3.69
694.18	15.31
694.209	8.31
694.238	5.31
694.267	14.31
694.296	2.31
694.325	6.31
694.354	9.31
694.383	12.31
694.412	1.31
694.441	-13.69
694.471	-17.69
694.5	-19.69
694.529	-7.69
694.558	21.31
694.587	7.31
694.616	-1.69
694.645	-5.69
694.674	20.31
694.703	21.31
694.732	12.31
694.761	38.31
694.79	15.31
694.819	-4.69
694.848	9.31
694.877	25.31
694.906	19.31
694.935	2.31
694.963	2.31
694.992	3.31
695.021	6.31
695.05	11.31
695.079	-4.69
695.108	-2.69
695.137	17.31
695.166	9.31
695.195	-9.69
695.224	8.31
695.253	3.31
695.282	-1.69
695.311	-5.69
695.34	6.31
695.369	17.31
695.398	13.31
695.427	24.31
695.456	20.31
695.485	18.31
695.513	11.31
695.542	3.31
695.571	6.31
695.6	24.31
695.629	9.31
695.658	8.31
695.687	4.31
695.716	3.31
695.745	21.31
695.774	-3.69
695.802	5.31
695.831	-3.69
695.86	12.31
695.889	16.31
695.918	11.31
695.947	8.31
695.976	-5.69
696.005	7.31
696.033	13.31
696.062	12.31
696.091	8.31
696.12	9.31
696.149	16.31
696.178	6.31
696.207	11.31
696.235	-7.69
696.264	6.31
696.293	2.31
696.322	11.31
696.351	32.31
696.38	-2.69
696.408	-2.69
696.437	3.31
696.466	6.31
696.495	7.31
696.524	14.31
696.553	4.31
696.581	3.31
696.61	-16.69
696.639	-10.69
696.668	-0.69
696.697	-0.69
696.725	10.31
696.754	14.31
696.783	5.31
696.812	8.31
696.84	6.31
696.869	12.31
696.898	-0.69
696.927	1.31
696.956	7.31
696.984	-0.69
697.013	13.31
697.042	0.31
697.071	13.31
697.099	6.31
697.128	12.31
697.157	24.31
697.186	-2.69
697.214	5.31
697.243	-3.69
697.272	-4.69
697.301	5.31
697.329	20.31
697.358	4.31
697.387	18.31
697.415	11.31
697.444	23.31
697.473	11.31
697.502	-0.69
697.53	8.31
697.559	4.31
697.588	-6.69
697.616	-1.69
697.645	7.31
697.674	10.31
697.703	13.31
697.731	22.31
697.76	22.31
697.789	5.31
697.817	12.31
697.846	24.31
697.875	7.31
697.903	11.31
697.932	16.31
697.961	7.31
697.989	15.31
698.018	11.31
698.047	5.31
698.075	6.31
698.104	18.31
698.133	1.31
698.161	3.31
698.19	9.31
698.218	-6.69
698.247	3.31
698.276	-2.69
698.304	5.31
698.333	7.31
698.362	-1.69
698.39	8.31
698.419	14.31
698.447	19.31
698.476	-2.69
698.505	27.31
698.533	12.31
698.562	0.31
698.591	-2.69
698.619	-6.69
698.648	0.31
698.676	11.31
698.705	3.31
698.733	-1.69
698.762	15.31
698.791	1.31
698.819	8.31
698.848	-9.69
698.876	19.31
698.905	9.31
698.933	15.31
698.962	0.31
698.991	-1.69
699.019	15.31
699.048	0.31
699.076	0.31
699.105	-21.69
699.133	4.31
699.162	18.31
699.19	14.31
699.219	20.31
699.248	6.31
699.276	4.31
699.305	6.31
699.333	17.31
699.362	-7.69
699.39	10.31
699.419	4.31
699.447	4.31
699.476	18.31
699.504	10.31
699.533	5.31
699.561	-28.69
699.59	-0.69
699.618	-3.69
699.647	10.31
699.675	-4.69
699.704	6.31
699.732	1.31
699.761	-6.69
699.789	3.31
699.818	5.31
699.846	2.31
699.874	4.31
699.903	-12.69
699.931	2.31
699.96	4.31
699.988	3.31
700.017	-5.69
700.045	1.31
700.074	0.31
700.102	18.31
700.13	4.31
700.159	17.31
700.187	22.31
700.216	-3.69
700.244	6.31
700.273	16.31
700.301	36.31
700.329	19.31
700.358	32.31
700.386	13.31
700.415	4.31
700.443	15.31
700.472	2.31
700.5	2.31
700.528	1.31
700.557	5.31
700.585	0.31
700.614	-3.69
700.642	14.31
700.67	7.31
700.699	1.31
700.727	0.31
700.755	-0.69
700.784	18.31
700.812	-0.69
700.841	-1.69
700.869	3.31
700.897	-2.69
700.926	-6.69
700.954	9.31
700.982	11.31
701.011	6.31
701.039	10.31
701.067	3.31
701.096	11.31
701.124	-6.69
701.152	7.31
701.181	2.31
701.209	-8.69
701.237	4.31
701.266	5.31
701.294	3.31
701.322	17.31
701.351	7.31
701.379	-5.69
701.407	-3.69
701.435	15.31
701.464	8.31
701.492	23.31
701.52	-2.69
701.549	16.31
701.577	2.31
701.605	-12.69
701.634	-2.69
701.662	0.31
701.69	-18.69
701.718	2.31
701.747	0.31
701.775	9.31
701.803	-27.69
701.831	4.31
701.86	-12.69
701.888	-14.69
701.916	7.31
701.944	15.31
701.973	11.31
702.001	6.31
702.029	-8.69
702.057	-6.69
702.086	-10.69
702.114	-8.69
702.142	-3.69
702.17	-6.69
702.199	0.31
702.227	3.31
702.255	10.31
702.283	-10.69
702.311	5.31
702.34	-4.69
702.368	-4.69
702.396	-2.69
702.424	-3.69
702.452	6.31
702.481	-2.69
702.509	-1.69
702.537	6.31
702.565	5.31
702.593	-6.69
702.621	-7.69
702.65	4.31
702.678	2.31
702.706	8.31
702.734	-5.69
702.762	13.31
702.79	8.31
702.819	19.31
702.847	6.31
702.875	-5.69
702.903	12.31
702.931	0.31
702.959	-2.69
702.988	13.31
703.016	-0.69
703.044	22.31
703.072	9.31
703.1	-1.69
703.128	0.31
703.156	12.31
703.184	-17.69
703.212	19.31
703.241	4.31
703.269	-6.69
703.297	6.31
703.325	4.31
703.353	-11.69
703.381	-3.69
703.409	2.31
703.437	-0.69
703.465	-1.69
703.493	0.31
703.522	4.31
703.55	8.31
703.578	4.31
703.606	0.31
703.634	-0.69
703.662	-11.69
703.69	12.31
703.718	12.31
703.746	14.31
703.774	6.31
703.802	19.31
703.83	0.31
703.858	5.31
703.886	-3.69
703.914	-12.69
703.942	18.31
703.97	-4.69
703.998	-3.69
704.027	-0.69
704.055	12.31
704.083	5.31
704.111	-1.69
704.139	-2.69
704.167	-4.69
704.195	5.31
704.223	-9.69
704.251	-7.69
704.279	12.31
704.307	20.31
704.335	1.31
704.363	2.31
704.391	-12.69
704.419	-10.69
704.447	1.31
704.475	6.31
704.503	2.31
704.531	14.31
704.558	-2.69
704.586	2.31
704.614	-2.69
704.642	12.31
704.67	-10.69
704.698	3.31
704.726	5.31
704.754	9.31
704.782	-4.69
704.81	-1.69
704.838	15.31
704.866	13.31
704.894	-1.69
704.922	6.31
704.95	5.31
704.978	15.31
705.006	1.31
705.034	5.31
705.061	-16.69
705.089	0.31
705.117	-17.69
705.145	-6.69
705.173	-15.69
705.201	-0.69
705.229	16.31
705.257	13.31
705.285	15.31
705.313	6.31
705.34	5.31
705.368	-8.69
705.396	0.31
705.424	-1.69
705.452	-0.69
705.48	7.31
705.508	-4.69
705.536	3.31
705.563	9.31
705.591	-1.69
705.619	10.31
705.647	-0.69
705.675	17.31
705.703	14.31
705.731	4.31
705.758	17.31
705.786	0.31
705.814	26.31
705.842	-1.69
705.87	22.31
705.898	14.31
705.925	-6.69
705.953	11.31
705.981	-4.69
706.009	-8.69
706.037	11.31
706.065	5.31
706.092	-1.69
706.12	1.31
706.148	-6.69
706.176	-2.69
706.204	10.31
706.231	12.31
706.259	-8.69
706.287	6.31
706.315	5.31
706.342	-7.69
706.37	7.31
706.398	2.31
706.426	2.31
706.454	0.31
706.481	13.31
706.509	5.31
706.537	3.31
706.565	-0.69
706.592	11.31
706.62	-2.69
706.648	4.31
706.676	-28.69
706.703	-1.69
706.731	1.31
706.759	4.31
706.787	-7.69
706.814	-2.69
706.842	-9.69
706.87	-7.69
706.897	11.31
706.925	-1.69
706.953	3.31
706.981	15.31
707.008	15.31
707.036	0.31
707.064	11.31
707.091	-10.69
707.119	21.31
707.147	-4.69
707.174	-9.69
707.202	20.31
707.23	-7.69
707.258	0.31
707.285	-33.69
707.313	-8.69
707.341	-10.69
707.368	0.31
707.396	4.31
707.424	9.31
707.451	-1.69
707.479	3.31
707.507	2.31
707.534	0.31
707.562	-4.69
707.59	-5.69
707.617	3.31
707.645	7.31
707.672	2.31
707.7	3.31
707.728	9.31
707.755	8.31
707.783	4.31
707.811	0.31
707.838	-6.69
707.866	13.31
707.893	1.31
707.921	-3.69
707.949	7.31
707.976	-7.69
708.004	-11.69
708.031	-2.69
708.059	-3.69
708.087	-7.69
708.114	-4.69
708.142	-0.69
708.169	-5.69
708.197	-21.69
708.225	-2.69
708.252	-14.69
708.28	0.31
708.307	-9.69
708.335	1.31
708.362	-11.69
708.39	-26.69
708.418	-9.69
708.445	-3.69
708.473	-18.69
708.5	-6.69
708.528	10.31
708.555	4.31
708.583	-3.69
708.61	4.31
708.638	3.31
708.665	-2.69
708.693	-7.69
708.72	-3.69
708.748	-5.69
708.776	-11.69
708.803	13.31
708.831	5.31
708.858	10.31
708.886	-8.69
708.913	4.31
708.941	4.31
708.968	21.31
708.996	4.31
709.023	18.31
709.051	1.31
709.078	-14.69
709.105	-20.69
709.133	-0.69
709.16	12.31
709.188	23.31
709.215	6.31
709.243	-1.69
709.27	-5.69
709.298	1.31
709.325	-4.69
709.353	-11.69
709.38	5.31
709.408	28.31
709.435	4.31
709.462	4.31
709.49	10.31
709.517	8.31
709.545	9.31
709.572	-4.69
709.6	-16.69
709.627	-7.69
709.655	-4.69
709.682	-3.69
709.709	-2.69
709.737	4.31
709.764	-5.69
709.792	16.31
709.819	4.31
709.846	-3.69
709.874	10.31
709.901	18.31
709.929	14.31
709.956	20.31
709.983	1.31
710.011	-13.69
710.038	-14.69
710.066	20.31
710.093	0.31
710.12	-2.69
710.148	7.31
710.175	-17.69
710.202	-20.69
710.23	3.31
710.257	2.31
710.284	7.31
710.312	8.31
710.339	-3.69
710.366	5.31
710.394	-1.69
710.421	-4.69
710.448	0.31
710.476	-5.69
710.503	-2.69
710.53	9.31
710.558	17.31
710.585	12.31
710.612	2.31
710.64	4.31
710.667	-2.69
710.694	-2.69
710.722	-2.69
710.749	-0.69
710.776	-2.69
710.804	11.31
710.831	-0.69
710.858	-8.69
710.885	4.31
710.913	-8.69
710.94	27.31
710.967	4.31
710.995	11.31
711.022	2.31
711.049	-6.69
711.076	-8.69
711.104	0.31
711.131	-11.69
711.158	-1.69
711.185	9.31
711.213	0.31
711.24	0.31
711.267	-7.69
711.294	-4.69
711.322	10.31
711.349	-4.69
711.376	0.31
711.403	8.31
711.431	1.31
711.458	-8.69
711.485	-18.69
711.512	0.31
711.54	-4.69
711.567	-3.69
711.594	-2.69
711.621	-0.69
711.648	1.31
711.676	-6.69
711.703	-12.69
711.73	-26.69
711.757	2.31
711.784	-2.69
711.812	-0.69
711.839	-9.69
711.866	-5.69
711.893	-1.69
711.92	15.31
711.947	1.31
711.975	5.31
712.002	-13.69
712.029	1.31
712.056	11.31
712.083	6.31
712.11	-0.69
712.138	-0.69
712.165	11.31
712.192	9.31
712.219	-8.69
712.246	-1.69
712.273	10.31
712.3	-8.69
712.328	14.31
712.355	-2.69
712.382	-4.69
712.409	11.31
712.436	-7.69
712.463	5.31
712.49	21.31
712.517	-2.69
712.544	-3.69
712.572	14.31
712.599	-1.69
712.626	20.31
712.653	-4.69
712.68	-21.69
712.707	4.31
712.734	-1.69
712.761	6.31
712.788	2.31
712.815	0.31
712.842	6.31
712.87	-2.69
712.897	-1.69
712.924	-14.69
712.951	6.31
712.978	9.31
713.005	11.31
713.032	14.31
713.059	0.31
713.086	8.31
713.113	-20.69
713.14	-10.69
713.167	6.31
713.194	18.31
713.221	5.31
713.248	9.31
713.275	-0.69
713.302	0.31
713.329	5.31
713.356	13.31
713.383	24.31
713.41	2.31
713.437	7.31
713.464	8.31
713.491	22.31
713.518	8.31
713.545	2.31
713.572	-2.69
713.599	15.31
713.626	5.31
713.653	14.31
713.68	3.31
713.707	2.31
713.734	6.31
713.761	1.31
713.788	3.31
713.815	8.31
713.842	4.31
713.869	-14.69
713.896	8.31
713.923	-4.69
713.95	-1.69
713.977	3.31
714.004	8.31
714.031	-12.69
714.058	-8.69
714.085	-10.69
714.112	7.31
714.139	18.31
714.165	2.31
714.192	-3.69
714.219	7.31
714.246	8.31
714.273	1.31
714.3	-15.69
714.327	-1.69
714.354	14.31
714.381	5.31
714.408	10.31
714.435	-11.69
714.461	-4.69
714.488	19.31
714.515	5.31
714.542	3.31
714.569	-11.69
714.596	-20.69
714.623	-14.69
714.65	0.31
714.677	0.31
714.703	15.31
714.73	6.31
714.757	1.31
714.784	0.31
714.811	-8.69
714.838	5.31
714.865	-0.69
714.891	17.31
714.918	17.31
714.945	1.31
714.972	-1.69
714.999	11.31
715.026	4.31
715.052	5.31
715.079	10.31
715.106	12.31
715.133	0.31
715.16	0.31
715.187	-0.69
715.213	9.31
715.24	-3.69
715.267	-6.69
715.294	1.31
715.321	1.31
715.347	-2.69
715.374	3.31
715.401	-9.69
715.428	-11.69
715.455	4.31
715.481	-11.69
715.508	11.31
715.535	-4.69
715.562	29.31
715.588	13.31
715.615	7.31
715.642	8.31
715.669	17.31
715.695	-2.69
715.722	-9.69
715.749	1.31
715.776	12.31
715.802	22.31
715.829	12.31
715.856	-15.69
715.883	18.31
715.909	-8.69
715.936	-6.69
715.963	3.31
715.99	2.31
716.016	5.31
716.043	-8.69
716.07	-3.69
716.096	-9.69
716.123	3.31
716.15	20.31
716.177	9.31
716.203	7.31
716.23	14.31
716.257	8.31
716.283	13.31
716.31	14.31
716.337	12.31
716.363	9.31
716.39	2.31
716.417	8.31
716.443	-1.69
716.47	18.31
716.497	18.31
716.523	2.31
716.55	8.31
716.577	22.31
716.603	10.31
716.63	-0.69
716.657	-1.69
716.683	-2.69
716.71	-5.69
716.737	-11.69
716.763	-4.69
716.79	-5.69
716.817	19.31
716.843	9.31
716.87	-3.69
716.897	7.31
716.923	5.31
716.95	9.31
716.976	6.31
717.003	-5.69
717.03	-2.69
717.056	-2.69
717.083	-3.69
717.109	-0.69
717.136	5.31
717.163	5.31
717.189	9.31
717.216	1.31
717.242	2.31
717.269	6.31
717.296	8.31
717.322	4.31
717.349	12.31
717.375	2.31
717.402	-15.69
717.428	5.31
717.455	9.31
717.481	9.31
717.508	29.31
717.535	20.31
717.561	13.31
717.588	2.31
717.614	1.31
717.641	-3.69
717.667	7.31
717.694	10.31
717.72	2.31
717.747	4.31
717.773	-10.69
717.8	6.31
717.826	16.31
717.853	8.31
717.88	9.31
717.906	9.31
717.933	13.31
717.959	-3.69
717.986	14.31
718.012	7.31
718.039	7.31
718.065	4.31
718.092	8.31
718.118	-1.69
718.144	-15.69
718.171	9.31
718.197	28.31
718.224	8.31
718.25	29.31
718.277	8.31
718.303	14.31
718.33	11.31
718.356	-2.69
718.383	-9.69
718.409	8.31
718.436	5.31
718.462	2.31
718.489	-3.69
718.515	19.31
718.541	11.31
718.568	0.31
718.594	2.31
718.621	-1.69
718.647	7.31
718.674	15.31
718.7	14.31
718.726	3.31
718.753	5.31
718.779	24.31
718.806	12.31
718.832	-5.69
718.858	21.31
718.885	-2.69
718.911	10.31
718.938	1.31
718.964	-10.69
718.99	-7.69
719.017	-1.69
719.043	-3.69
719.07	6.31
719.096	-14.69
719.122	2.31
719.149	9.31
719.175	-4.69
719.201	0.31
719.228	-3.69
719.254	14.31
719.281	8.31
719.307	-5.69
719.333	5.31
719.36	8.31
719.386	12.31
719.412	9.31
719.439	-4.69
719.465	-10.69
719.491	-2.69
719.518	6.31
719.544	15.31
719.57	19.31
719.597	1.31
719.623	8.31
719.649	-0.69
719.675	-3.69
719.702	1.31
719.728	12.31
719.754	-5.69
719.781	0.31
719.807	2.31
719.833	-5.69
719.86	5.31
719.886	-1.69
719.912	6.31
719.938	0.31
719.965	8.31
719.991	9.31
720.017	8.31
720.044	-2.69
720.07	7.31
720.096	18.31
720.122	-11.69
720.149	6.31
720.175	14.31
720.201	16.31
720.227	9.31
720.254	0.31
720.28	2.31
720.306	0.31
720.332	10.31
720.359	3.31
720.385	6.31
720.411	11.31
720.437	18.31
720.463	-6.69
720.49	10.31
720.516	-1.69
720.542	-8.69
720.568	-5.69
720.595	14.31
720.621	12.31
720.647	-1.69
720.673	15.31
720.699	12.31
720.725	-3.69
720.752	8.31
720.778	18.31
720.804	10.31
720.83	15.31
720.856	-0.69
720.883	-5.69
720.909	-3.69
720.935	5.31
720.961	11.31
720.987	20.31
721.013	15.31
721.04	-3.69
721.066	-14.69
721.092	-3.69
721.118	9.31
721.144	24.31
721.17	-2.69
721.196	-7.69
721.223	-7.69
721.249	-5.69
721.275	18.31
721.301	0.31
721.327	8.31
721.353	1.31
721.379	0.31
721.405	0.31
721.432	18.31
721.458	0.31
721.484	9.31
721.51	-8.69
721.536	0.31
721.562	3.31
721.588	3.31
721.614	1.31
721.64	0.31
721.666	4.31
721.693	1.31
721.719	-2.69
721.745	-2.69
721.771	0.31
721.797	3.31
721.823	4.31
721.849	14.31
721.875	-1.69
721.901	9.31
721.927	-5.69
721.953	12.31
721.979	14.31
722.005	5.31
722.031	-17.69
722.057	9.31
722.083	-6.69
722.109	14.31
722.135	-3.69
722.161	0.31
722.187	-3.69
722.214	-5.69
722.24	-5.69
722.266	-19.69
722.292	1.31
722.318	5.31
722.344	9.31
722.37	11.31
722.396	12.31
722.422	-1.69
722.448	6.31
722.474	-12.69
722.5	-1.69
722.526	4.31
722.552	-2.69
722.578	-3.69
722.603	1.31
722.629	2.31
722.655	14.31
722.681	6.31
722.707	3.31
722.733	-1.69
722.759	-24.69
722.785	-10.69
722.811	-4.69
722.837	-5.69
722.863	8.31
722.889	6.31
722.915	2.31
722.941	-1.69
722.967	-8.69
722.993	12.31
723.019	8.31
723.045	-9.69
723.071	-9.69
723.097	-7.69
723.122	6.31
723.148	-10.69
723.174	0.31
723.2	-3.69
723.226	-11.69
723.252	18.31
723.278	10.31
723.304	-7.69
723.33	4.31
723.356	-21.69
723.381	-7.69
723.407	-7.69
723.433	15.31
723.459	-20.69
723.485	7.31
723.511	20.31
723.537	-2.69
723.563	-18.69
723.588	11.31
723.614	31.31
723.64	5.31
723.666	7.31
723.692	17.31
723.718	1.31
723.744	-3.69
723.769	1.31
723.795	-6.69
723.821	8.31
723.847	3.31
723.873	-2.69
723.899	1.31
723.924	-5.69
723.95	13.31
723.976	2.31
724.002	-3.69
724.028	0.31
724.053	-5.69
724.079	6.31
724.105	2.31
724.131	-1.69
724.157	-3.69
724.182	0.31
724.208	6.31
724.234	-1.69
724.26	2.31
724.286	11.31
724.311	2.31
724.337	-17.69
724.363	-7.69
724.389	9.31
724.415	-6.69
724.44	19.31
724.466	5.31
724.492	-10.69
724.518	0.31
724.543	4.31
724.569	18.31
724.595	12.31
724.621	-6.69
724.646	-8.69
724.672	1.31
724.698	0.31
724.723	6.31
724.749	2.31
724.775	-1.69
724.801	6.31
724.826	-15.69
724.852	-17.69
724.878	-7.69
724.904	-6.69
724.929	10.31
724.955	-16.69
724.981	4.31
725.006	-5.69
725.032	-2.69
725.058	11.31
725.083	-10.69
725.109	-8.69
725.135	10.31
725.161	19.31
725.186	-2.69
725.212	-6.69
725.238	14.31
725.263	1.31
725.289	2.31
725.315	-5.69
725.34	-6.69
725.366	3.31
725.392	-10.69
725.417	5.31
725.443	10.31
725.468	12.31
725.494	9.31
725.52	2.31
725.545	-11.69
725.571	3.31
725.597	9.31
725.622	7.31
725.648	0.31
725.674	-4.69
725.699	-3.69
725.725	18.31
725.75	21.31
725.776	-10.69
725.802	11.31
725.827	10.31
725.853	-4.69
725.878	1.31
725.904	1.31
725.93	12.31
725.955	-3.69
725.981	4.31
726.006	3.31
726.032	6.31
726.057	0.31
726.083	-11.69
726.109	13.31
726.134	3.31
726.16	1.31
726.185	-7.69
726.211	-6.69
726.236	8.31
726.262	-1.69
726.288	2.31
726.313	5.31
726.339	-5.69
726.364	-1.69
726.39	14.31
726.415	-4.69
726.441	2.31
726.466	-7.69
726.492	0.31
726.517	4.31
726.543	0.31
726.568	-10.69
726.594	-3.69
726.619	6.31
726.645	4.31
726.67	10.31
726.696	-3.69
726.721	8.31
726.747	-15.69
726.772	-3.69
726.798	2.31
726.823	13.31
726.849	4.31
726.874	-7.69
726.9	21.31
726.925	7.31
726.951	-11.69
726.976	5.31
727.002	14.31
727.027	5.31
727.053	16.31
727.078	0.31
727.104	-0.69
727.129	-9.69
727.155	-2.69
727.18	10.31
727.205	-7.69
727.231	11.31
727.256	9.31
727.282	-11.69
727.307	12.31
727.333	0.31
727.358	-11.69
727.383	-13.69
727.409	-5.69
727.434	0.31
727.46	-15.69
727.485	3.31
727.511	11.31
727.536	-7.69
727.561	-5.69
727.587	-8.69
727.612	-13.69
727.637	-10.69
727.663	1.31
727.688	10.31
727.714	-10.69
727.739	4.31
727.764	0.31
727.79	11.31
727.815	1.31
727.841	5.31
727.866	20.31
727.891	-2.69
727.917	-20.69
727.942	-12.69
727.967	-4.69
727.993	-22.69
728.018	-7.69
728.043	4.31
728.069	4.31
728.094	-5.69
728.119	7.31
728.145	11.31
728.17	1.31
728.195	-3.69
728.221	9.31
728.246	-6.69
728.271	-14.69
728.297	4.31
728.322	13.31
728.347	8.31
728.373	-3.69
728.398	13.31
728.423	1.31
728.448	16.31
728.474	8.31
728.499	8.31
728.524	-10.69
728.55	-8.69
728.575	0.31
728.6	-4.69
728.625	-10.69
728.651	6.31
728.676	-13.69
728.701	-8.69
728.727	12.31
728.752	-12.69
728.777	14.31
728.802	-9.69
728.828	-4.69
728.853	-2.69
728.878	8.31
728.903	-11.69
728.929	-1.69
728.954	-8.69
728.979	-1.69
729.004	3.31
729.03	3.31
729.055	8.31
729.08	-11.69
729.105	-5.69
729.13	11.31
729.156	-2.69
729.181	-3.69
729.206	-15.69
729.231	-8.69
729.256	16.31
729.282	12.31
729.307	-11.69
729.332	-1.69
729.357	-7.69
729.382	-5.69
729.408	1.31
729.433	-14.69
729.458	4.31
729.483	7.31
729.508	26.31
729.533	5.31
729.559	3.31
729.584	-6.69
729.609	6.31
729.634	-3.69
729.659	-4.69
729.684	-10.69
729.71	14.31
729.735	6.31
729.76	-15.69
729.785	-2.69
729.81	4.31
729.835	-3.69
729.86	3.31
729.886	11.31
729.911	4.31
729.936	-4.69
729.961	19.31
729.986	-14.69
730.011	3.31
730.036	6.31
730.061	-4.69
730.086	4.31
730.112	9.31
730.137	22.31
730.162	16.31
730.187	-8.69
730.212	11.31
730.237	-6.69
730.262	-3.69
730.287	11.31
730.312	23.31
730.337	0.31
730.362	31.31
730.387	-9.69
730.413	-12.69
730.438	-7.69
730.463	-4.69
730.488	2.31
730.513	2.31
730.538	-2.69
730.563	26.31
730.588	20.31
730.613	-11.69
730.638	-7.69
730.663	-2.69
730.688	12.31
730.713	-2.69
730.738	5.31
730.763	2.31
730.788	-15.69
730.813	6.31
730.838	-5.69
730.863	-6.69
730.888	-1.69
730.913	-15.69
730.938	-6.69
730.963	9.31
730.988	16.31
731.013	25.31
731.038	-8.69
731.063	-6.69
731.088	6.31
731.113	10.31
731.138	-14.69
731.163	6.31
731.188	2.31
731.213	-13.69
731.238	7.31
731.263	15.31
731.288	-0.69
731.313	-5.69
731.338	0.31
731.363	-3.69
731.388	3.31
731.413	-11.69
731.438	5.31
731.463	8.31
731.487	9.31
731.512	-0.69
731.537	0.31
731.562	0.31
731.587	6.31
731.612	-6.69
731.637	-3.69
731.662	3.31
731.687	1.31
731.712	-12.69
731.737	-0.69
731.762	3.31
731.786	-1.69
731.811	0.31
731.836	7.31
731.861	-4.69
731.886	-8.69
731.911	11.31
731.936	13.31
731.961	-3.69
731.986	-3.69
732.01	8.31
732.035	-3.69
732.06	11.31
732.085	-3.69
732.11	-4.69
732.135	-9.69
732.16	1.31
732.184	9.31
732.209	3.31
732.234	0.31
732.259	-12.69
732.284	-3.69
732.309	-14.69
732.334	-10.69
732.358	-7.69
732.383	-18.69
732.408	-8.69
732.433	-5.69
732.458	-12.69
732.482	11.31
732.507	-11.69
732.532	28.31
732.557	22.31
732.582	4.31
732.607	-1.69
732.631	-13.69
732.656	-8.69
732.681	15.31
732.706	7.31
732.73	-3.69
732.755	-4.69
732.78	4.31
732.805	7.31
732.83	6.31
732.854	-18.69
732.879	10.31
732.904	-5.69
732.929	-9.69
732.953	-7.69
732.978	4.31
733.003	-9.69
733.028	-1.69
733.052	15.31
733.077	14.31
733.102	-0.69
733.127	16.31
733.151	-4.69
733.176	2.31
733.201	-6.69
733.226	1.31
733.25	10.31
733.275	0.31
733.3	1.31
733.324	5.31
733.349	1.31
733.374	30.31
733.399	-10.69
733.423	1.31
733.448	0.31
733.473	-4.69
733.497	-13.69
733.522	6.31
733.547	12.31
733.571	22.31
733.596	4.31
733.621	0.31
733.646	-8.69
733.67	4.31
733.695	-3.69
733.72	16.31
733.744	2.31
733.769	-0.69
733.794	19.31
733.818	12.31
733.843	-6.69
733.867	-12.69
733.892	-2.69
733.917	1.31
733.941	-3.69
733.966	-4.69
733.991	2.31
734.015	17.31
734.04	15.31
734.065	4.31
734.089	29.31
734.114	-1.69
734.138	-5.69
734.163	-4.69
734.188	-5.69
734.212	-3.69
734.237	3.31
734.261	2.31
734.286	-15.69
734.311	-20.69
734.335	-2.69
734.36	-13.69
734.384	-4.69
734.409	14.31
734.434	-2.69
734.458	-2.69
734.483	-2.69
734.507	0.31
734.532	-6.69
734.556	5.31
734.581	-5.69
734.606	-2.69
734.63	-14.69
734.655	5.31
734.679	1.31
734.704	7.31
734.728	2.31
734.753	7.31
734.777	7.31
734.802	1.31
734.826	24.31
734.851	9.31
734.876	20.31
734.9	1.31
734.925	17.31
734.949	11.31
734.974	1.31
734.998	16.31
735.023	-4.69
735.047	-9.69
735.072	3.31
735.096	-4.69
735.121	-5.69
735.145	-0.69
735.17	1.31
735.194	8.31
735.219	1.31
735.243	4.31
735.268	4.31
735.292	10.31
735.317	9.31
735.341	0.31
735.365	-5.69
735.39	17.31
735.414	9.31
735.439	2.31
735.463	3.31
735.488	13.31
735.512	6.31
735.537	-0.69
735.561	-6.69
735.586	-9.69
735.61	11.31
735.634	-3.69
735.659	7.31
735.683	27.31
735.708	-9.69
735.732	0.31
735.757	-9.69
735.781	-4.69
735.805	-0.69
735.83	-6.69
735.854	-7.69
735.879	0.31
735.903	-3.69
735.927	3.31
735.952	15.31
735.976	-5.69
736.001	3.31
736.025	-15.69
736.049	11.31
736.074	-0.69
736.098	7.31
736.123	5.31
736.147	9.31
736.171	10.31
736.196	9.31
736.22	-7.69
736.244	-2.69
736.269	17.31
736.293	16.31
736.317	14.31
736.342	-1.69
736.366	21.31
736.39	13.31
736.415	6.31
736.439	0.31
736.463	11.31
736.488	0.31
736.512	-1.69
736.536	-2.69
736.561	4.31
736.585	1.31
736.609	13.31
736.634	12.31
736.658	-1.69
736.682	-8.69
736.707	-21.69
736.731	-1.69
736.755	2.31
736.78	17.31
736.804	6.31
736.828	19.31
736.852	1.31
736.877	5.31
736.901	22.31
736.925	14.31
736.949	6.31
736.974	-9.69
736.998	13.31
737.022	9.31
737.047	5.31
737.071	-0.69
737.095	21.31
737.119	20.31
737.144	7.31
737.168	-12.69
737.192	-18.69
737.216	4.31
737.241	-3.69
737.265	4.31
737.289	1.31
737.313	0.31
737.337	1.31
737.362	1.31
737.386	-8.69
737.41	-3.69
737.434	-2.69
737.459	9.31
737.483	5.31
737.507	21.31
737.531	13.31
737.555	23.31
737.58	14.31
737.604	-10.69
737.628	-14.69
737.652	-22.69
737.676	-2.69
737.701	13.31
737.725	-2.69
737.749	15.31
737.773	8.31
737.797	-3.69
737.821	5.31
737.846	0.31
737.87	19.31
737.894	-6.69
737.918	1.31
737.942	6.31
737.966	19.31
737.99	18.31
738.015	4.31
738.039	10.31
738.063	-2.69
738.087	26.31
738.111	7.31
738.135	9.31
738.159	14.31
738.184	-2.69
738.208	4.31
738.232	13.31
738.256	13.31
738.28	10.31
738.304	9.31
738.328	1.31
738.352	9.31
738.376	-9.69
738.4	-2.69
738.425	9.31
738.449	-17.69
738.473	5.31
738.497	-7.69
738.521	10.31
738.545	6.31
738.569	3.31
738.593	6.31
738.617	0.31
738.641	-5.69
738.665	4.31
738.689	0.31
738.713	-3.69
738.737	7.31
738.762	28.31
738.786	13.31
738.81	-15.69
738.834	6.31
738.858	1.31
738.882	17.31
738.906	-2.69
738.93	-4.69
738.954	-8.69
738.978	11.31
739.002	-8.69
739.026	20.31
739.05	12.31
739.074	11.31
739.098	13.31
739.122	5.31
739.146	0.31
739.17	20.31
739.194	19.31
739.218	-10.69
739.242	6.31
739.266	-5.69
739.29	22.31
739.314	13.31
739.338	14.31
739.362	14.31
739.386	9.31
739.41	0.31
739.434	5.31
739.458	23.31
739.482	18.31
739.506	3.31
739.53	0.31
739.554	16.31
739.577	3.31
739.601	5.31
739.625	-2.69
739.649	-3.69
739.673	-8.69
739.697	12.31
739.721	14.31
739.745	21.31
739.769	2.31
739.793	-5.69
739.817	7.31
739.841	-7.69
739.865	0.31
739.889	3.31
739.912	1.31
739.936	1.31
739.96	-9.69
739.984	20.31
740.008	-1.69
740.032	-8.69
740.056	8.31
740.08	-5.69
740.104	-12.69
740.127	18.31
740.151	15.31
740.175	10.31
740.199	10.31
740.223	53.31
740.247	5.31
740.271	1.31
740.295	-6.69
740.318	-11.69
740.342	-11.69
740.366	10.31
740.39	21.31
740.414	2.31
740.438	13.31
740.461	9.31
740.485	17.31
740.509	19.31
740.533	9.31
740.557	6.31
740.581	16.31
740.604	-18.69
740.628	0.31
740.652	4.31
740.676	-7.69
740.7	18.31
740.723	2.31
740.747	6.31
740.771	3.31
740.795	-13.69
740.819	22.31
740.842	11.31
740.866	16.31
740.89	9.31
740.914	5.31
740.938	0.31
740.961	31.31
740.985	16.31
741.009	6.31
741.033	4.31
741.056	17.31
741.08	6.31
741.104	2.31
741.128	0.31
741.151	22.31
741.175	14.31
741.199	16.31
741.223	1.31
741.246	2.31
741.27	29.31
741.294	0.31
741.318	-0.69
741.341	15.31
741.365	14.31
741.389	1.31
741.413	0.31
741.436	11.31
741.46	23.31
741.484	8.31
741.507	4.31
741.531	17.31
741.555	7.31
741.579	15.31
741.602	1.31
741.626	12.31
741.65	10.31
741.673	2.31
741.697	15.31
741.721	12.31
741.744	-10.69
741.768	10.31
741.792	4.31
741.815	-10.69
741.839	14.31
741.863	20.31
741.886	18.31
741.91	12.31
741.934	-1.69
741.957	-15.69
741.981	4.31
742.005	14.31
742.028	0.31
742.052	4.31
742.075	11.31
742.099	15.31
742.123	16.31
742.146	-3.69
742.17	12.31
742.194	-2.69
742.217	-4.69
742.241	-11.69
742.264	5.31
742.288	8.31
742.312	6.31
742.335	1.31
742.359	2.31
742.382	16.31
742.406	15.31
742.43	-3.69
742.453	4.31
742.477	1.31
742.5	4.31
742.524	-6.69
742.548	-3.69
742.571	-11.69
742.595	1.31
742.618	-1.69
742.642	-2.69
742.665	6.31
742.689	-6.69
742.712	9.31
742.736	11.31
742.76	9.31
742.783	-1.69
742.807	5.31
742.83	-3.69
742.854	-11.69
742.877	8.31
742.901	6.31
742.924	-5.69
742.948	8.31
742.971	8.31
742.995	9.31
743.018	-21.69
743.042	-5.69
743.065	-5.69
743.089	-10.69
743.112	11.31
743.136	0.31
743.159	0.31
743.183	3.31
743.206	9.31
743.23	0.31
743.253	8.31
743.277	-5.69
743.3	-7.69
743.324	10.31
743.347	1.31
743.371	8.31
743.394	-4.69
743.418	14.31
743.441	3.31
743.465	-4.69
743.488	1.31
743.512	-14.69
743.535	-5.69
743.558	-2.69
743.582	-0.69
743.605	8.31
743.629	-2.69
743.652	8.31
743.676	3.31
743.699	1.31
743.723	12.31
743.746	25.31
743.769	0.31
743.793	-6.69
743.816	-10.69
743.84	15.31
743.863	2.31
743.886	8.31
743.91	23.31
743.933	-1.69
743.957	-0.69
743.98	5.31
744.003	1.31
744.027	5.31
744.05	16.31
744.074	-2.69
744.097	-0.69
744.12	9.31
744.144	-11.69
744.167	0.31
744.19	-11.69
744.214	4.31
744.237	1.31
744.26	19.31
744.284	1.31
744.307	-2.69
744.331	13.31
744.354	-5.69
744.377	-6.69
744.401	-10.69
744.424	3.31
744.447	-3.69
744.471	-13.69
