Data from HighRes_H2_15_09_11_07_2024_HR4C61891__103__15-11-06-701.txt Node

Date: Thu Nov 07 15:11:06 EST 2024
User: crc00042
Spectrometer: HR4C6189
Trigger mode: 4
Integration Time (sec): 1.000000E-1
Scans to average: 1
Electric dark correction enabled: true
Nonlinearity correction enabled: false
Boxcar width: 0
XAxis mode: Wavelengths
Number of Pixels in Spectrum: 3648
>>>>>Begin Spectral Data<<<<<
639.567	-39.31
639.602	-39.31
639.636	-39.31
639.67	-39.31
639.704	-31.31
639.738	11.69
639.773	10.69
639.807	-19.31
639.841	-3.31
639.875	10.69
639.909	-4.31
639.943	-4.31
639.978	-8.31
640.012	1.69
640.046	10.69
640.08	-4.31
640.114	10.69
640.148	-12.31
640.182	-7.31
640.217	22.69
640.251	16.69
640.285	22.69
640.319	-6.31
640.353	4.69
640.387	3.69
640.421	-19.31
640.455	-7.31
640.49	-1.31
640.524	-1.31
640.558	-6.31
640.592	1.69
640.626	1.69
640.66	3.69
640.694	-0.31
640.728	-5.31
640.762	11.69
640.796	5.69
640.83	8.69
640.865	-4.31
640.899	4.69
640.933	-1.31
640.967	-7.31
641.001	3.69
641.035	12.69
641.069	16.69
641.103	-25.31
641.137	-9.31
641.171	-19.31
641.205	20.69
641.239	10.69
641.273	17.69
641.307	6.69
641.341	11.69
641.375	-8.31
641.409	-1.31
641.443	-1.31
641.477	1.69
641.511	21.69
641.545	17.69
641.579	12.69
641.614	9.69
641.648	13.69
641.682	-18.31
641.716	-6.31
641.75	5.69
641.784	-5.31
641.818	-3.31
641.852	2.69
641.886	7.69
641.919	30.69
641.953	9.69
641.987	-7.31
642.021	-0.31
642.055	-3.31
642.089	-7.31
642.123	-4.31
642.157	-4.31
642.191	-13.31
642.225	22.69
642.259	8.69
642.293	12.69
642.327	-3.31
642.361	10.69
642.395	10.69
642.429	8.69
642.463	12.69
642.497	19.69
642.531	7.69
642.565	7.69
642.599	11.69
642.633	-11.31
642.666	11.69
642.7	4.69
642.734	0.69
642.768	-5.31
642.802	1.69
642.836	4.69
642.87	-11.31
642.904	23.69
642.938	17.69
642.972	4.69
643.005	4.69
643.039	15.69
643.073	4.69
643.107	1.69
643.141	4.69
643.175	18.69
643.209	10.69
643.243	-2.31
643.276	4.69
643.31	-7.31
643.344	5.69
643.378	7.69
643.412	6.69
643.446	10.69
643.48	5.69
643.513	6.69
643.547	21.69
643.581	-12.31
643.615	13.69
643.649	-2.31
643.683	-8.31
643.716	16.69
643.75	-6.31
643.784	-17.31
643.818	12.69
643.852	-4.31
643.886	-3.31
643.919	23.69
643.953	12.69
643.987	5.69
644.021	9.69
644.055	9.69
644.088	-15.31
644.122	-14.31
644.156	-10.31
644.19	15.69
644.224	6.69
644.257	7.69
644.291	18.69
644.325	24.69
644.359	3.69
644.392	8.69
644.426	6.69
644.46	5.69
644.494	-0.31
644.527	-2.31
644.561	10.69
644.595	15.69
644.629	13.69
644.662	6.69
644.696	15.69
644.73	10.69
644.764	10.69
644.797	-8.31
644.831	10.69
644.865	18.69
644.899	6.69
644.932	19.69
644.966	-9.31
645	14.69
645.033	16.69
645.067	-12.31
645.101	5.69
645.135	1.69
645.168	15.69
645.202	-0.31
645.236	3.69
645.269	8.69
645.303	7.69
645.337	-10.31
645.37	-5.31
645.404	10.69
645.438	1.69
645.471	2.69
645.505	9.69
645.539	2.69
645.572	-5.31
645.606	-9.31
645.64	3.69
645.673	9.69
645.707	24.69
645.741	12.69
645.774	-2.31
645.808	7.69
645.842	-8.31
645.875	1.69
645.909	-0.31
645.943	-12.31
645.976	-3.31
646.01	13.69
646.043	19.69
646.077	1.69
646.111	0.69
646.144	13.69
646.178	7.69
646.212	-0.31
646.245	-5.31
646.279	-0.31
646.312	6.69
646.346	19.69
646.38	11.69
646.413	10.69
646.447	15.69
646.48	2.69
646.514	8.69
646.547	-5.31
646.581	-8.31
646.615	17.69
646.648	5.69
646.682	-5.31
646.715	-1.31
646.749	18.69
646.782	4.69
646.816	-9.31
646.85	16.69
646.883	-8.31
646.917	4.69
646.95	5.69
646.984	3.69
647.017	-5.31
647.051	2.69
647.084	5.69
647.118	-4.31
647.151	6.69
647.185	17.69
647.218	3.69
647.252	4.69
647.285	-5.31
647.319	-4.31
647.353	18.69
647.386	26.69
647.42	15.69
647.453	27.69
647.487	14.69
647.52	2.69
647.553	27.69
647.587	2.69
647.62	3.69
647.654	-1.31
647.687	-3.31
647.721	11.69
647.754	2.69
647.788	3.69
647.821	-0.31
647.855	10.69
647.888	11.69
647.922	22.69
647.955	10.69
647.989	12.69
648.022	-1.31
648.055	10.69
648.089	19.69
648.122	29.69
648.156	14.69
648.189	-3.31
648.223	18.69
648.256	20.69
648.29	9.69
648.323	9.69
648.356	5.69
648.39	6.69
648.423	6.69
648.457	4.69
648.49	20.69
648.523	22.69
648.557	0.69
648.59	3.69
648.624	-5.31
648.657	8.69
648.69	6.69
648.724	3.69
648.757	11.69
648.791	25.69
648.824	4.69
648.857	22.69
648.891	8.69
648.924	-1.31
648.957	14.69
648.991	4.69
649.024	11.69
649.057	-0.31
649.091	4.69
649.124	1.69
649.158	5.69
649.191	17.69
649.224	13.69
649.258	6.69
649.291	20.69
649.324	-1.31
649.358	8.69
649.391	4.69
649.424	11.69
649.458	12.69
649.491	12.69
649.524	-5.31
649.557	6.69
649.591	-6.31
649.624	17.69
649.657	12.69
649.691	-0.31
649.724	11.69
649.757	7.69
649.791	-13.31
649.824	12.69
649.857	16.69
649.89	-6.31
649.924	-9.31
649.957	-11.31
649.99	-24.31
650.023	8.69
650.057	-1.31
650.09	10.69
650.123	7.69
650.157	11.69
650.19	16.69
650.223	7.69
650.256	-5.31
650.29	2.69
650.323	6.69
650.356	13.69
650.389	7.69
650.423	-24.31
650.456	21.69
650.489	-1.31
650.522	5.69
650.555	18.69
650.589	-0.31
650.622	3.69
650.655	9.69
650.688	16.69
650.721	-3.31
650.755	6.69
650.788	15.69
650.821	0.69
650.854	-6.31
650.887	0.69
650.921	-5.31
650.954	-10.31
650.987	-2.31
651.02	19.69
651.053	2.69
651.087	-2.31
651.12	12.69
651.153	15.69
651.186	2.69
651.219	-1.31
651.252	12.69
651.286	16.69
651.319	2.69
651.352	22.69
651.385	4.69
651.418	-6.31
651.451	5.69
651.484	7.69
651.518	7.69
651.551	19.69
651.584	1.69
651.617	11.69
651.65	-4.31
651.683	20.69
651.716	7.69
651.749	-5.31
651.783	10.69
651.816	-2.31
651.849	6.69
651.882	18.69
651.915	-0.31
651.948	14.69
651.981	0.69
652.014	-12.31
652.047	-12.31
652.08	13.69
652.114	18.69
652.147	-5.31
652.18	4.69
652.213	21.69
652.246	0.69
652.279	-2.31
652.312	2.69
652.345	-5.31
652.378	9.69
652.411	25.69
652.444	22.69
652.477	2.69
652.51	-0.31
652.543	-13.31
652.576	3.69
652.609	-3.31
652.642	2.69
652.675	9.69
652.709	-4.31
652.742	20.69
652.775	1.69
652.808	21.69
652.841	6.69
652.874	6.69
652.907	10.69
652.94	3.69
652.973	-5.31
653.006	-9.31
653.039	16.69
653.072	29.69
653.105	11.69
653.138	5.69
653.171	2.69
653.204	-9.31
653.237	2.69
653.27	-1.31
653.303	7.69
653.336	7.69
653.368	13.69
653.401	10.69
653.434	4.69
653.467	1.69
653.5	-7.31
653.533	1.69
653.566	-2.31
653.599	-8.31
653.632	18.69
653.665	10.69
653.698	-6.31
653.731	-3.31
653.764	13.69
653.797	7.69
653.83	10.69
653.863	1.69
653.896	7.69
653.929	4.69
653.961	11.69
653.994	5.69
654.027	6.69
654.06	14.69
654.093	-11.31
654.126	4.69
654.159	-6.31
654.192	4.69
654.225	13.69
654.258	4.69
654.29	0.69
654.323	-10.31
654.356	1.69
654.389	5.69
654.422	-2.31
654.455	2.69
654.488	16.69
654.521	-6.31
654.553	-3.31
654.586	33.69
654.619	-5.31
654.652	2.69
654.685	0.69
654.718	10.69
654.751	18.69
654.783	9.69
654.816	14.69
654.849	-0.31
654.882	8.69
654.915	-5.31
654.948	0.69
654.98	25.69
655.013	7.69
655.046	2.69
655.079	8.69
655.112	8.69
655.144	-7.31
655.177	17.69
655.21	4.69
655.243	8.69
655.276	14.69
655.308	-13.31
655.341	-1.31
655.374	10.69
655.407	5.69
655.44	10.69
655.472	13.69
655.505	20.69
655.538	8.69
655.571	23.69
655.603	16.69
655.636	6.69
655.669	18.69
655.702	14.69
655.734	9.69
655.767	22.69
655.8	26.69
655.833	23.69
655.865	32.69
655.898	28.69
655.931	51.69
655.964	50.69
655.996	43.69
656.029	60.69
656.062	62.69
656.095	82.69
656.127	68.69
656.16	94.69
656.193	117.69
656.225	187.69
656.258	285.69
656.291	496.69
656.324	1102.69
656.356	3361.69
656.389	7545.69
656.422	6050.69
656.454	2082.69
656.487	671.69
656.52	264.69
656.552	124.69
656.585	91.69
656.618	63.69
656.65	40.69
656.683	39.69
656.716	33.69
656.748	5.69
656.781	-3.31
656.814	-4.31
656.846	7.69
656.879	-0.31
656.912	7.69
656.944	-0.31
656.977	1.69
657.01	4.69
657.042	4.69
657.075	5.69
657.108	3.69
657.14	-0.31
657.173	21.69
657.205	38.69
657.238	6.69
657.271	-4.31
657.303	-0.31
657.336	1.69
657.369	19.69
657.401	8.69
657.434	5.69
657.466	7.69
657.499	17.69
657.532	-0.31
657.564	10.69
657.597	15.69
657.629	13.69
657.662	22.69
657.694	17.69
657.727	-17.31
657.76	16.69
657.792	6.69
657.825	-7.31
657.857	5.69
657.89	4.69
657.922	2.69
657.955	-2.31
657.987	8.69
658.02	6.69
658.053	1.69
658.085	3.69
658.118	6.69
658.15	11.69
658.183	18.69
658.215	-9.31
658.248	5.69
658.28	-13.31
658.313	21.69
658.345	11.69
658.378	-1.31
658.41	-2.31
658.443	14.69
658.475	7.69
658.508	6.69
658.54	-9.31
658.573	-22.31
658.605	-8.31
658.638	2.69
658.67	8.69
658.703	-3.31
658.735	-5.31
658.768	9.69
658.8	-3.31
658.833	6.69
658.865	7.69
658.898	16.69
658.93	3.69
658.963	0.69
658.995	2.69
659.028	7.69
659.06	-6.31
659.092	13.69
659.125	3.69
659.157	8.69
659.19	-7.31
659.222	-6.31
659.255	10.69
659.287	11.69
659.32	-11.31
659.352	-9.31
659.384	1.69
659.417	9.69
659.449	14.69
659.482	12.69
659.514	6.69
659.546	8.69
659.579	-0.31
659.611	-4.31
659.644	-10.31
659.676	-20.31
659.708	-22.31
659.741	-19.31
659.773	10.69
659.806	0.69
659.838	10.69
659.87	-3.31
659.903	-21.31
659.935	7.69
659.967	14.69
660	10.69
660.032	-7.31
660.065	8.69
660.097	6.69
660.129	-3.31
660.162	-5.31
660.194	9.69
660.226	7.69
660.259	-5.31
660.291	-10.31
660.323	-4.31
660.356	5.69
660.388	-3.31
660.42	1.69
660.453	6.69
660.485	19.69
660.517	14.69
660.55	1.69
660.582	-9.31
660.614	4.69
660.647	13.69
660.679	-1.31
660.711	2.69
660.743	-9.31
660.776	-5.31
660.808	-12.31
660.84	-14.31
660.873	-5.31
660.905	3.69
660.937	12.69
660.969	12.69
661.002	15.69
661.034	21.69
661.066	11.69
661.099	23.69
661.131	29.69
661.163	7.69
661.195	19.69
661.228	35.69
661.26	15.69
661.292	-1.31
661.324	14.69
661.357	19.69
661.389	4.69
661.421	7.69
661.453	-4.31
661.485	13.69
661.518	7.69
661.55	-14.31
661.582	-11.31
661.614	-8.31
661.647	-1.31
661.679	6.69
661.711	2.69
661.743	-5.31
661.775	12.69
661.808	12.69
661.84	-4.31
661.872	9.69
661.904	-5.31
661.936	5.69
661.969	-1.31
662.001	4.69
662.033	17.69
662.065	-8.31
662.097	14.69
662.129	30.69
662.162	0.69
662.194	3.69
662.226	-2.31
662.258	15.69
662.29	-4.31
662.322	-9.31
662.355	-2.31
662.387	28.69
662.419	5.69
662.451	19.69
662.483	27.69
662.515	10.69
662.547	-5.31
662.58	3.69
662.612	5.69
662.644	-6.31
662.676	8.69
662.708	23.69
662.74	8.69
662.772	7.69
662.804	3.69
662.836	19.69
662.869	3.69
662.901	11.69
662.933	3.69
662.965	18.69
662.997	9.69
663.029	-6.31
663.061	5.69
663.093	-1.31
663.125	12.69
663.157	2.69
663.189	-4.31
663.221	0.69
663.254	4.69
663.286	0.69
663.318	-12.31
663.35	-18.31
663.382	4.69
663.414	5.69
663.446	12.69
663.478	-19.31
663.51	22.69
663.542	4.69
663.574	-0.31
663.606	-9.31
663.638	-16.31
663.67	0.69
663.702	3.69
663.734	6.69
663.766	7.69
663.798	9.69
663.83	-9.31
663.862	2.69
663.894	17.69
663.926	-1.31
663.958	11.69
663.99	2.69
664.022	-3.31
664.054	27.69
664.086	-18.31
664.118	-9.31
664.15	-1.31
664.182	-10.31
664.214	-25.31
664.246	1.69
664.278	4.69
664.31	26.69
664.342	17.69
664.374	2.69
664.406	0.69
664.438	-3.31
664.47	14.69
664.502	-1.31
664.534	-4.31
664.566	-2.31
664.598	15.69
664.63	-6.31
664.662	10.69
664.693	1.69
664.725	-7.31
664.757	-9.31
664.789	-11.31
664.821	16.69
664.853	11.69
664.885	13.69
664.917	1.69
664.949	23.69
664.981	33.69
665.013	9.69
665.045	-5.31
665.076	-5.31
665.108	9.69
665.14	8.69
665.172	-4.31
665.204	16.69
665.236	-2.31
665.268	19.69
665.3	6.69
665.331	-8.31
665.363	4.69
665.395	-18.31
665.427	-21.31
665.459	-3.31
665.491	-7.31
665.523	1.69
665.555	2.69
665.586	8.69
665.618	-1.31
665.65	-10.31
665.682	10.69
665.714	19.69
665.746	14.69
665.777	-0.31
665.809	-0.31
665.841	17.69
665.873	-3.31
665.905	10.69
665.937	15.69
665.968	13.69
666	-5.31
666.032	6.69
666.064	4.69
666.096	4.69
666.127	6.69
666.159	28.69
666.191	16.69
666.223	-0.31
666.255	13.69
666.286	13.69
666.318	-5.31
666.35	17.69
666.382	10.69
666.413	-4.31
666.445	-6.31
666.477	-10.31
666.509	-4.31
666.54	-0.31
666.572	-15.31
666.604	-15.31
666.636	3.69
666.667	13.69
666.699	17.69
666.731	4.69
666.763	-1.31
666.794	2.69
666.826	-5.31
666.858	-10.31
666.89	10.69
666.921	8.69
666.953	12.69
666.985	7.69
667.017	28.69
667.048	7.69
667.08	-3.31
667.112	2.69
667.143	-16.31
667.175	13.69
667.207	10.69
667.238	20.69
667.27	8.69
667.302	21.69
667.334	4.69
667.365	10.69
667.397	1.69
667.429	-8.31
667.46	14.69
667.492	8.69
667.524	8.69
667.555	3.69
667.587	10.69
667.619	8.69
667.65	-6.31
667.682	-0.31
667.714	28.69
667.745	8.69
667.777	9.69
667.808	18.69
667.84	8.69
667.872	9.69
667.903	30.69
667.935	-1.31
667.967	15.69
667.998	11.69
668.03	17.69
668.061	16.69
668.093	7.69
668.125	-6.31
668.156	20.69
668.188	-8.31
668.22	9.69
668.251	2.69
668.283	4.69
668.314	7.69
668.346	9.69
668.377	10.69
668.409	-11.31
668.441	14.69
668.472	1.69
668.504	15.69
668.535	13.69
668.567	6.69
668.599	12.69
668.63	7.69
668.662	0.69
668.693	20.69
668.725	4.69
668.756	8.69
668.788	8.69
668.819	7.69
668.851	13.69
668.882	-2.31
668.914	-15.31
668.946	0.69
668.977	0.69
669.009	-6.31
669.04	-23.31
669.072	0.69
669.103	4.69
669.135	-7.31
669.166	1.69
669.198	9.69
669.229	10.69
669.261	7.69
669.292	8.69
669.324	-4.31
669.355	6.69
669.387	10.69
669.418	10.69
669.45	-5.31
669.481	24.69
669.513	1.69
669.544	10.69
669.576	2.69
669.607	10.69
669.639	18.69
669.67	6.69
669.701	8.69
669.733	-3.31
669.764	-12.31
669.796	3.69
669.827	-10.31
669.859	-12.31
669.89	9.69
669.922	13.69
669.953	-2.31
669.985	14.69
670.016	10.69
670.047	3.69
670.079	2.69
670.11	12.69
670.142	2.69
670.173	1.69
670.204	7.69
670.236	-3.31
670.267	-5.31
670.299	1.69
670.33	-2.31
670.362	20.69
670.393	3.69
670.424	21.69
670.456	-15.31
670.487	-0.31
670.518	1.69
670.55	2.69
670.581	-4.31
670.613	10.69
670.644	-0.31
670.675	5.69
670.707	11.69
670.738	4.69
670.769	2.69
670.801	-3.31
670.832	-2.31
670.864	-10.31
670.895	22.69
670.926	3.69
670.958	-4.31
670.989	6.69
671.02	2.69
671.052	15.69
671.083	5.69
671.114	-2.31
671.146	6.69
671.177	18.69
671.208	2.69
671.24	-0.31
671.271	-2.31
671.302	12.69
671.333	4.69
671.365	5.69
671.396	-11.31
671.427	-8.31
671.459	12.69
671.49	5.69
671.521	10.69
671.553	14.69
671.584	18.69
671.615	-1.31
671.646	12.69
671.678	17.69
671.709	1.69
671.74	-11.31
671.771	-3.31
671.803	-0.31
671.834	-4.31
671.865	-5.31
671.896	19.69
671.928	-2.31
671.959	-0.31
671.99	-2.31
672.021	13.69
672.053	1.69
672.084	17.69
672.115	8.69
672.146	2.69
672.178	-18.31
672.209	10.69
672.24	12.69
672.271	29.69
672.303	0.69
672.334	7.69
672.365	0.69
672.396	-14.31
672.427	8.69
672.459	7.69
672.49	9.69
672.521	5.69
672.552	13.69
672.583	18.69
672.615	5.69
672.646	19.69
672.677	6.69
672.708	0.69
672.739	5.69
672.77	17.69
672.802	-0.31
672.833	15.69
672.864	18.69
672.895	-7.31
672.926	10.69
672.957	-7.31
672.989	10.69
673.02	6.69
673.051	3.69
673.082	13.69
673.113	16.69
673.144	3.69
673.175	8.69
673.206	7.69
673.238	-1.31
673.269	-5.31
673.3	2.69
673.331	4.69
673.362	8.69
673.393	-9.31
673.424	-3.31
673.455	4.69
673.487	-0.31
673.518	17.69
673.549	3.69
673.58	-2.31
673.611	-1.31
673.642	0.69
673.673	-8.31
673.704	-5.31
673.735	5.69
673.766	-0.31
673.797	4.69
673.828	11.69
673.86	-3.31
673.891	-10.31
673.922	-15.31
673.953	-11.31
673.984	0.69
674.015	29.69
674.046	3.69
674.077	16.69
674.108	-7.31
674.139	-0.31
674.17	4.69
674.201	-5.31
674.232	-2.31
674.263	-7.31
674.294	2.69
674.325	-1.31
674.356	9.69
674.387	14.69
674.418	21.69
674.449	-7.31
674.48	-13.31
674.511	0.69
674.542	2.69
674.573	-5.31
674.604	1.69
674.635	4.69
674.666	-1.31
674.697	-2.31
674.728	0.69
674.759	8.69
674.79	-10.31
674.821	1.69
674.852	12.69
674.883	1.69
674.914	6.69
674.945	1.69
674.976	7.69
675.007	-3.31
675.038	-14.31
675.069	-2.31
675.1	6.69
675.131	-0.31
675.162	-11.31
675.193	-7.31
675.224	8.69
675.254	5.69
675.285	12.69
675.316	12.69
675.347	-3.31
675.378	7.69
675.409	-1.31
675.44	12.69
675.471	16.69
675.502	3.69
675.533	-1.31
675.564	-12.31
675.595	-7.31
675.625	30.69
675.656	3.69
675.687	5.69
675.718	2.69
675.749	18.69
675.78	22.69
675.811	5.69
675.842	10.69
675.873	4.69
675.903	-0.31
675.934	-11.31
675.965	-12.31
675.996	3.69
676.027	13.69
676.058	3.69
676.089	-12.31
676.119	-0.31
676.15	-1.31
676.181	-3.31
676.212	-0.31
676.243	24.69
676.274	-16.31
676.304	16.69
676.335	-8.31
676.366	-0.31
676.397	-1.31
676.428	0.69
676.459	-2.31
676.489	0.69
676.52	10.69
676.551	-11.31
676.582	-5.31
676.613	21.69
676.643	-2.31
676.674	9.69
676.705	1.69
676.736	2.69
676.767	11.69
676.797	24.69
676.828	14.69
676.859	2.69
676.89	-1.31
676.92	1.69
676.951	4.69
676.982	-1.31
677.013	-5.31
677.044	15.69
677.074	-1.31
677.105	-1.31
677.136	18.69
677.167	15.69
677.197	13.69
677.228	0.69
677.259	-6.31
677.289	8.69
677.32	-8.31
677.351	-9.31
677.382	-19.31
677.412	-12.31
677.443	18.69
677.474	2.69
677.505	4.69
677.535	-1.31
677.566	-1.31
677.597	-28.31
677.627	-4.31
677.658	-17.31
677.689	-12.31
677.72	10.69
677.75	3.69
677.781	-3.31
677.812	-2.31
677.842	1.69
677.873	12.69
677.904	9.69
677.934	-8.31
677.965	-7.31
677.996	-11.31
678.026	-0.31
678.057	-2.31
678.088	5.69
678.118	7.69
678.149	-9.31
678.18	-9.31
678.21	-3.31
678.241	-4.31
678.272	6.69
678.302	-10.31
678.333	13.69
678.363	8.69
678.394	7.69
678.425	4.69
678.455	1.69
678.486	-2.31
678.517	-1.31
678.547	3.69
678.578	-1.31
678.608	-10.31
678.639	5.69
678.67	-0.31
678.7	-16.31
678.731	1.69
678.761	-0.31
678.792	1.69
678.823	15.69
678.853	13.69
678.884	-16.31
678.914	0.69
678.945	-1.31
678.975	-12.31
679.006	1.69
679.037	-3.31
679.067	33.69
679.098	-0.31
679.128	4.69
679.159	-0.31
679.189	-15.31
679.22	-16.31
679.25	-10.31
679.281	7.69
679.312	-13.31
679.342	1.69
679.373	17.69
679.403	7.69
679.434	6.69
679.464	1.69
679.495	12.69
679.525	14.69
679.556	6.69
679.586	18.69
679.617	3.69
679.647	22.69
679.678	5.69
679.708	12.69
679.739	7.69
679.769	7.69
679.8	2.69
679.83	-1.31
679.861	3.69
679.891	-9.31
679.922	-14.31
679.952	-1.31
679.983	-0.31
680.013	5.69
680.044	-14.31
680.074	8.69
680.105	13.69
680.135	22.69
680.165	9.69
680.196	3.69
680.226	-2.31
680.257	1.69
680.287	-4.31
680.318	-6.31
680.348	-12.31
680.379	6.69
680.409	3.69
680.439	-0.31
680.47	10.69
680.5	-6.31
680.531	18.69
680.561	10.69
680.592	4.69
680.622	8.69
680.652	7.69
680.683	4.69
680.713	-6.31
680.744	-4.31
680.774	-16.31
680.804	11.69
680.835	-4.31
680.865	-8.31
680.896	15.69
680.926	15.69
680.956	-6.31
680.987	-1.31
681.017	6.69
681.047	3.69
681.078	4.69
681.108	2.69
681.139	11.69
681.169	-0.31
681.199	3.69
681.23	5.69
681.26	0.69
681.29	14.69
681.321	3.69
681.351	6.69
681.381	-6.31
681.412	0.69
681.442	4.69
681.472	16.69
681.503	14.69
681.533	-3.31
681.563	3.69
681.594	4.69
681.624	-0.31
681.654	1.69
681.685	7.69
681.715	14.69
681.745	10.69
681.775	-0.31
681.806	3.69
681.836	-5.31
681.866	-18.31
681.897	1.69
681.927	-1.31
681.957	-10.31
681.987	5.69
682.018	4.69
682.048	3.69
682.078	18.69
682.109	23.69
682.139	13.69
682.169	2.69
682.199	12.69
682.23	-7.31
682.26	6.69
682.29	-4.31
682.32	-1.31
682.351	1.69
682.381	2.69
682.411	-3.31
682.441	-5.31
682.472	-34.31
682.502	-6.31
682.532	5.69
682.562	3.69
682.592	3.69
682.623	9.69
682.653	-3.31
682.683	-3.31
682.713	3.69
682.743	-0.31
682.774	-1.31
682.804	22.69
682.834	5.69
682.864	-5.31
682.894	-9.31
682.925	-1.31
682.955	2.69
682.985	-0.31
683.015	-6.31
683.045	6.69
683.076	-9.31
683.106	7.69
683.136	8.69
683.166	-7.31
683.196	5.69
683.226	-0.31
683.257	-5.31
683.287	7.69
683.317	-6.31
683.347	-3.31
683.377	-8.31
683.407	14.69
683.437	14.69
683.468	11.69
683.498	-9.31
683.528	-2.31
683.558	4.69
683.588	4.69
683.618	-0.31
683.648	-19.31
683.678	11.69
683.708	13.69
683.739	8.69
683.769	0.69
683.799	10.69
683.829	4.69
683.859	9.69
683.889	11.69
683.919	11.69
683.949	3.69
683.979	11.69
684.009	-3.31
684.039	-8.31
684.07	3.69
684.1	24.69
684.13	12.69
684.16	3.69
684.19	1.69
684.22	-14.31
684.25	5.69
684.28	3.69
684.31	28.69
684.34	26.69
684.37	2.69
684.4	-13.31
684.43	-7.31
684.46	-2.31
684.49	1.69
684.52	-0.31
684.55	6.69
684.58	14.69
684.61	5.69
684.64	8.69
684.67	8.69
684.7	5.69
684.73	4.69
684.76	-5.31
684.79	6.69
684.82	-9.31
684.85	2.69
684.88	16.69
684.91	9.69
684.94	11.69
684.97	-22.31
685	7.69
685.03	1.69
685.06	-9.31
685.09	-8.31
685.12	13.69
685.15	8.69
685.18	8.69
685.21	6.69
685.24	15.69
685.27	13.69
685.3	10.69
685.33	-5.31
685.36	-3.31
685.39	16.69
685.42	-9.31
685.45	-11.31
685.48	-5.31
685.51	1.69
685.54	19.69
685.569	17.69
685.599	-5.31
685.629	-1.31
685.659	-11.31
685.689	-3.31
685.719	8.69
685.749	5.69
685.779	17.69
685.809	10.69
685.839	-3.31
685.869	2.69
685.898	1.69
685.928	16.69
685.958	20.69
685.988	10.69
686.018	3.69
686.048	0.69
686.078	10.69
686.108	4.69
686.137	-8.31
686.167	11.69
686.197	-5.31
686.227	0.69
686.257	31.69
686.287	26.69
686.317	6.69
686.346	-20.31
686.376	-23.31
686.406	-2.31
686.436	8.69
686.466	4.69
686.496	5.69
686.525	3.69
686.555	8.69
686.585	16.69
686.615	26.69
686.645	11.69
686.675	1.69
686.704	-1.31
686.734	-3.31
686.764	3.69
686.794	6.69
686.824	0.69
686.853	10.69
686.883	6.69
686.913	17.69
686.943	-3.31
686.973	10.69
687.002	14.69
687.032	8.69
687.062	4.69
687.092	28.69
687.121	-10.31
687.151	-0.31
687.181	-9.31
687.211	10.69
687.24	5.69
687.27	-1.31
687.3	-13.31
687.33	2.69
687.359	-6.31
687.389	14.69
687.419	-6.31
687.449	-6.31
687.478	8.69
687.508	-2.31
687.538	13.69
687.568	7.69
687.597	4.69
687.627	13.69
687.657	12.69
687.686	8.69
687.716	19.69
687.746	-9.31
687.776	-4.31
687.805	2.69
687.835	-3.31
687.865	14.69
687.894	10.69
687.924	-9.31
687.954	-12.31
687.983	-0.31
688.013	13.69
688.043	11.69
688.072	6.69
688.102	11.69
688.132	-8.31
688.161	11.69
688.191	-7.31
688.221	13.69
688.25	-3.31
688.28	17.69
688.31	-21.31
688.339	-0.31
688.369	-2.31
688.399	5.69
688.428	-3.31
688.458	5.69
688.488	2.69
688.517	6.69
688.547	-16.31
688.576	8.69
688.606	5.69
688.636	-0.31
688.665	1.69
688.695	4.69
688.725	-9.31
688.754	10.69
688.784	3.69
688.813	8.69
688.843	0.69
688.873	-12.31
688.902	-11.31
688.932	11.69
688.961	1.69
688.991	-0.31
689.02	16.69
689.05	7.69
689.08	11.69
689.109	3.69
689.139	-4.31
689.168	9.69
689.198	-7.31
689.227	4.69
689.257	8.69
689.287	27.69
689.316	2.69
689.346	-11.31
689.375	3.69
689.405	15.69
689.434	0.69
689.464	-5.31
689.493	3.69
689.523	-13.31
689.552	9.69
689.582	1.69
689.611	-3.31
689.641	11.69
689.67	11.69
689.7	17.69
689.73	19.69
689.759	0.69
689.789	13.69
689.818	6.69
689.848	5.69
689.877	31.69
689.906	16.69
689.936	-4.31
689.965	0.69
689.995	-0.31
690.024	19.69
690.054	8.69
690.083	-0.31
690.113	-2.31
690.142	4.69
690.172	2.69
690.201	13.69
690.231	2.69
690.26	14.69
690.29	15.69
690.319	10.69
690.348	7.69
690.378	11.69
690.407	29.69
690.437	22.69
690.466	1.69
690.496	5.69
690.525	19.69
690.555	4.69
690.584	1.69
690.613	12.69
690.643	14.69
690.672	19.69
690.702	21.69
690.731	8.69
690.76	18.69
690.79	14.69
690.819	10.69
690.849	-2.31
690.878	5.69
690.907	8.69
690.937	15.69
690.966	12.69
690.996	8.69
691.025	4.69
691.054	3.69
691.084	16.69
691.113	13.69
691.142	11.69
691.172	13.69
691.201	15.69
691.23	1.69
691.26	5.69
691.289	14.69
691.319	-7.31
691.348	-1.31
691.377	18.69
691.407	12.69
691.436	25.69
691.465	-6.31
691.495	9.69
691.524	-7.31
691.553	-12.31
691.583	8.69
691.612	10.69
691.641	13.69
691.67	-12.31
691.7	9.69
691.729	-3.31
691.758	16.69
691.788	6.69
691.817	5.69
691.846	-5.31
691.876	10.69
691.905	12.69
691.934	1.69
691.963	10.69
691.993	6.69
692.022	-1.31
692.051	-1.31
692.081	14.69
692.11	16.69
692.139	-1.31
692.168	12.69
692.198	30.69
692.227	21.69
692.256	22.69
692.285	9.69
692.315	6.69
692.344	6.69
692.373	-6.31
692.402	-20.31
692.432	-3.31
692.461	7.69
692.49	14.69
692.519	-5.31
692.548	29.69
692.578	17.69
692.607	2.69
692.636	5.69
692.665	13.69
692.694	1.69
692.724	5.69
692.753	11.69
692.782	24.69
692.811	-3.31
692.84	12.69
692.87	0.69
692.899	3.69
692.928	0.69
692.957	10.69
692.986	3.69
693.016	11.69
693.045	22.69
693.074	16.69
693.103	6.69
693.132	15.69
693.161	13.69
693.191	10.69
693.22	0.69
693.249	0.69
693.278	-1.31
693.307	12.69
693.336	-2.31
693.365	-16.31
693.395	-3.31
693.424	0.69
693.453	22.69
693.482	8.69
693.511	5.69
693.54	15.69
693.569	-1.31
693.598	3.69
693.628	5.69
693.657	13.69
693.686	33.69
693.715	18.69
693.744	23.69
693.773	12.69
693.802	12.69
693.831	18.69
693.86	28.69
693.889	-4.31
693.919	0.69
693.948	-22.31
693.977	13.69
694.006	-1.31
694.035	0.69
694.064	10.69
694.093	5.69
694.122	8.69
694.151	13.69
694.18	11.69
694.209	16.69
694.238	9.69
694.267	14.69
694.296	7.69
694.325	2.69
694.354	13.69
694.383	11.69
694.412	10.69
694.441	-2.31
694.471	6.69
694.5	1.69
694.529	25.69
694.558	21.69
694.587	13.69
694.616	5.69
694.645	13.69
694.674	10.69
694.703	21.69
694.732	10.69
694.761	4.69
694.79	15.69
694.819	-7.31
694.848	-11.31
694.877	16.69
694.906	35.69
694.935	6.69
694.963	14.69
694.992	12.69
695.021	7.69
695.05	5.69
695.079	9.69
695.108	1.69
695.137	29.69
695.166	11.69
695.195	3.69
695.224	11.69
695.253	14.69
695.282	6.69
695.311	18.69
695.34	3.69
695.369	8.69
695.398	3.69
695.427	8.69
695.456	-0.31
695.485	6.69
695.513	2.69
695.542	15.69
695.571	10.69
695.6	25.69
695.629	16.69
695.658	7.69
695.687	9.69
695.716	-0.31
695.745	24.69
695.774	-2.31
695.802	6.69
695.831	14.69
695.86	20.69
695.889	7.69
695.918	7.69
695.947	-5.31
695.976	2.69
696.005	9.69
696.033	9.69
696.062	13.69
696.091	-0.31
696.12	14.69
696.149	35.69
696.178	1.69
696.207	5.69
696.235	-7.31
696.264	12.69
696.293	2.69
696.322	20.69
696.351	14.69
696.38	-2.31
696.408	12.69
696.437	4.69
696.466	22.69
696.495	15.69
696.524	18.69
696.553	8.69
696.581	22.69
696.61	7.69
696.639	-0.31
696.668	-2.31
696.697	1.69
696.725	16.69
696.754	12.69
696.783	3.69
696.812	-10.31
696.84	3.69
696.869	11.69
696.898	2.69
696.927	-3.31
696.956	19.69
696.984	6.69
697.013	-5.31
697.042	10.69
697.071	-6.31
697.099	12.69
697.128	23.69
697.157	11.69
697.186	4.69
697.214	-11.31
697.243	-2.31
697.272	-0.31
697.301	6.69
697.329	9.69
697.358	-0.31
697.387	28.69
697.415	13.69
697.444	2.69
697.473	15.69
697.502	-4.31
697.53	4.69
697.559	7.69
697.588	10.69
697.616	-7.31
697.645	-11.31
697.674	31.69
697.703	3.69
697.731	22.69
697.76	-4.31
697.789	3.69
697.817	12.69
697.846	23.69
697.875	22.69
697.903	19.69
697.932	13.69
697.961	7.69
697.989	17.69
698.018	6.69
698.047	12.69
698.075	12.69
698.104	1.69
698.133	6.69
698.161	-14.31
698.19	3.69
698.218	20.69
698.247	-5.31
698.276	1.69
698.304	16.69
698.333	16.69
698.362	7.69
698.39	6.69
698.419	12.69
698.447	-1.31
698.476	2.69
698.505	16.69
698.533	10.69
698.562	-2.31
698.591	-4.31
698.619	-3.31
698.648	6.69
698.676	13.69
698.705	3.69
698.733	-1.31
698.762	15.69
698.791	15.69
698.819	8.69
698.848	-2.31
698.876	30.69
698.905	24.69
698.933	19.69
698.962	-11.31
698.991	2.69
699.019	16.69
699.048	6.69
699.076	19.69
699.105	2.69
699.133	17.69
699.162	9.69
699.19	15.69
699.219	1.69
699.248	13.69
699.276	-0.31
699.305	-7.31
699.333	5.69
699.362	15.69
699.39	14.69
699.419	-5.31
699.447	11.69
699.476	10.69
699.504	-4.31
699.533	3.69
699.561	-18.31
699.59	5.69
699.618	-0.31
699.647	-1.31
699.675	2.69
699.704	14.69
699.732	7.69
699.761	6.69
699.789	1.69
699.818	18.69
699.846	-1.31
699.874	-4.31
699.903	0.69
699.931	4.69
699.96	21.69
699.988	8.69
700.017	2.69
700.045	-1.31
700.074	12.69
700.102	9.69
700.13	4.69
700.159	-2.31
700.187	-0.31
700.216	4.69
700.244	-4.31
700.273	26.69
700.301	23.69
700.329	18.69
700.358	28.69
700.386	10.69
700.415	10.69
700.443	17.69
700.472	5.69
700.5	2.69
700.528	4.69
700.557	6.69
700.585	6.69
700.614	-13.31
700.642	24.69
700.67	22.69
700.699	6.69
700.727	-10.31
700.755	12.69
700.784	-1.31
700.812	0.69
700.841	9.69
700.869	-9.31
700.897	-19.31
700.926	-4.31
700.954	-3.31
700.982	10.69
701.011	-0.31
701.039	11.69
701.067	6.69
701.096	4.69
701.124	-4.31
701.152	9.69
701.181	9.69
701.209	1.69
701.237	6.69
701.266	9.69
701.294	0.69
701.322	13.69
701.351	18.69
701.379	2.69
701.407	-5.31
701.435	14.69
701.464	15.69
701.492	19.69
701.52	2.69
701.549	1.69
701.577	5.69
701.605	8.69
701.634	6.69
701.662	16.69
701.69	3.69
701.718	6.69
701.747	5.69
701.775	8.69
701.803	-4.31
701.831	10.69
701.86	9.69
701.888	5.69
701.916	9.69
701.944	17.69
701.973	7.69
702.001	3.69
702.029	-17.31
702.057	-0.31
702.086	-8.31
702.114	-8.31
702.142	9.69
702.17	-0.31
702.199	12.69
702.227	1.69
702.255	-0.31
702.283	6.69
702.311	17.69
702.34	2.69
702.368	3.69
702.396	1.69
702.424	1.69
702.452	-5.31
702.481	-1.31
702.509	2.69
702.537	3.69
702.565	5.69
702.593	-13.31
702.621	11.69
702.65	17.69
702.678	5.69
702.706	-6.31
702.734	-7.31
702.762	15.69
702.79	1.69
702.819	10.69
702.847	4.69
702.875	9.69
702.903	24.69
702.931	-3.31
702.959	-1.31
702.988	11.69
703.016	-4.31
703.044	-0.31
703.072	2.69
703.1	-4.31
703.128	10.69
703.156	1.69
703.184	-0.31
703.212	8.69
703.241	14.69
703.269	19.69
703.297	10.69
703.325	8.69
703.353	17.69
703.381	-2.31
703.409	8.69
703.437	6.69
703.465	-3.31
703.493	4.69
703.522	3.69
703.55	12.69
703.578	13.69
703.606	-1.31
703.634	1.69
703.662	-0.31
703.69	2.69
703.718	-7.31
703.746	8.69
703.774	-4.31
703.802	30.69
703.83	9.69
703.858	-0.31
703.886	-0.31
703.914	3.69
703.942	10.69
703.97	4.69
703.998	-0.31
704.027	14.69
704.055	31.69
704.083	14.69
704.111	3.69
704.139	-5.31
704.167	0.69
704.195	-3.31
704.223	-0.31
704.251	2.69
704.279	15.69
704.307	7.69
704.335	8.69
704.363	9.69
704.391	-12.31
704.419	-0.31
704.447	-0.31
704.475	0.69
704.503	-13.31
704.531	15.69
704.558	22.69
704.586	15.69
704.614	1.69
704.642	16.69
704.67	1.69
704.698	-6.31
704.726	2.69
704.754	-4.31
704.782	6.69
704.81	5.69
704.838	21.69
704.866	8.69
704.894	-7.31
704.922	2.69
704.95	10.69
704.978	20.69
705.006	10.69
705.034	21.69
705.061	0.69
705.089	-2.31
705.117	-1.31
705.145	-4.31
705.173	6.69
705.201	13.69
705.229	15.69
705.257	6.69
705.285	17.69
705.313	10.69
705.34	-1.31
705.368	12.69
705.396	15.69
705.424	14.69
705.452	-6.31
705.48	11.69
705.508	-1.31
705.536	-3.31
705.563	-3.31
705.591	-0.31
705.619	1.69
705.647	-2.31
705.675	8.69
705.703	-0.31
705.731	7.69
705.758	16.69
705.786	7.69
705.814	13.69
705.842	8.69
705.87	10.69
705.898	12.69
705.925	2.69
705.953	0.69
705.981	-3.31
706.009	-1.31
706.037	13.69
706.065	-7.31
706.092	-7.31
706.12	2.69
706.148	-7.31
706.176	-2.31
706.204	3.69
706.231	6.69
706.259	2.69
706.287	-2.31
706.315	10.69
706.342	0.69
706.37	10.69
706.398	2.69
706.426	4.69
706.454	7.69
706.481	19.69
706.509	0.69
706.537	0.69
706.565	-1.31
706.592	6.69
706.62	3.69
706.648	20.69
706.676	-3.31
706.703	3.69
706.731	-3.31
706.759	-7.31
706.787	-0.31
706.814	0.69
706.842	-4.31
706.87	3.69
706.897	1.69
706.925	11.69
706.953	23.69
706.981	26.69
707.008	-3.31
707.036	7.69
707.064	-5.31
707.091	-12.31
707.119	8.69
707.147	1.69
707.174	-9.31
707.202	6.69
707.23	-7.31
707.258	-1.31
707.285	0.69
707.313	-0.31
707.341	-11.31
707.368	3.69
707.396	16.69
707.424	21.69
707.451	-0.31
707.479	13.69
707.507	-4.31
707.534	6.69
707.562	1.69
707.59	2.69
707.617	-1.31
707.645	4.69
707.672	13.69
707.7	0.69
707.728	4.69
707.755	16.69
707.783	20.69
707.811	7.69
707.838	-9.31
707.866	-1.31
707.893	-8.31
707.921	-19.31
707.949	-12.31
707.976	7.69
708.004	-7.31
708.031	-3.31
708.059	-4.31
708.087	-5.31
708.114	-14.31
708.142	-2.31
708.169	-19.31
708.197	-0.31
708.225	-2.31
708.252	-19.31
708.28	-1.31
708.307	11.69
708.335	2.69
708.362	-5.31
708.39	-11.31
708.418	7.69
708.445	-4.31
708.473	-11.31
708.5	3.69
708.528	18.69
708.555	3.69
708.583	10.69
708.61	-2.31
708.638	5.69
708.665	-3.31
708.693	8.69
708.72	-20.31
708.748	-3.31
708.776	-2.31
708.803	18.69
708.831	8.69
708.858	16.69
708.886	1.69
708.913	8.69
708.941	3.69
708.968	18.69
708.996	1.69
709.023	27.69
709.051	-19.31
709.078	-16.31
709.105	-3.31
709.133	13.69
709.16	-0.31
709.188	6.69
709.215	3.69
709.243	7.69
709.27	-0.31
709.298	-7.31
709.325	-6.31
709.353	-0.31
709.38	-2.31
709.408	-2.31
709.435	9.69
709.462	1.69
709.49	-5.31
709.517	0.69
709.545	-6.31
709.572	1.69
709.6	3.69
709.627	-4.31
709.655	2.69
709.682	2.69
709.709	-2.31
709.737	-1.31
709.764	3.69
709.792	20.69
709.819	10.69
709.846	-1.31
709.874	9.69
709.901	25.69
709.929	8.69
709.956	4.69
709.983	2.69
710.011	10.69
710.038	12.69
710.066	7.69
710.093	14.69
710.12	7.69
710.148	-3.31
710.175	-17.31
710.202	-17.31
710.23	12.69
710.257	2.69
710.284	2.69
710.312	-0.31
710.339	7.69
710.366	5.69
710.394	-2.31
710.421	1.69
710.448	1.69
710.476	-18.31
710.503	0.69
710.53	14.69
710.558	14.69
710.585	17.69
710.612	-3.31
710.64	-16.31
710.667	4.69
710.694	-9.31
710.722	-8.31
710.749	-2.31
710.776	2.69
710.804	21.69
710.831	-7.31
710.858	-9.31
710.885	-3.31
710.913	-5.31
710.94	24.69
710.967	-6.31
710.995	-1.31
711.022	6.69
711.049	-9.31
711.076	-19.31
711.104	-0.31
711.131	-5.31
711.158	3.69
711.185	18.69
711.213	-4.31
711.24	-7.31
711.267	2.69
711.294	2.69
711.322	9.69
711.349	-5.31
711.376	1.69
711.403	-0.31
711.431	-2.31
711.458	-6.31
711.485	-3.31
711.512	3.69
711.54	9.69
711.567	4.69
711.594	-6.31
711.621	-12.31
711.648	-20.31
711.676	-2.31
711.703	-1.31
711.73	-10.31
711.757	3.69
711.784	-8.31
711.812	-0.31
711.839	-0.31
711.866	2.69
711.893	6.69
711.92	1.69
711.947	6.69
711.975	8.69
712.002	0.69
712.029	-4.31
712.056	-4.31
712.083	-3.31
712.11	-23.31
712.138	-1.31
712.165	5.69
712.192	-0.31
712.219	-0.31
712.246	-11.31
712.273	-19.31
712.3	-10.31
712.328	10.69
712.355	11.69
712.382	-4.31
712.409	4.69
712.436	-20.31
712.463	13.69
712.49	9.69
712.517	6.69
712.544	4.69
712.572	-7.31
712.599	-6.31
712.626	22.69
712.653	-3.31
712.68	1.69
712.707	10.69
712.734	9.69
712.761	8.69
712.788	-0.31
712.815	7.69
712.842	19.69
712.87	-0.31
712.897	5.69
712.924	-1.31
712.951	8.69
712.978	6.69
713.005	3.69
713.032	11.69
713.059	-0.31
713.086	1.69
713.113	-1.31
713.14	-11.31
713.167	11.69
713.194	3.69
713.221	2.69
713.248	0.69
713.275	-12.31
713.302	-11.31
713.329	5.69
713.356	12.69
713.383	8.69
713.41	15.69
713.437	-9.31
713.464	-2.31
713.491	3.69
713.518	-0.31
713.545	2.69
713.572	1.69
713.599	11.69
713.626	5.69
713.653	10.69
713.68	-2.31
713.707	-5.31
713.734	6.69
713.761	7.69
713.788	12.69
713.815	16.69
713.842	11.69
713.869	0.69
713.896	-4.31
713.923	0.69
713.95	5.69
713.977	-0.31
714.004	2.69
714.031	-5.31
714.058	-3.31
714.085	5.69
714.112	0.69
714.139	10.69
714.165	24.69
714.192	-3.31
714.219	12.69
714.246	14.69
714.273	8.69
714.3	5.69
714.327	-0.31
714.354	14.69
714.381	-4.31
714.408	3.69
714.435	-7.31
714.461	-6.31
714.488	-5.31
714.515	1.69
714.542	2.69
714.569	-11.31
714.596	-1.31
714.623	17.69
714.65	-8.31
714.677	10.69
714.703	-2.31
714.73	-1.31
714.757	4.69
714.784	6.69
714.811	17.69
714.838	-0.31
714.865	-10.31
714.891	1.69
714.918	11.69
714.945	2.69
714.972	4.69
714.999	7.69
715.026	-10.31
715.052	9.69
715.079	3.69
715.106	7.69
715.133	6.69
715.16	7.69
715.187	-3.31
715.213	1.69
715.24	-10.31
715.267	-2.31
715.294	4.69
715.321	-4.31
715.347	-6.31
715.374	-14.31
715.401	-4.31
715.428	-16.31
715.455	-5.31
715.481	5.69
715.508	13.69
715.535	-13.31
715.562	26.69
715.588	4.69
715.615	-13.31
715.642	4.69
715.669	21.69
715.695	13.69
715.722	15.69
715.749	13.69
715.776	12.69
715.802	-0.31
715.829	18.69
715.856	-9.31
715.883	7.69
715.909	-1.31
715.936	-5.31
715.963	-5.31
715.99	-17.31
716.016	-3.31
716.043	-0.31
716.07	-11.31
716.096	-21.31
716.123	8.69
716.15	-3.31
716.177	12.69
716.203	23.69
716.23	4.69
716.257	10.69
716.283	11.69
716.31	11.69
716.337	1.69
716.363	0.69
716.39	-3.31
716.417	8.69
716.443	-1.31
716.47	22.69
716.497	27.69
716.523	7.69
716.55	22.69
716.577	17.69
716.603	15.69
716.63	5.69
716.657	4.69
716.683	-8.31
716.71	-10.31
716.737	-4.31
716.763	7.69
716.79	1.69
716.817	21.69
716.843	22.69
716.87	9.69
716.897	8.69
716.923	8.69
716.95	7.69
716.976	7.69
717.003	-6.31
717.03	6.69
717.056	3.69
717.083	2.69
717.109	-7.31
717.136	12.69
717.163	-1.31
717.189	15.69
717.216	-5.31
717.242	-14.31
717.269	-3.31
717.296	5.69
717.322	9.69
717.349	14.69
717.375	3.69
717.402	-6.31
717.428	-6.31
717.455	6.69
717.481	7.69
717.508	1.69
717.535	1.69
717.561	-3.31
717.588	-3.31
717.614	4.69
717.641	20.69
717.667	2.69
717.694	5.69
717.72	-7.31
717.747	-14.31
717.773	-6.31
717.8	10.69
717.826	12.69
717.853	16.69
717.88	19.69
717.906	-2.31
717.933	-1.31
717.959	3.69
717.986	5.69
718.012	-7.31
718.039	1.69
718.065	11.69
718.092	15.69
718.118	-3.31
718.144	-5.31
718.171	15.69
718.197	31.69
718.224	7.69
718.25	2.69
718.277	21.69
718.303	-0.31
718.33	6.69
718.356	10.69
718.383	-9.31
718.409	-4.31
718.436	8.69
718.462	-4.31
718.489	-9.31
718.515	24.69
718.541	16.69
718.568	13.69
718.594	7.69
718.621	4.69
718.647	-5.31
718.674	15.69
718.7	5.69
718.726	8.69
718.753	1.69
718.779	3.69
718.806	9.69
718.832	3.69
718.858	15.69
718.885	-2.31
718.911	5.69
718.938	11.69
718.964	-4.31
718.99	-1.31
719.017	2.69
719.043	2.69
719.07	11.69
719.096	-8.31
719.122	10.69
719.149	14.69
719.175	-3.31
719.201	1.69
719.228	3.69
719.254	12.69
719.281	12.69
719.307	5.69
719.333	7.69
719.36	9.69
719.386	-0.31
719.412	4.69
719.439	-14.31
719.465	10.69
719.491	-4.31
719.518	2.69
719.544	2.69
719.57	2.69
719.597	11.69
719.623	14.69
719.649	3.69
719.675	-3.31
719.702	4.69
719.728	2.69
719.754	4.69
719.781	-3.31
719.807	-1.31
719.833	0.69
719.86	0.69
719.886	5.69
719.912	17.69
719.938	-4.31
719.965	9.69
719.991	6.69
720.017	8.69
720.044	-10.31
720.07	9.69
720.096	11.69
720.122	16.69
720.149	25.69
720.175	27.69
720.201	6.69
720.227	1.69
720.254	13.69
720.28	2.69
720.306	-13.31
720.332	5.69
720.359	3.69
720.385	21.69
720.411	9.69
720.437	2.69
720.463	1.69
720.49	19.69
720.516	7.69
720.542	13.69
720.568	21.69
720.595	12.69
720.621	-9.31
720.647	-1.31
720.673	20.69
720.699	-7.31
720.725	2.69
720.752	7.69
720.778	14.69
720.804	2.69
720.83	10.69
720.856	1.69
720.883	-1.31
720.909	6.69
720.935	-0.31
720.961	8.69
720.987	20.69
721.013	6.69
721.04	1.69
721.066	10.69
721.092	-5.31
721.118	8.69
721.144	13.69
721.17	0.69
721.196	-2.31
721.223	-9.31
721.249	19.69
721.275	23.69
721.301	5.69
721.327	26.69
721.353	19.69
721.379	14.69
721.405	18.69
721.432	13.69
721.458	3.69
721.484	15.69
721.51	2.69
721.536	2.69
721.562	1.69
721.588	10.69
721.614	0.69
721.64	1.69
721.666	-0.31
721.693	1.69
721.719	3.69
721.745	3.69
721.771	7.69
721.797	15.69
721.823	-1.31
721.849	7.69
721.875	14.69
721.901	18.69
721.927	12.69
721.953	8.69
721.979	13.69
722.005	20.69
722.031	-8.31
722.057	15.69
722.083	7.69
722.109	1.69
722.135	11.69
722.161	2.69
722.187	3.69
722.214	9.69
722.24	10.69
722.266	-7.31
722.292	-7.31
722.318	3.69
722.344	14.69
722.37	9.69
722.396	23.69
722.422	0.69
722.448	-1.31
722.474	-0.31
722.5	-5.31
722.526	4.69
722.552	-4.31
722.578	12.69
722.603	17.69
722.629	2.69
722.655	5.69
722.681	-5.31
722.707	15.69
722.733	-0.31
722.759	3.69
722.785	15.69
722.811	7.69
722.837	16.69
722.863	14.69
722.889	-2.31
722.915	4.69
722.941	-1.31
722.967	-4.31
722.993	4.69
723.019	5.69
723.045	13.69
723.071	9.69
723.097	11.69
723.122	4.69
723.148	7.69
723.174	-6.31
723.2	11.69
723.226	6.69
723.252	-2.31
723.278	-3.31
723.304	5.69
723.33	-3.31
723.356	6.69
723.381	-0.31
723.407	-6.31
723.433	4.69
723.459	2.69
723.485	7.69
723.511	30.69
723.537	20.69
723.563	-1.31
723.588	-4.31
723.614	1.69
723.64	10.69
723.666	5.69
723.692	15.69
723.718	-1.31
723.744	11.69
723.769	4.69
723.795	3.69
723.821	8.69
723.847	6.69
723.873	6.69
723.899	-10.31
723.924	8.69
723.95	-0.31
723.976	-11.31
724.002	11.69
724.028	10.69
724.053	10.69
724.079	-5.31
724.105	8.69
724.131	1.69
724.157	2.69
724.182	7.69
724.208	10.69
724.234	-10.31
724.26	-12.31
724.286	18.69
724.311	1.69
724.337	-12.31
724.363	-6.31
724.389	15.69
724.415	-2.31
724.44	19.69
724.466	7.69
724.492	16.69
724.518	1.69
724.543	-4.31
724.569	13.69
724.595	13.69
724.621	4.69
724.646	-2.31
724.672	3.69
724.698	7.69
724.723	-7.31
724.749	2.69
724.775	13.69
724.801	0.69
724.826	-8.31
724.852	2.69
724.878	13.69
724.904	-9.31
724.929	-1.31
724.955	-14.31
724.981	20.69
725.006	17.69
725.032	24.69
725.058	11.69
725.083	3.69
725.109	4.69
725.135	0.69
725.161	-9.31
725.186	-7.31
725.212	0.69
725.238	4.69
725.263	6.69
725.289	-3.31
725.315	-5.31
725.34	15.69
725.366	17.69
725.392	-9.31
725.417	-6.31
725.443	-8.31
725.468	13.69
725.494	9.69
725.52	19.69
725.545	9.69
725.571	7.69
725.597	24.69
725.622	16.69
725.648	3.69
725.674	18.69
725.699	8.69
725.725	5.69
725.75	19.69
725.776	4.69
725.802	-0.31
725.827	6.69
725.853	12.69
725.878	5.69
725.904	-0.31
725.93	8.69
725.955	-2.31
725.981	-14.31
726.006	-8.31
726.032	20.69
726.057	4.69
726.083	-1.31
726.109	-1.31
726.134	-0.31
726.16	7.69
726.185	2.69
726.211	2.69
726.236	9.69
726.262	5.69
726.288	12.69
726.313	3.69
726.339	10.69
726.364	20.69
726.39	21.69
726.415	-3.31
726.441	-4.31
726.466	4.69
726.492	14.69
726.517	-2.31
726.543	13.69
726.568	-1.31
726.594	19.69
726.619	6.69
726.645	6.69
726.67	16.69
726.696	8.69
726.721	-0.31
726.747	-2.31
726.772	-2.31
726.798	-9.31
726.823	13.69
726.849	1.69
726.874	8.69
726.9	24.69
726.925	8.69
726.951	-2.31
726.976	11.69
727.002	8.69
727.027	7.69
727.053	10.69
727.078	-2.31
727.104	-9.31
727.129	-22.31
727.155	-0.31
727.18	8.69
727.205	0.69
727.231	4.69
727.256	15.69
727.282	5.69
727.307	17.69
727.333	0.69
727.358	-22.31
727.383	-14.31
727.409	-10.31
727.434	14.69
727.46	2.69
727.485	-14.31
727.511	9.69
727.536	-10.31
727.561	-9.31
727.587	-7.31
727.612	-3.31
727.637	-8.31
727.663	-10.31
727.688	29.69
727.714	2.69
727.739	-7.31
727.764	-2.31
727.79	4.69
727.815	0.69
727.841	16.69
727.866	11.69
727.891	2.69
727.917	-4.31
727.942	-12.31
727.967	-9.31
727.993	-8.31
728.018	2.69
728.043	-7.31
728.069	-1.31
728.094	7.69
728.119	6.69
728.145	16.69
728.17	1.69
728.195	1.69
728.221	7.69
728.246	-8.31
728.271	-20.31
728.297	9.69
728.322	9.69
728.347	1.69
728.373	-0.31
728.398	12.69
728.423	-0.31
728.448	0.69
728.474	-6.31
728.499	10.69
728.524	-5.31
728.55	-12.31
728.575	3.69
728.6	16.69
728.625	-6.31
728.651	-9.31
728.676	-23.31
728.701	2.69
728.727	15.69
728.752	11.69
728.777	4.69
728.802	12.69
728.828	-3.31
728.853	7.69
728.878	-3.31
728.903	-11.31
728.929	-9.31
728.954	2.69
728.979	20.69
729.004	-7.31
729.03	-0.31
729.055	-0.31
729.08	-19.31
729.105	-11.31
729.13	5.69
729.156	6.69
729.181	7.69
729.206	-4.31
729.231	-2.31
729.256	-5.31
729.282	-2.31
729.307	5.69
729.332	-10.31
729.357	-0.31
729.382	-20.31
729.408	7.69
729.433	5.69
729.458	19.69
729.483	9.69
729.508	14.69
729.533	-2.31
729.559	6.69
729.584	-12.31
729.609	10.69
729.634	13.69
729.659	-11.31
729.684	-11.31
729.71	22.69
729.735	-1.31
729.76	-0.31
729.785	-3.31
729.81	21.69
729.835	-1.31
729.86	-13.31
729.886	8.69
729.911	5.69
729.936	-6.31
729.961	6.69
729.986	-0.31
730.011	14.69
730.036	11.69
730.061	-0.31
730.086	12.69
730.112	-6.31
730.137	15.69
730.162	5.69
730.187	-8.31
730.212	13.69
730.237	10.69
730.262	2.69
730.287	-1.31
730.312	7.69
730.337	3.69
730.362	24.69
730.387	6.69
730.413	-6.31
730.438	10.69
730.463	-1.31
730.488	1.69
730.513	5.69
730.538	-4.31
730.563	4.69
730.588	1.69
730.613	26.69
730.638	-0.31
730.663	0.69
730.688	21.69
730.713	6.69
730.738	3.69
730.763	7.69
730.788	-5.31
730.813	9.69
730.838	-9.31
730.863	-13.31
730.888	-1.31
730.913	-6.31
730.938	-22.31
730.963	-5.31
730.988	-3.31
731.013	17.69
731.038	5.69
731.063	8.69
731.088	18.69
731.113	7.69
731.138	3.69
731.163	-1.31
731.188	-4.31
731.213	6.69
731.238	10.69
731.263	-9.31
731.288	-6.31
731.313	-3.31
731.338	-2.31
731.363	12.69
731.388	-2.31
731.413	7.69
731.438	3.69
731.463	-7.31
731.487	12.69
731.512	0.69
731.537	2.69
731.562	-1.31
731.587	-3.31
731.612	-10.31
731.637	-10.31
731.662	1.69
731.687	1.69
731.712	-8.31
731.737	10.69
731.762	1.69
731.786	14.69
731.811	24.69
731.836	-3.31
731.861	3.69
731.886	-4.31
731.911	12.69
731.936	32.69
731.961	-1.31
731.986	-9.31
732.01	1.69
732.035	6.69
732.06	21.69
732.085	-0.31
732.11	0.69
732.135	-24.31
732.16	-3.31
732.184	-1.31
732.209	10.69
732.234	11.69
732.259	6.69
732.284	1.69
732.309	-1.31
732.334	-5.31
732.358	-13.31
732.383	-14.31
732.408	-0.31
732.433	1.69
732.458	3.69
732.482	3.69
732.507	-9.31
732.532	13.69
732.557	22.69
732.582	9.69
732.607	0.69
732.631	-1.31
732.656	6.69
732.681	-5.31
732.706	6.69
732.73	5.69
732.755	2.69
732.78	3.69
732.805	16.69
732.83	-1.31
732.854	0.69
732.879	5.69
732.904	-12.31
732.929	-12.31
732.953	12.69
732.978	2.69
733.003	-4.31
733.028	-2.31
733.052	21.69
733.077	6.69
733.102	20.69
733.127	5.69
733.151	4.69
733.176	4.69
733.201	-15.31
733.226	5.69
733.25	6.69
733.275	-5.31
733.3	0.69
733.324	14.69
733.349	7.69
733.374	4.69
733.399	2.69
733.423	-2.31
733.448	-4.31
733.473	-6.31
733.497	-12.31
733.522	-13.31
733.547	10.69
733.571	13.69
733.596	-1.31
733.621	12.69
733.646	-2.31
733.67	5.69
733.695	-22.31
733.72	1.69
733.744	6.69
733.769	3.69
733.794	25.69
733.818	-2.31
733.843	10.69
733.867	-4.31
733.892	1.69
733.917	-10.31
733.941	-13.31
733.966	-16.31
733.991	-5.31
734.015	22.69
734.04	3.69
734.065	13.69
734.089	6.69
734.114	1.69
734.138	13.69
734.163	-3.31
734.188	-2.31
734.212	17.69
734.237	5.69
734.261	-4.31
734.286	-5.31
734.311	-5.31
734.335	-4.31
734.36	-2.31
734.384	5.69
734.409	5.69
734.434	-7.31
734.458	12.69
734.483	-3.31
734.507	-11.31
734.532	-9.31
734.556	1.69
734.581	-0.31
734.606	-7.31
734.63	-7.31
734.655	4.69
734.679	0.69
734.704	-8.31
734.728	-1.31
734.753	-13.31
734.777	-4.31
734.802	-0.31
734.826	14.69
734.851	-7.31
734.876	3.69
734.9	3.69
734.925	2.69
734.949	-4.31
734.974	-9.31
734.998	21.69
735.023	-2.31
735.047	-0.31
735.072	26.69
735.096	-3.31
735.121	3.69
735.145	-2.31
735.17	-20.31
735.194	6.69
735.219	-0.31
735.243	-1.31
735.268	11.69
735.292	15.69
735.317	10.69
735.341	6.69
735.365	-10.31
735.39	27.69
735.414	2.69
735.439	-4.31
735.463	11.69
735.488	13.69
735.512	-0.31
735.537	-3.31
735.561	-3.31
735.586	-6.31
735.61	9.69
735.634	1.69
735.659	1.69
735.683	6.69
735.708	10.69
735.732	-3.31
735.757	6.69
735.781	10.69
735.805	-1.31
735.83	-12.31
735.854	-9.31
735.879	6.69
735.903	9.69
735.927	1.69
735.952	13.69
735.976	6.69
736.001	2.69
736.025	2.69
736.049	7.69
736.074	-2.31
736.098	-22.31
736.123	16.69
736.147	5.69
736.171	0.69
736.196	-9.31
736.22	3.69
736.244	2.69
736.269	1.69
736.293	3.69
736.317	8.69
736.342	9.69
736.366	21.69
736.39	-1.31
736.415	6.69
736.439	2.69
736.463	28.69
736.488	18.69
736.512	-2.31
736.536	-7.31
736.561	11.69
736.585	3.69
736.609	21.69
736.634	0.69
736.658	5.69
736.682	-11.31
736.707	3.69
736.731	-0.31
736.755	4.69
736.78	10.69
736.804	1.69
736.828	-4.31
736.852	-8.31
736.877	8.69
736.901	-4.31
736.925	9.69
736.949	1.69
736.974	-6.31
736.998	0.69
737.022	10.69
737.047	-7.31
737.071	-5.31
737.095	13.69
737.119	16.69
737.144	6.69
737.168	-5.31
737.192	-10.31
737.216	8.69
737.241	7.69
737.265	-4.31
737.289	1.69
737.313	-13.31
737.337	4.69
737.362	4.69
737.386	-6.31
737.41	3.69
737.434	19.69
737.459	8.69
737.483	2.69
737.507	2.69
737.531	12.69
737.555	8.69
737.58	2.69
737.604	11.69
737.628	-3.31
737.652	-0.31
737.676	4.69
737.701	-1.31
737.725	-3.31
737.749	3.69
737.773	8.69
737.797	4.69
737.821	-3.31
737.846	15.69
737.87	37.69
737.894	1.69
737.918	-6.31
737.942	-9.31
737.966	5.69
737.99	11.69
738.015	2.69
738.039	14.69
738.063	5.69
738.087	10.69
738.111	-1.31
738.135	2.69
738.159	5.69
738.184	11.69
738.208	10.69
738.232	6.69
738.256	6.69
738.28	3.69
738.304	9.69
738.328	14.69
738.352	6.69
738.376	-17.31
738.4	-9.31
738.425	19.69
738.449	-0.31
738.473	13.69
738.497	3.69
738.521	0.69
738.545	1.69
738.569	-2.31
738.593	4.69
738.617	6.69
738.641	16.69
738.665	0.69
738.689	4.69
738.713	6.69
738.737	2.69
738.762	12.69
738.786	23.69
738.81	-11.31
738.834	3.69
738.858	0.69
738.882	-3.31
738.906	-2.31
738.93	4.69
738.954	3.69
738.978	-12.31
739.002	4.69
739.026	26.69
739.05	19.69
739.074	-1.31
739.098	29.69
739.122	25.69
739.146	6.69
739.17	14.69
739.194	1.69
739.218	-14.31
739.242	1.69
739.266	-3.31
739.29	5.69
739.314	7.69
739.338	-9.31
739.362	-3.31
739.386	-3.31
739.41	4.69
739.434	-6.31
739.458	10.69
739.482	7.69
739.506	7.69
739.53	0.69
739.554	3.69
739.577	5.69
739.601	9.69
739.625	-0.31
739.649	-0.31
739.673	2.69
739.697	-3.31
739.721	-13.31
739.745	-1.31
739.769	8.69
739.793	-0.31
739.817	10.69
739.841	-0.31
739.865	6.69
739.889	-6.31
739.912	-3.31
739.936	0.69
739.96	-9.31
739.984	10.69
740.008	5.69
740.032	-0.31
740.056	9.69
740.08	8.69
740.104	2.69
740.127	11.69
740.151	22.69
740.175	19.69
740.199	17.69
740.223	48.69
740.247	9.69
740.271	-0.31
740.295	-3.31
740.318	-14.31
740.342	-6.31
740.366	21.69
740.39	18.69
740.414	7.69
740.438	-3.31
740.461	13.69
740.485	-2.31
740.509	1.69
740.533	12.69
740.557	3.69
740.581	-3.31
740.604	-12.31
740.628	9.69
740.652	11.69
740.676	-8.31
740.7	5.69
740.723	-4.31
740.747	-13.31
740.771	-1.31
740.795	-12.31
740.819	6.69
740.842	13.69
740.866	17.69
740.89	24.69
740.914	-12.31
740.938	-10.31
740.961	19.69
740.985	2.69
741.009	1.69
741.033	3.69
741.056	6.69
741.08	3.69
741.104	9.69
741.128	5.69
741.151	27.69
741.175	15.69
741.199	13.69
741.223	-1.31
741.246	-16.31
741.27	1.69
741.294	12.69
741.318	-1.31
741.341	5.69
741.365	4.69
741.389	9.69
741.413	12.69
741.436	13.69
741.46	13.69
741.484	9.69
741.507	5.69
741.531	21.69
741.555	24.69
741.579	4.69
741.602	5.69
741.626	11.69
741.65	2.69
741.673	-6.31
741.697	18.69
741.721	-4.31
741.744	-20.31
741.768	-6.31
741.792	8.69
741.815	-2.31
741.839	15.69
741.863	26.69
741.886	17.69
741.91	13.69
741.934	1.69
741.957	-1.31
741.981	18.69
742.005	5.69
742.028	-6.31
742.052	-12.31
742.075	-3.31
742.099	6.69
742.123	-4.31
742.146	2.69
742.17	6.69
742.194	-21.31
742.217	-2.31
742.241	-3.31
742.264	2.69
742.288	21.69
742.312	11.69
742.335	5.69
742.359	4.69
742.382	4.69
742.406	16.69
742.43	-4.31
742.453	4.69
742.477	-9.31
742.5	10.69
742.524	-0.31
742.548	-2.31
742.571	6.69
742.595	14.69
742.618	2.69
742.642	5.69
742.665	10.69
742.689	-10.31
742.712	5.69
742.736	10.69
742.76	6.69
742.783	5.69
742.807	9.69
742.83	7.69
742.854	-11.31
742.877	13.69
742.901	0.69
742.924	3.69
742.948	21.69
742.971	-2.31
742.995	-6.31
743.018	-9.31
743.042	4.69
743.065	2.69
743.089	4.69
743.112	13.69
743.136	0.69
743.159	-6.31
743.183	3.69
743.206	13.69
743.23	8.69
743.253	4.69
743.277	21.69
743.3	5.69
743.324	10.69
743.347	-7.31
743.371	8.69
743.394	19.69
743.418	26.69
743.441	10.69
743.465	22.69
743.488	-1.31
743.512	-4.31
743.535	-8.31
743.558	9.69
743.582	2.69
743.605	-3.31
743.629	10.69
743.652	10.69
743.676	15.69
743.699	14.69
743.723	19.69
743.746	18.69
743.769	1.69
743.793	-3.31
743.816	-0.31
743.84	14.69
743.863	12.69
743.886	24.69
743.91	22.69
743.933	17.69
743.957	10.69
743.98	-2.31
744.003	13.69
744.027	-1.31
744.05	3.69
744.074	1.69
744.097	-5.31
744.12	2.69
744.144	10.69
744.167	14.69
744.19	-6.31
744.214	-5.31
744.237	-8.31
744.26	17.69
744.284	-0.31
744.307	-3.31
744.331	2.69
744.354	1.69
744.377	-5.31
744.401	-1.31
744.424	-2.31
744.447	-6.31
744.471	2.69
