Data from HighRes_H2_15_09_11_07_2024_HR4C61891__96__15-11-06-001.txt Node

Date: Thu Nov 07 15:11:06 EST 2024
User: crc00042
Spectrometer: HR4C6189
Trigger mode: 4
Integration Time (sec): 1.000000E-1
Scans to average: 1
Electric dark correction enabled: true
Nonlinearity correction enabled: false
Boxcar width: 0
XAxis mode: Wavelengths
Number of Pixels in Spectrum: 3648
>>>>>Begin Spectral Data<<<<<
639.567	-39.92
639.602	-39.92
639.636	-39.92
639.67	-26.92
639.704	4.08
639.738	3.08
639.773	-6.92
639.807	2.08
639.841	-3.92
639.875	18.08
639.909	-2.92
639.943	-14.92
639.978	3.08
640.012	9.08
640.046	2.08
640.08	2.08
640.114	3.08
640.148	-13.92
640.182	-8.92
640.217	7.08
640.251	16.08
640.285	9.08
640.319	-9.92
640.353	5.08
640.387	16.08
640.421	4.08
640.455	1.08
640.49	7.08
640.524	4.08
640.558	6.08
640.592	-2.92
640.626	6.08
640.66	14.08
640.694	-6.92
640.728	7.08
640.762	6.08
640.796	21.08
640.83	18.08
640.865	-3.92
640.899	14.08
640.933	23.08
640.967	20.08
641.001	13.08
641.035	10.08
641.069	12.08
641.103	-5.92
641.137	13.08
641.171	3.08
641.205	7.08
641.239	0.08
641.273	9.08
641.307	14.08
641.341	15.08
641.375	-9.92
641.409	1.08
641.443	0.08
641.477	9.08
641.511	13.08
641.545	0.08
641.579	15.08
641.614	22.08
641.648	23.08
641.682	5.08
641.716	18.08
641.75	10.08
641.784	6.08
641.818	2.08
641.852	21.08
641.886	-4.92
641.919	31.08
641.953	-0.92
641.987	-1.92
642.021	14.08
642.055	10.08
642.089	14.08
642.123	-6.92
642.157	-5.92
642.191	-9.92
642.225	27.08
642.259	11.08
642.293	20.08
642.327	9.08
642.361	5.08
642.395	12.08
642.429	28.08
642.463	14.08
642.497	23.08
642.531	20.08
642.565	16.08
642.599	18.08
642.633	1.08
642.666	14.08
642.7	2.08
642.734	12.08
642.768	-6.92
642.802	7.08
642.836	0.08
642.87	3.08
642.904	9.08
642.938	23.08
642.972	13.08
643.005	9.08
643.039	27.08
643.073	2.08
643.107	9.08
643.141	12.08
643.175	18.08
643.209	10.08
643.243	3.08
643.276	15.08
643.31	8.08
643.344	-2.92
643.378	5.08
643.412	12.08
643.446	9.08
643.48	4.08
643.513	19.08
643.547	8.08
643.581	-3.92
643.615	33.08
643.649	17.08
643.683	19.08
643.716	-15.92
643.75	1.08
643.784	-16.92
643.818	9.08
643.852	6.08
643.886	4.08
643.919	7.08
643.953	2.08
643.987	4.08
644.021	15.08
644.055	17.08
644.088	3.08
644.122	1.08
644.156	-5.92
644.19	12.08
644.224	11.08
644.257	17.08
644.291	14.08
644.325	5.08
644.359	-0.92
644.392	26.08
644.426	15.08
644.46	5.08
644.494	6.08
644.527	-0.92
644.561	6.08
644.595	3.08
644.629	-2.92
644.662	5.08
644.696	43.08
644.73	18.08
644.764	31.08
644.797	0.08
644.831	9.08
644.865	21.08
644.899	2.08
644.932	19.08
644.966	-5.92
645	7.08
645.033	21.08
645.067	9.08
645.101	1.08
645.135	8.08
645.168	-0.92
645.202	-4.92
645.236	-6.92
645.269	5.08
645.303	17.08
645.337	9.08
645.37	-6.92
645.404	9.08
645.438	12.08
645.471	9.08
645.505	26.08
645.539	9.08
645.572	-0.92
645.606	7.08
645.64	4.08
645.673	2.08
645.707	15.08
645.741	13.08
645.774	-0.92
645.808	10.08
645.842	10.08
645.875	13.08
645.909	-6.92
645.943	-9.92
645.976	12.08
646.01	18.08
646.043	9.08
646.077	23.08
646.111	11.08
646.144	13.08
646.178	5.08
646.212	-10.92
646.245	7.08
646.279	11.08
646.312	9.08
646.346	21.08
646.38	-5.92
646.413	11.08
646.447	11.08
646.48	-4.92
646.514	1.08
646.547	-7.92
646.581	4.08
646.615	12.08
646.648	-8.92
646.682	13.08
646.715	6.08
646.749	30.08
646.782	-0.92
646.816	0.08
646.85	1.08
646.883	12.08
646.917	5.08
646.95	-6.92
646.984	8.08
647.017	-3.92
647.051	14.08
647.084	7.08
647.118	1.08
647.151	26.08
647.185	11.08
647.218	2.08
647.252	10.08
647.285	-10.92
647.319	1.08
647.353	13.08
647.386	32.08
647.42	20.08
647.453	21.08
647.487	8.08
647.52	19.08
647.553	16.08
647.587	21.08
647.62	-0.92
647.654	-13.92
647.687	-4.92
647.721	7.08
647.754	5.08
647.788	9.08
647.821	-3.92
647.855	6.08
647.888	22.08
647.922	4.08
647.955	2.08
647.989	9.08
648.022	-19.92
648.055	4.08
648.089	2.08
648.122	14.08
648.156	-3.92
648.189	8.08
648.223	-2.92
648.256	20.08
648.29	24.08
648.323	0.08
648.356	17.08
648.39	5.08
648.423	17.08
648.457	-1.92
648.49	6.08
648.523	6.08
648.557	-11.92
648.59	20.08
648.624	5.08
648.657	-2.92
648.69	22.08
648.724	12.08
648.757	33.08
648.791	19.08
648.824	2.08
648.857	24.08
648.891	10.08
648.924	0.08
648.957	3.08
648.991	-3.92
649.024	16.08
649.057	2.08
649.091	-3.92
649.124	18.08
649.158	21.08
649.191	32.08
649.224	13.08
649.258	-1.92
649.291	1.08
649.324	7.08
649.358	5.08
649.391	-2.92
649.424	11.08
649.458	10.08
649.491	10.08
649.524	11.08
649.557	-7.92
649.591	1.08
649.624	9.08
649.657	-14.92
649.691	17.08
649.724	8.08
649.757	-5.92
649.791	-1.92
649.824	17.08
649.857	13.08
649.89	20.08
649.924	2.08
649.957	5.08
649.99	-3.92
650.023	-0.92
650.057	-10.92
650.09	15.08
650.123	3.08
650.157	21.08
650.19	25.08
650.223	-1.92
650.256	-3.92
650.29	8.08
650.323	23.08
650.356	13.08
650.389	0.08
650.423	-1.92
650.456	15.08
650.489	26.08
650.522	19.08
650.555	14.08
650.589	31.08
650.622	15.08
650.655	19.08
650.688	11.08
650.721	1.08
650.755	15.08
650.788	13.08
650.821	-1.92
650.854	-2.92
650.887	-0.92
650.921	-3.92
650.954	2.08
650.987	6.08
651.02	12.08
651.053	-2.92
651.087	-9.92
651.12	19.08
651.153	34.08
651.186	-1.92
651.219	-8.92
651.252	15.08
651.286	12.08
651.319	2.08
651.352	19.08
651.385	11.08
651.418	18.08
651.451	21.08
651.484	8.08
651.518	7.08
651.551	31.08
651.584	-3.92
651.617	16.08
651.65	18.08
651.683	11.08
651.716	5.08
651.749	1.08
651.783	-6.92
651.816	-3.92
651.849	18.08
651.882	27.08
651.915	20.08
651.948	32.08
651.981	0.08
652.014	-7.92
652.047	0.08
652.08	-7.92
652.114	15.08
652.147	0.08
652.18	1.08
652.213	27.08
652.246	9.08
652.279	0.08
652.312	7.08
652.345	-2.92
652.378	32.08
652.411	22.08
652.444	20.08
652.477	7.08
652.51	6.08
652.543	-8.92
652.576	9.08
652.609	21.08
652.642	9.08
652.675	27.08
652.709	6.08
652.742	17.08
652.775	9.08
652.808	19.08
652.841	19.08
652.874	16.08
652.907	-7.92
652.94	9.08
652.973	-7.92
653.006	-4.92
653.039	9.08
653.072	7.08
653.105	9.08
653.138	2.08
653.171	-8.92
653.204	-5.92
653.237	3.08
653.27	15.08
653.303	9.08
653.336	3.08
653.368	3.08
653.401	4.08
653.434	9.08
653.467	10.08
653.5	1.08
653.533	9.08
653.566	0.08
653.599	-1.92
653.632	14.08
653.665	2.08
653.698	-15.92
653.731	7.08
653.764	-3.92
653.797	-3.92
653.83	17.08
653.863	1.08
653.896	4.08
653.929	6.08
653.961	0.08
653.994	-1.92
654.027	-5.92
654.06	2.08
654.093	5.08
654.126	10.08
654.159	-0.92
654.192	17.08
654.225	-3.92
654.258	5.08
654.29	3.08
654.323	24.08
654.356	5.08
654.389	12.08
654.422	17.08
654.455	5.08
654.488	5.08
654.521	-4.92
654.553	-7.92
654.586	8.08
654.619	15.08
654.652	10.08
654.685	10.08
654.718	0.08
654.751	14.08
654.783	-0.92
654.816	25.08
654.849	7.08
654.882	15.08
654.915	-2.92
654.948	10.08
654.98	-18.92
655.013	-0.92
655.046	-2.92
655.079	-3.92
655.112	18.08
655.144	6.08
655.177	16.08
655.21	28.08
655.243	31.08
655.276	16.08
655.308	5.08
655.341	-5.92
655.374	21.08
655.407	10.08
655.44	10.08
655.472	18.08
655.505	16.08
655.538	20.08
655.571	23.08
655.603	5.08
655.636	24.08
655.669	23.08
655.702	13.08
655.734	21.08
655.767	38.08
655.8	28.08
655.833	34.08
655.865	43.08
655.898	29.08
655.931	37.08
655.964	48.08
655.996	76.08
656.029	81.08
656.062	57.08
656.095	80.08
656.127	73.08
656.16	110.08
656.193	130.08
656.225	193.08
656.258	289.08
656.291	498.08
656.324	1129.08
656.356	3402.08
656.389	7499.08
656.422	6014.08
656.454	2083.08
656.487	690.08
656.52	270.08
656.552	124.08
656.585	78.08
656.618	65.08
656.65	68.08
656.683	27.08
656.716	24.08
656.748	14.08
656.781	7.08
656.814	-0.92
656.846	7.08
656.879	4.08
656.912	24.08
656.944	-1.92
656.977	-18.92
657.01	11.08
657.042	28.08
657.075	36.08
657.108	13.08
657.14	26.08
657.173	27.08
657.205	34.08
657.238	12.08
657.271	12.08
657.303	-22.92
657.336	12.08
657.369	-5.92
657.401	19.08
657.434	4.08
657.466	28.08
657.499	10.08
657.532	11.08
657.564	27.08
657.597	3.08
657.629	22.08
657.662	18.08
657.694	0.08
657.727	1.08
657.76	24.08
657.792	2.08
657.825	4.08
657.857	8.08
657.89	14.08
657.922	23.08
657.955	-4.92
657.987	5.08
658.02	-0.92
658.053	21.08
658.085	-3.92
658.118	2.08
658.15	18.08
658.183	19.08
658.215	16.08
658.248	2.08
658.28	-10.92
658.313	24.08
658.345	15.08
658.378	11.08
658.41	16.08
658.443	18.08
658.475	9.08
658.508	-4.92
658.54	-5.92
658.573	-2.92
658.605	12.08
658.638	-5.92
658.67	-6.92
658.703	-1.92
658.735	2.08
658.768	9.08
658.8	-6.92
658.833	12.08
658.865	13.08
658.898	8.08
658.93	4.08
658.963	9.08
658.995	-14.92
659.028	3.08
659.06	-6.92
659.092	-11.92
659.125	3.08
659.157	30.08
659.19	-15.92
659.222	-0.92
659.255	12.08
659.287	16.08
659.32	11.08
659.352	12.08
659.384	21.08
659.417	-10.92
659.449	10.08
659.482	10.08
659.514	-10.92
659.546	-1.92
659.579	-22.92
659.611	-5.92
659.644	9.08
659.676	8.08
659.708	-0.92
659.741	-9.92
659.773	14.08
659.806	10.08
659.838	9.08
659.87	7.08
659.903	5.08
659.935	4.08
659.967	6.08
660	20.08
660.032	-19.92
660.065	18.08
660.097	5.08
660.129	12.08
660.162	3.08
660.194	28.08
660.226	15.08
660.259	23.08
660.291	11.08
660.323	-0.92
660.356	10.08
660.388	0.08
660.42	7.08
660.453	5.08
660.485	22.08
660.517	27.08
660.55	42.08
660.582	4.08
660.614	-16.92
660.647	10.08
660.679	-3.92
660.711	4.08
660.743	-10.92
660.776	-4.92
660.808	-0.92
660.84	2.08
660.873	3.08
660.905	-1.92
660.937	7.08
660.969	7.08
661.002	2.08
661.034	39.08
661.066	12.08
661.099	27.08
661.131	21.08
661.163	8.08
661.195	0.08
661.228	28.08
661.26	-2.92
661.292	-4.92
661.324	6.08
661.357	-1.92
661.389	10.08
661.421	17.08
661.453	7.08
661.485	-0.92
661.518	3.08
661.55	16.08
661.582	-10.92
661.614	18.08
661.647	20.08
661.679	1.08
661.711	12.08
661.743	2.08
661.775	9.08
661.808	39.08
661.84	8.08
661.872	14.08
661.904	-1.92
661.936	4.08
661.969	-4.92
662.001	-1.92
662.033	26.08
662.065	-9.92
662.097	14.08
662.129	23.08
662.162	2.08
662.194	10.08
662.226	3.08
662.258	14.08
662.29	8.08
662.322	-7.92
662.355	-19.92
662.387	23.08
662.419	25.08
662.451	26.08
662.483	16.08
662.515	7.08
662.547	1.08
662.58	10.08
662.612	13.08
662.644	-9.92
662.676	-2.92
662.708	18.08
662.74	7.08
662.772	10.08
662.804	10.08
662.836	6.08
662.869	-13.92
662.901	9.08
662.933	16.08
662.965	21.08
662.997	13.08
663.029	-14.92
663.061	4.08
663.093	1.08
663.125	15.08
663.157	9.08
663.189	24.08
663.221	19.08
663.254	11.08
663.286	14.08
663.318	12.08
663.35	-13.92
663.382	11.08
663.414	11.08
663.446	1.08
663.478	6.08
663.51	40.08
663.542	-12.92
663.574	4.08
663.606	-2.92
663.638	-19.92
663.67	1.08
663.702	-13.92
663.734	4.08
663.766	5.08
663.798	-0.92
663.83	6.08
663.862	14.08
663.894	30.08
663.926	8.08
663.958	6.08
663.99	8.08
664.022	8.08
664.054	27.08
664.086	0.08
664.118	-3.92
664.15	-1.92
664.182	-1.92
664.214	-8.92
664.246	7.08
664.278	0.08
664.31	22.08
664.342	29.08
664.374	17.08
664.406	9.08
664.438	2.08
664.47	22.08
664.502	13.08
664.534	7.08
664.566	-9.92
664.598	36.08
664.63	9.08
664.662	1.08
664.693	4.08
664.725	-1.92
664.757	7.08
664.789	10.08
664.821	27.08
664.853	24.08
664.885	17.08
664.917	-8.92
664.949	4.08
664.981	17.08
665.013	3.08
665.045	-6.92
665.076	7.08
665.108	18.08
665.14	21.08
665.172	17.08
665.204	3.08
665.236	9.08
665.268	32.08
665.3	8.08
665.331	-4.92
665.363	19.08
665.395	-1.92
665.427	13.08
665.459	15.08
665.491	0.08
665.523	-5.92
665.555	2.08
665.586	4.08
665.618	7.08
665.65	-5.92
665.682	24.08
665.714	10.08
665.746	4.08
665.777	4.08
665.809	16.08
665.841	3.08
665.873	3.08
665.905	-3.92
665.937	22.08
665.968	13.08
666	14.08
666.032	-15.92
666.064	-2.92
666.096	8.08
666.127	13.08
666.159	12.08
666.191	4.08
666.223	11.08
666.255	21.08
666.286	17.08
666.318	3.08
666.35	20.08
666.382	10.08
666.413	4.08
666.445	-18.92
666.477	-14.92
666.509	-8.92
666.54	6.08
666.572	-16.92
666.604	6.08
666.636	4.08
666.667	19.08
666.699	9.08
666.731	2.08
666.763	-12.92
666.794	-5.92
666.826	19.08
666.858	-2.92
666.89	16.08
666.921	16.08
666.953	5.08
666.985	11.08
667.017	10.08
667.048	6.08
667.08	8.08
667.112	-6.92
667.143	-4.92
667.175	10.08
667.207	3.08
667.238	19.08
667.27	12.08
667.302	21.08
667.334	-4.92
667.365	34.08
667.397	19.08
667.429	-3.92
667.46	3.08
667.492	4.08
667.524	12.08
667.555	-1.92
667.587	-0.92
667.619	-0.92
667.65	1.08
667.682	18.08
667.714	16.08
667.745	18.08
667.777	18.08
667.808	21.08
667.84	15.08
667.872	10.08
667.903	26.08
667.935	12.08
667.967	10.08
667.998	18.08
668.03	6.08
668.061	6.08
668.093	11.08
668.125	2.08
668.156	4.08
668.188	5.08
668.22	5.08
668.251	12.08
668.283	19.08
668.314	28.08
668.346	1.08
668.377	-6.92
668.409	6.08
668.441	5.08
668.472	11.08
668.504	2.08
668.535	6.08
668.567	13.08
668.599	8.08
668.63	-2.92
668.662	0.08
668.693	3.08
668.725	9.08
668.756	8.08
668.788	10.08
668.819	10.08
668.851	17.08
668.882	11.08
668.914	24.08
668.946	12.08
668.977	3.08
669.009	5.08
669.04	-1.92
669.072	5.08
669.103	15.08
669.135	19.08
669.166	13.08
669.198	15.08
669.229	12.08
669.261	2.08
669.292	5.08
669.324	11.08
669.355	0.08
669.387	-2.92
669.418	17.08
669.45	0.08
669.481	7.08
669.513	18.08
669.544	17.08
669.576	13.08
669.607	19.08
669.639	16.08
669.67	-1.92
669.701	13.08
669.733	-4.92
669.764	7.08
669.796	2.08
669.827	9.08
669.859	-7.92
669.89	20.08
669.922	18.08
669.953	-7.92
669.985	23.08
670.016	26.08
670.047	-12.92
670.079	5.08
670.11	5.08
670.142	1.08
670.173	1.08
670.204	4.08
670.236	9.08
670.267	4.08
670.299	22.08
670.33	8.08
670.362	-0.92
670.393	-6.92
670.424	2.08
670.456	-0.92
670.487	7.08
670.518	7.08
670.55	1.08
670.581	2.08
670.613	20.08
670.644	8.08
670.675	-4.92
670.707	6.08
670.738	9.08
670.769	-4.92
670.801	5.08
670.832	2.08
670.864	18.08
670.895	8.08
670.926	9.08
670.958	6.08
670.989	12.08
671.02	10.08
671.052	3.08
671.083	12.08
671.114	15.08
671.146	16.08
671.177	5.08
671.208	-7.92
671.24	1.08
671.271	-7.92
671.302	16.08
671.333	1.08
671.365	0.08
671.396	-4.92
671.427	18.08
671.459	15.08
671.49	0.08
671.521	15.08
671.553	9.08
671.584	14.08
671.615	1.08
671.646	4.08
671.678	-7.92
671.709	-11.92
671.74	-22.92
671.771	-3.92
671.803	1.08
671.834	10.08
671.865	14.08
671.896	33.08
671.928	9.08
671.959	-3.92
671.99	-6.92
672.021	6.08
672.053	7.08
672.084	9.08
672.115	-5.92
672.146	-20.92
672.178	-3.92
672.209	4.08
672.24	-0.92
672.271	31.08
672.303	33.08
672.334	10.08
672.365	11.08
672.396	5.08
672.427	4.08
672.459	12.08
672.49	21.08
672.521	21.08
672.552	5.08
672.583	-9.92
672.615	18.08
672.646	12.08
672.677	4.08
672.708	5.08
672.739	8.08
672.77	22.08
672.802	-0.92
672.833	1.08
672.864	4.08
672.895	13.08
672.926	3.08
672.957	-6.92
672.989	0.08
673.02	-1.92
673.051	-2.92
673.082	12.08
673.113	19.08
673.144	26.08
673.175	19.08
673.206	8.08
673.238	-2.92
673.269	-0.92
673.3	-3.92
673.331	6.08
673.362	7.08
673.393	1.08
673.424	16.08
673.455	17.08
673.487	14.08
673.518	5.08
673.549	13.08
673.58	4.08
673.611	6.08
673.642	18.08
673.673	-12.92
673.704	15.08
673.735	21.08
673.766	11.08
673.797	7.08
673.828	5.08
673.86	6.08
673.891	-4.92
673.922	-1.92
673.953	3.08
673.984	10.08
674.015	10.08
674.046	23.08
674.077	10.08
674.108	-5.92
674.139	-10.92
674.17	-16.92
674.201	-5.92
674.232	16.08
674.263	5.08
674.294	0.08
674.325	-7.92
674.356	10.08
674.387	19.08
674.418	3.08
674.449	1.08
674.48	-7.92
674.511	6.08
674.542	11.08
674.573	-1.92
674.604	18.08
674.635	-5.92
674.666	8.08
674.697	-1.92
674.728	-6.92
674.759	13.08
674.79	-9.92
674.821	-1.92
674.852	-3.92
674.883	-2.92
674.914	0.08
674.945	1.08
674.976	2.08
675.007	-9.92
675.038	-11.92
675.069	-9.92
675.1	0.08
675.131	3.08
675.162	6.08
675.193	-1.92
675.224	1.08
675.254	22.08
675.285	17.08
675.316	11.08
675.347	-5.92
675.378	3.08
675.409	0.08
675.44	5.08
675.471	15.08
675.502	15.08
675.533	22.08
675.564	8.08
675.595	7.08
675.625	22.08
675.656	17.08
675.687	13.08
675.718	-9.92
675.749	5.08
675.78	3.08
675.811	8.08
675.842	2.08
675.873	5.08
675.903	4.08
675.934	7.08
675.965	0.08
675.996	-6.92
676.027	-1.92
676.058	-4.92
676.089	-0.92
676.119	13.08
676.15	14.08
676.181	19.08
676.212	0.08
676.243	5.08
676.274	1.08
676.304	23.08
676.335	-17.92
676.366	-1.92
676.397	0.08
676.428	4.08
676.459	9.08
676.489	5.08
676.52	20.08
676.551	8.08
676.582	2.08
676.613	8.08
676.643	12.08
676.674	17.08
676.705	6.08
676.736	8.08
676.767	13.08
676.797	11.08
676.828	15.08
676.859	-4.92
676.89	-4.92
676.92	5.08
676.951	20.08
676.982	6.08
677.013	13.08
677.044	28.08
677.074	25.08
677.105	4.08
677.136	-1.92
677.167	9.08
677.197	22.08
677.228	5.08
677.259	6.08
677.289	-8.92
677.32	-14.92
677.351	-10.92
677.382	2.08
677.412	-5.92
677.443	8.08
677.474	-9.92
677.505	-4.92
677.535	16.08
677.566	-3.92
677.597	7.08
677.627	-17.92
677.658	-5.92
677.689	5.08
677.72	7.08
677.75	8.08
677.781	7.08
677.812	4.08
677.842	17.08
677.873	29.08
677.904	9.08
677.934	8.08
677.965	1.08
677.996	-6.92
678.026	8.08
678.057	9.08
678.088	-6.92
678.118	5.08
678.149	12.08
678.18	9.08
678.21	-3.92
678.241	21.08
678.272	-0.92
678.302	3.08
678.333	9.08
678.363	10.08
678.394	11.08
678.425	2.08
678.455	8.08
678.486	17.08
678.517	6.08
678.547	2.08
678.578	-9.92
678.608	-2.92
678.639	7.08
678.67	14.08
678.7	-14.92
678.731	5.08
678.761	7.08
678.792	13.08
678.823	0.08
678.853	3.08
678.884	-9.92
678.914	19.08
678.945	8.08
678.975	6.08
679.006	16.08
679.037	-5.92
679.067	19.08
679.098	7.08
679.128	-11.92
679.159	-1.92
679.189	6.08
679.22	-6.92
679.25	8.08
679.281	1.08
679.312	-5.92
679.342	11.08
679.373	27.08
679.403	2.08
679.434	2.08
679.464	9.08
679.495	2.08
679.525	-9.92
679.556	-0.92
679.586	7.08
679.617	8.08
679.647	19.08
679.678	10.08
679.708	-2.92
679.739	-0.92
679.769	10.08
679.8	12.08
679.83	8.08
679.861	13.08
679.891	4.08
679.922	1.08
679.952	13.08
679.983	4.08
680.013	11.08
680.044	-8.92
680.074	13.08
680.105	13.08
680.135	20.08
680.165	4.08
680.196	2.08
680.226	12.08
680.257	11.08
680.287	9.08
680.318	2.08
680.348	13.08
680.379	10.08
680.409	15.08
680.439	1.08
680.47	3.08
680.5	15.08
680.531	15.08
680.561	12.08
680.592	5.08
680.622	8.08
680.652	-3.92
680.683	25.08
680.713	-9.92
680.744	-2.92
680.774	-8.92
680.804	17.08
680.835	9.08
680.865	-4.92
680.896	14.08
680.926	26.08
680.956	7.08
680.987	16.08
681.017	-3.92
681.047	9.08
681.078	10.08
681.108	13.08
681.139	1.08
681.169	5.08
681.199	12.08
681.23	20.08
681.26	9.08
681.29	14.08
681.321	0.08
681.351	7.08
681.381	-5.92
681.412	4.08
681.442	4.08
681.472	11.08
681.503	16.08
681.533	20.08
681.563	6.08
681.594	15.08
681.624	28.08
681.654	7.08
681.685	-2.92
681.715	4.08
681.745	6.08
681.775	-4.92
681.806	14.08
681.836	10.08
681.866	-13.92
681.897	2.08
681.927	7.08
681.957	0.08
681.987	13.08
682.018	10.08
682.048	11.08
682.078	0.08
682.109	22.08
682.139	16.08
682.169	5.08
682.199	-2.92
682.23	-9.92
682.26	19.08
682.29	9.08
682.32	1.08
682.351	17.08
682.381	26.08
682.411	13.08
682.441	4.08
682.472	-5.92
682.502	-0.92
682.532	8.08
682.562	5.08
682.592	20.08
682.623	16.08
682.653	12.08
682.683	7.08
682.713	14.08
682.743	4.08
682.774	0.08
682.804	17.08
682.834	15.08
682.864	0.08
682.894	5.08
682.925	-8.92
682.955	8.08
682.985	-6.92
683.015	8.08
683.045	-2.92
683.076	-0.92
683.106	11.08
683.136	16.08
683.166	2.08
683.196	8.08
683.226	-5.92
683.257	3.08
683.287	17.08
683.317	6.08
683.347	9.08
683.377	9.08
683.407	-1.92
683.437	26.08
683.468	20.08
683.498	9.08
683.528	5.08
683.558	1.08
683.588	14.08
683.618	7.08
683.648	-0.92
683.678	7.08
683.708	17.08
683.739	8.08
683.769	19.08
683.799	13.08
683.829	18.08
683.859	11.08
683.889	18.08
683.919	-3.92
683.949	-1.92
683.979	-1.92
684.009	6.08
684.039	9.08
684.07	0.08
684.1	23.08
684.13	2.08
684.16	-7.92
684.19	-3.92
684.22	10.08
684.25	7.08
684.28	-5.92
684.31	19.08
684.34	27.08
684.37	-0.92
684.4	-1.92
684.43	4.08
684.46	9.08
684.49	17.08
684.52	9.08
684.55	11.08
684.58	2.08
684.61	20.08
684.64	17.08
684.67	22.08
684.7	17.08
684.73	27.08
684.76	6.08
684.79	21.08
684.82	4.08
684.85	6.08
684.88	7.08
684.91	16.08
684.94	18.08
684.97	6.08
685	16.08
685.03	-4.92
685.06	1.08
685.09	5.08
685.12	10.08
685.15	-2.92
685.18	24.08
685.21	4.08
685.24	28.08
685.27	19.08
685.3	2.08
685.33	10.08
685.36	-5.92
685.39	15.08
685.42	-2.92
685.45	7.08
685.48	-5.92
685.51	9.08
685.54	9.08
685.569	14.08
685.599	4.08
685.629	10.08
685.659	7.08
685.689	-10.92
685.719	17.08
685.749	-8.92
685.779	15.08
685.809	12.08
685.839	8.08
685.869	11.08
685.898	3.08
685.928	5.08
685.958	8.08
685.988	31.08
686.018	11.08
686.048	-5.92
686.078	24.08
686.108	20.08
686.137	11.08
686.167	20.08
686.197	-2.92
686.227	21.08
686.257	42.08
686.287	0.08
686.317	6.08
686.346	1.08
686.376	-0.92
686.406	1.08
686.436	9.08
686.466	-0.92
686.496	7.08
686.525	13.08
686.555	6.08
686.585	30.08
686.615	32.08
686.645	15.08
686.675	9.08
686.704	3.08
686.734	20.08
686.764	-1.92
686.794	9.08
686.824	8.08
686.853	25.08
686.883	10.08
686.913	24.08
686.943	11.08
686.973	1.08
687.002	23.08
687.032	17.08
687.062	15.08
687.092	23.08
687.121	0.08
687.151	7.08
687.181	2.08
687.211	4.08
687.24	7.08
687.27	10.08
687.3	2.08
687.33	-2.92
687.359	-4.92
687.389	16.08
687.419	4.08
687.449	3.08
687.478	17.08
687.508	7.08
687.538	7.08
687.568	5.08
687.597	4.08
687.627	18.08
687.657	18.08
687.686	-0.92
687.716	11.08
687.746	-7.92
687.776	5.08
687.805	23.08
687.835	1.08
687.865	16.08
687.894	2.08
687.924	-4.92
687.954	15.08
687.983	14.08
688.013	22.08
688.043	28.08
688.072	11.08
688.102	13.08
688.132	20.08
688.161	5.08
688.191	0.08
688.221	19.08
688.25	1.08
688.28	8.08
688.31	-3.92
688.339	5.08
688.369	-8.92
688.399	10.08
688.428	5.08
688.458	6.08
688.488	-14.92
688.517	11.08
688.547	-2.92
688.576	46.08
688.606	31.08
688.636	-12.92
688.665	21.08
688.695	13.08
688.725	27.08
688.754	12.08
688.784	9.08
688.813	28.08
688.843	8.08
688.873	2.08
688.902	-10.92
688.932	-2.92
688.961	4.08
688.991	30.08
689.02	19.08
689.05	9.08
689.08	20.08
689.109	14.08
689.139	8.08
689.168	-6.92
689.198	-5.92
689.227	6.08
689.257	-4.92
689.287	3.08
689.316	3.08
689.346	-5.92
689.375	1.08
689.405	-5.92
689.434	1.08
689.464	7.08
689.493	0.08
689.523	7.08
689.552	5.08
689.582	11.08
689.611	7.08
689.641	6.08
689.67	5.08
689.7	10.08
689.73	22.08
689.759	8.08
689.789	17.08
689.818	-4.92
689.848	7.08
689.877	23.08
689.906	12.08
689.936	11.08
689.965	19.08
689.995	14.08
690.024	6.08
690.054	7.08
690.083	11.08
690.113	0.08
690.142	4.08
690.172	6.08
690.201	-6.92
690.231	10.08
690.26	21.08
690.29	8.08
690.319	43.08
690.348	14.08
690.378	4.08
690.407	11.08
690.437	2.08
690.466	0.08
690.496	4.08
690.525	13.08
690.555	1.08
690.584	5.08
690.613	-0.92
690.643	11.08
690.672	-0.92
690.702	9.08
690.731	4.08
690.76	-4.92
690.79	-2.92
690.819	12.08
690.849	6.08
690.878	5.08
690.907	0.08
690.937	18.08
690.966	23.08
690.996	8.08
691.025	1.08
691.054	0.08
691.084	15.08
691.113	15.08
691.142	15.08
691.172	18.08
691.201	19.08
691.23	10.08
691.26	16.08
691.289	14.08
691.319	2.08
691.348	-1.92
691.377	8.08
691.407	5.08
691.436	11.08
691.465	14.08
691.495	6.08
691.524	-1.92
691.553	13.08
691.583	13.08
691.612	13.08
691.641	6.08
691.67	-2.92
691.7	8.08
691.729	-6.92
691.758	-0.92
691.788	1.08
691.817	-2.92
691.846	-22.92
691.876	8.08
691.905	11.08
691.934	4.08
691.963	23.08
691.993	10.08
692.022	3.08
692.051	-21.92
692.081	5.08
692.11	13.08
692.139	5.08
692.168	3.08
692.198	20.08
692.227	19.08
692.256	6.08
692.285	3.08
692.315	-4.92
692.344	10.08
692.373	10.08
692.402	-16.92
692.432	-2.92
692.461	-18.92
692.49	-7.92
692.519	11.08
692.548	25.08
692.578	8.08
692.607	9.08
692.636	12.08
692.665	13.08
692.694	6.08
692.724	8.08
692.753	21.08
692.782	17.08
692.811	-0.92
692.84	5.08
692.87	9.08
692.899	-3.92
692.928	7.08
692.957	6.08
692.986	8.08
693.016	8.08
693.045	8.08
693.074	2.08
693.103	2.08
693.132	11.08
693.161	-1.92
693.191	8.08
693.22	-13.92
693.249	-7.92
693.278	-3.92
693.307	20.08
693.336	-2.92
693.365	-8.92
693.395	11.08
693.424	13.08
693.453	1.08
693.482	2.08
693.511	13.08
693.54	10.08
693.569	-0.92
693.598	4.08
693.628	23.08
693.657	16.08
693.686	29.08
693.715	15.08
693.744	5.08
693.773	19.08
693.802	16.08
693.831	11.08
693.86	17.08
693.889	-13.92
693.919	7.08
693.948	4.08
693.977	2.08
694.006	10.08
694.035	11.08
694.064	-2.92
694.093	17.08
694.122	1.08
694.151	8.08
694.18	22.08
694.209	38.08
694.238	21.08
694.267	24.08
694.296	5.08
694.325	13.08
694.354	17.08
694.383	19.08
694.412	20.08
694.441	-1.92
694.471	-3.92
694.5	-6.92
694.529	7.08
694.558	28.08
694.587	34.08
694.616	6.08
694.645	8.08
694.674	17.08
694.703	22.08
694.732	11.08
694.761	28.08
694.79	11.08
694.819	-6.92
694.848	11.08
694.877	30.08
694.906	29.08
694.935	20.08
694.963	21.08
694.992	14.08
695.021	11.08
695.05	7.08
695.079	14.08
695.108	0.08
695.137	24.08
695.166	10.08
695.195	-10.92
695.224	6.08
695.253	7.08
695.282	12.08
695.311	10.08
695.34	10.08
695.369	5.08
695.398	18.08
695.427	24.08
695.456	7.08
695.485	15.08
695.513	16.08
695.542	9.08
695.571	10.08
695.6	14.08
695.629	14.08
695.658	15.08
695.687	16.08
695.716	18.08
695.745	18.08
695.774	-1.92
695.802	-1.92
695.831	22.08
695.86	24.08
695.889	19.08
695.918	-3.92
695.947	-6.92
695.976	9.08
696.005	5.08
696.033	12.08
696.062	19.08
696.091	10.08
696.12	14.08
696.149	26.08
696.178	10.08
696.207	10.08
696.235	2.08
696.264	8.08
696.293	0.08
696.322	5.08
696.351	14.08
696.38	0.08
696.408	13.08
696.437	17.08
696.466	5.08
696.495	27.08
696.524	20.08
696.553	16.08
696.581	5.08
696.61	15.08
696.639	0.08
696.668	6.08
696.697	-8.92
696.725	6.08
696.754	7.08
696.783	-14.92
696.812	6.08
696.84	18.08
696.869	14.08
696.898	-4.92
696.927	8.08
696.956	14.08
696.984	-7.92
697.013	2.08
697.042	-0.92
697.071	9.08
697.099	10.08
697.128	21.08
697.157	-1.92
697.186	4.08
697.214	-0.92
697.243	-4.92
697.272	-7.92
697.301	17.08
697.329	11.08
697.358	-1.92
697.387	21.08
697.415	9.08
697.444	7.08
697.473	17.08
697.502	7.08
697.53	19.08
697.559	7.08
697.588	0.08
697.616	12.08
697.645	17.08
697.674	18.08
697.703	11.08
697.731	22.08
697.76	21.08
697.789	-11.92
697.817	-2.92
697.846	14.08
697.875	9.08
697.903	19.08
697.932	17.08
697.961	-3.92
697.989	22.08
698.018	27.08
698.047	21.08
698.075	23.08
698.104	8.08
698.133	13.08
698.161	3.08
698.19	3.08
698.218	5.08
698.247	8.08
698.276	4.08
698.304	20.08
698.333	18.08
698.362	9.08
698.39	17.08
698.419	18.08
698.447	2.08
698.476	8.08
698.505	0.08
698.533	6.08
698.562	5.08
698.591	-0.92
698.619	-0.92
698.648	13.08
698.676	16.08
698.705	6.08
698.733	-8.92
698.762	12.08
698.791	4.08
698.819	-6.92
698.848	7.08
698.876	13.08
698.905	11.08
698.933	14.08
698.962	0.08
698.991	-1.92
699.019	24.08
699.048	9.08
699.076	7.08
699.105	4.08
699.133	8.08
699.162	1.08
699.19	18.08
699.219	13.08
699.248	7.08
699.276	9.08
699.305	7.08
699.333	21.08
699.362	2.08
699.39	6.08
699.419	1.08
699.447	10.08
699.476	6.08
699.504	3.08
699.533	13.08
699.561	-13.92
699.59	16.08
699.618	8.08
699.647	-1.92
699.675	-5.92
699.704	11.08
699.732	4.08
699.761	15.08
699.789	7.08
699.818	13.08
699.846	16.08
699.874	9.08
699.903	2.08
699.931	12.08
699.96	-2.92
699.988	10.08
700.017	14.08
700.045	19.08
700.074	9.08
700.102	-1.92
700.13	5.08
700.159	18.08
700.187	7.08
700.216	14.08
700.244	1.08
700.273	6.08
700.301	15.08
700.329	14.08
700.358	9.08
700.386	13.08
700.415	10.08
700.443	12.08
700.472	18.08
700.5	16.08
700.528	9.08
700.557	8.08
700.585	2.08
700.614	13.08
700.642	12.08
700.67	37.08
700.699	25.08
700.727	6.08
700.755	-5.92
700.784	9.08
700.812	4.08
700.841	13.08
700.869	16.08
700.897	-2.92
700.926	15.08
700.954	-1.92
700.982	21.08
701.011	19.08
701.039	12.08
701.067	-8.92
701.096	12.08
701.124	-0.92
701.152	2.08
701.181	7.08
701.209	-1.92
701.237	7.08
701.266	5.08
701.294	-12.92
701.322	11.08
701.351	11.08
701.379	1.08
701.407	0.08
701.435	16.08
701.464	17.08
701.492	30.08
701.52	-0.92
701.549	4.08
701.577	3.08
701.605	4.08
701.634	13.08
701.662	7.08
701.69	-15.92
701.718	-7.92
701.747	-9.92
701.775	0.08
701.803	16.08
701.831	24.08
701.86	6.08
701.888	14.08
701.916	2.08
701.944	-4.92
701.973	7.08
702.001	0.08
702.029	-6.92
702.057	-0.92
702.086	-14.92
702.114	-5.92
702.142	4.08
702.17	4.08
702.199	3.08
702.227	1.08
702.255	-1.92
702.283	11.08
702.311	3.08
702.34	1.08
702.368	-18.92
702.396	2.08
702.424	1.08
702.452	3.08
702.481	15.08
702.509	10.08
702.537	5.08
702.565	15.08
702.593	-10.92
702.621	0.08
702.65	17.08
702.678	-2.92
702.706	18.08
702.734	2.08
702.762	24.08
702.79	10.08
702.819	14.08
702.847	8.08
702.875	13.08
702.903	22.08
702.931	-2.92
702.959	0.08
702.988	6.08
703.016	-2.92
703.044	7.08
703.072	-17.92
703.1	-5.92
703.128	19.08
703.156	3.08
703.184	1.08
703.212	2.08
703.241	5.08
703.269	5.08
703.297	7.08
703.325	5.08
703.353	-8.92
703.381	-1.92
703.409	5.08
703.437	-7.92
703.465	19.08
703.493	1.08
703.522	11.08
703.55	13.08
703.578	10.08
703.606	-3.92
703.634	11.08
703.662	2.08
703.69	11.08
703.718	7.08
703.746	18.08
703.774	15.08
703.802	12.08
703.83	6.08
703.858	2.08
703.886	2.08
703.914	-10.92
703.942	19.08
703.97	11.08
703.998	-2.92
704.027	14.08
704.055	28.08
704.083	5.08
704.111	2.08
704.139	16.08
704.167	8.08
704.195	2.08
704.223	0.08
704.251	3.08
704.279	1.08
704.307	9.08
704.335	-15.92
704.363	13.08
704.391	6.08
704.419	-0.92
704.447	2.08
704.475	12.08
704.503	13.08
704.531	9.08
704.558	10.08
704.586	6.08
704.614	4.08
704.642	-11.92
704.67	-22.92
704.698	0.08
704.726	16.08
704.754	-0.92
704.782	6.08
704.81	7.08
704.838	22.08
704.866	19.08
704.894	-3.92
704.922	8.08
704.95	21.08
704.978	16.08
705.006	9.08
705.034	10.08
705.061	-4.92
705.089	-0.92
705.117	-0.92
705.145	0.08
705.173	7.08
705.201	12.08
705.229	11.08
705.257	13.08
705.285	8.08
705.313	17.08
705.34	11.08
705.368	12.08
705.396	9.08
705.424	17.08
705.452	8.08
705.48	9.08
705.508	-6.92
705.536	-2.92
705.563	-1.92
705.591	28.08
705.619	4.08
705.647	-7.92
705.675	0.08
705.703	5.08
705.731	-5.92
705.758	3.08
705.786	6.08
705.814	8.08
705.842	2.08
705.87	15.08
705.898	23.08
705.925	8.08
705.953	14.08
705.981	2.08
706.009	2.08
706.037	3.08
706.065	4.08
706.092	0.08
706.12	11.08
706.148	4.08
706.176	-0.92
706.204	6.08
706.231	4.08
706.259	2.08
706.287	13.08
706.315	9.08
706.342	0.08
706.37	4.08
706.398	17.08
706.426	7.08
706.454	4.08
706.481	14.08
706.509	6.08
706.537	-5.92
706.565	-9.92
706.592	16.08
706.62	7.08
706.648	13.08
706.676	-10.92
706.703	8.08
706.731	1.08
706.759	7.08
706.787	6.08
706.814	2.08
706.842	0.08
706.87	0.08
706.897	5.08
706.925	4.08
706.953	2.08
706.981	26.08
707.008	4.08
707.036	-0.92
707.064	15.08
707.091	-6.92
707.119	5.08
707.147	7.08
707.174	6.08
707.202	14.08
707.23	-4.92
707.258	5.08
707.285	-1.92
707.313	-2.92
707.341	-0.92
707.368	-7.92
707.396	4.08
707.424	14.08
707.451	9.08
707.479	9.08
707.507	-10.92
707.534	3.08
707.562	-1.92
707.59	-13.92
707.617	0.08
707.645	-10.92
707.672	-1.92
707.7	-2.92
707.728	0.08
707.755	7.08
707.783	13.08
707.811	6.08
707.838	-2.92
707.866	6.08
707.893	11.08
707.921	-6.92
707.949	-3.92
707.976	3.08
708.004	11.08
708.031	14.08
708.059	8.08
708.087	1.08
708.114	6.08
708.142	10.08
708.169	-1.92
708.197	-7.92
708.225	1.08
708.252	8.08
708.28	16.08
708.307	10.08
708.335	11.08
708.362	-3.92
708.39	-1.92
708.418	10.08
708.445	-2.92
708.473	0.08
708.5	2.08
708.528	23.08
708.555	5.08
708.583	10.08
708.61	11.08
708.638	14.08
708.665	-10.92
708.693	3.08
708.72	-1.92
708.748	3.08
708.776	26.08
708.803	11.08
708.831	17.08
708.858	18.08
708.886	18.08
708.913	0.08
708.941	-1.92
708.968	17.08
708.996	-11.92
709.023	34.08
709.051	15.08
709.078	6.08
709.105	25.08
709.133	11.08
709.16	5.08
709.188	25.08
709.215	12.08
709.243	13.08
709.27	-0.92
709.298	6.08
709.325	-18.92
709.353	12.08
709.38	18.08
709.408	-2.92
709.435	2.08
709.462	-2.92
709.49	0.08
709.517	-2.92
709.545	-1.92
709.572	-3.92
709.6	1.08
709.627	-0.92
709.655	4.08
709.682	5.08
709.709	6.08
709.737	6.08
709.764	10.08
709.792	36.08
709.819	10.08
709.846	1.08
709.874	16.08
709.901	13.08
709.929	30.08
709.956	21.08
709.983	-10.92
710.011	-4.92
710.038	-1.92
710.066	14.08
710.093	9.08
710.12	2.08
710.148	5.08
710.175	-5.92
710.202	9.08
710.23	10.08
710.257	4.08
710.284	9.08
710.312	9.08
710.339	4.08
710.366	5.08
710.394	1.08
710.421	11.08
710.448	1.08
710.476	1.08
710.503	18.08
710.53	11.08
710.558	22.08
710.585	15.08
710.612	-4.92
710.64	13.08
710.667	2.08
710.694	-1.92
710.722	-3.92
710.749	-1.92
710.776	8.08
710.804	15.08
710.831	12.08
710.858	-5.92
710.885	-3.92
710.913	-0.92
710.94	16.08
710.967	11.08
710.995	12.08
711.022	4.08
711.049	15.08
711.076	-7.92
711.104	16.08
711.131	-10.92
711.158	9.08
711.185	20.08
711.213	-1.92
711.24	17.08
711.267	-4.92
711.294	6.08
711.322	13.08
711.349	-1.92
711.376	1.08
711.403	4.08
711.431	6.08
711.458	-11.92
711.485	5.08
711.512	7.08
711.54	5.08
711.567	4.08
711.594	3.08
711.621	7.08
711.648	6.08
711.676	18.08
711.703	-3.92
711.73	1.08
711.757	8.08
711.784	1.08
711.812	3.08
711.839	1.08
711.866	12.08
711.893	-0.92
711.92	17.08
711.947	16.08
711.975	27.08
712.002	7.08
712.029	15.08
712.056	4.08
712.083	7.08
712.11	-14.92
712.138	11.08
712.165	2.08
712.192	7.08
712.219	-6.92
712.246	3.08
712.273	1.08
712.3	-0.92
712.328	-2.92
712.355	6.08
712.382	-0.92
712.409	25.08
712.436	-1.92
712.463	19.08
712.49	17.08
712.517	3.08
712.544	9.08
712.572	4.08
712.599	-2.92
712.626	9.08
712.653	1.08
712.68	-6.92
712.707	6.08
712.734	17.08
712.761	13.08
712.788	18.08
712.815	4.08
712.842	15.08
712.87	11.08
712.897	2.08
712.924	-7.92
712.951	5.08
712.978	22.08
713.005	16.08
713.032	17.08
713.059	25.08
713.086	18.08
713.113	9.08
713.14	4.08
713.167	14.08
713.194	3.08
713.221	9.08
713.248	19.08
713.275	-2.92
713.302	1.08
713.329	1.08
713.356	28.08
713.383	14.08
713.41	1.08
713.437	0.08
713.464	2.08
713.491	21.08
713.518	14.08
713.545	11.08
713.572	-9.92
713.599	16.08
713.626	2.08
713.653	14.08
713.68	-0.92
713.707	4.08
713.734	9.08
713.761	-2.92
713.788	-7.92
713.815	18.08
713.842	-0.92
713.869	-0.92
713.896	-3.92
713.923	11.08
713.95	-1.92
713.977	5.08
714.004	7.08
714.031	-4.92
714.058	-3.92
714.085	2.08
714.112	18.08
714.139	3.08
714.165	14.08
714.192	9.08
714.219	18.08
714.246	9.08
714.273	12.08
714.3	-2.92
714.327	-0.92
714.354	8.08
714.381	0.08
714.408	3.08
714.435	-6.92
714.461	-3.92
714.488	13.08
714.515	-6.92
714.542	-0.92
714.569	5.08
714.596	-0.92
714.623	2.08
714.65	-7.92
714.677	3.08
714.703	5.08
714.73	14.08
714.757	16.08
714.784	8.08
714.811	-7.92
714.838	-1.92
714.865	6.08
714.891	5.08
714.918	11.08
714.945	-0.92
714.972	13.08
714.999	14.08
715.026	6.08
715.052	11.08
715.079	15.08
715.106	8.08
715.133	19.08
715.16	4.08
715.187	3.08
715.213	9.08
715.24	5.08
715.267	-1.92
715.294	4.08
715.321	-7.92
715.347	-9.92
715.374	-5.92
715.401	-5.92
715.428	7.08
715.455	14.08
715.481	-16.92
715.508	15.08
715.535	-1.92
715.562	14.08
715.588	10.08
715.615	-1.92
715.642	4.08
715.669	11.08
715.695	-12.92
715.722	-6.92
715.749	19.08
715.776	14.08
715.802	14.08
715.829	12.08
715.856	-6.92
715.883	-3.92
715.909	-4.92
715.936	-6.92
715.963	3.08
715.99	-7.92
716.016	17.08
716.043	15.08
716.07	9.08
716.096	0.08
716.123	4.08
716.15	8.08
716.177	13.08
716.203	13.08
716.23	19.08
716.257	16.08
716.283	1.08
716.31	16.08
716.337	6.08
716.363	18.08
716.39	24.08
716.417	16.08
716.443	10.08
716.47	4.08
716.497	28.08
716.523	20.08
716.55	13.08
716.577	17.08
716.603	2.08
716.63	4.08
716.657	19.08
716.683	-20.92
716.71	1.08
716.737	0.08
716.763	10.08
716.79	6.08
716.817	18.08
716.843	14.08
716.87	5.08
716.897	9.08
716.923	21.08
716.95	18.08
716.976	0.08
717.003	-5.92
717.03	6.08
717.056	16.08
717.083	9.08
717.109	2.08
717.136	26.08
717.163	-2.92
717.189	22.08
717.216	13.08
717.242	12.08
717.269	8.08
717.296	7.08
717.322	33.08
717.349	13.08
717.375	1.08
717.402	8.08
717.428	10.08
717.455	12.08
717.481	4.08
717.508	16.08
717.535	6.08
717.561	-0.92
717.588	-5.92
717.614	2.08
717.641	5.08
717.667	11.08
717.694	4.08
717.72	5.08
717.747	1.08
717.773	2.08
717.8	9.08
717.826	0.08
717.853	6.08
717.88	15.08
717.906	15.08
717.933	8.08
717.959	19.08
717.986	-3.92
718.012	11.08
718.039	28.08
718.065	20.08
718.092	-7.92
718.118	-1.92
718.144	-0.92
718.171	25.08
718.197	26.08
718.224	14.08
718.25	5.08
718.277	10.08
718.303	19.08
718.33	13.08
718.356	-4.92
718.383	-10.92
718.409	5.08
718.436	11.08
718.462	-3.92
718.489	-4.92
718.515	30.08
718.541	7.08
718.568	15.08
718.594	10.08
718.621	4.08
718.647	11.08
718.674	7.08
718.7	7.08
718.726	1.08
718.753	5.08
718.779	8.08
718.806	-1.92
718.832	8.08
718.858	7.08
718.885	4.08
718.911	13.08
718.938	30.08
718.964	-1.92
718.99	-1.92
719.017	18.08
719.043	23.08
719.07	21.08
719.096	-9.92
719.122	2.08
719.149	1.08
719.175	7.08
719.201	5.08
719.228	-0.92
719.254	21.08
719.281	5.08
719.307	9.08
719.333	-9.92
719.36	25.08
719.386	11.08
719.412	8.08
719.439	-14.92
719.465	-1.92
719.491	-3.92
719.518	1.08
719.544	10.08
719.57	15.08
719.597	16.08
719.623	6.08
719.649	16.08
719.675	5.08
719.702	5.08
719.728	14.08
719.754	6.08
719.781	17.08
719.807	3.08
719.833	8.08
719.86	10.08
719.886	-1.92
719.912	4.08
719.938	3.08
719.965	15.08
719.991	21.08
720.017	-0.92
720.044	-7.92
720.07	17.08
720.096	8.08
720.122	-5.92
720.149	7.08
720.175	32.08
720.201	5.08
720.227	6.08
720.254	14.08
720.28	12.08
720.306	9.08
720.332	16.08
720.359	2.08
720.385	8.08
720.411	11.08
720.437	-6.92
720.463	-8.92
720.49	0.08
720.516	-8.92
720.542	-2.92
720.568	5.08
720.595	3.08
720.621	4.08
720.647	5.08
720.673	24.08
720.699	13.08
720.725	6.08
720.752	21.08
720.778	17.08
720.804	23.08
720.83	5.08
720.856	-0.92
720.883	6.08
720.909	3.08
720.935	19.08
720.961	4.08
720.987	-15.92
721.013	6.08
721.04	-4.92
721.066	-2.92
721.092	16.08
721.118	25.08
721.144	7.08
721.17	2.08
721.196	3.08
721.223	-3.92
721.249	-0.92
721.275	10.08
721.301	6.08
721.327	14.08
721.353	6.08
721.379	11.08
721.405	18.08
721.432	24.08
721.458	8.08
721.484	5.08
721.51	2.08
721.536	6.08
721.562	10.08
721.588	-6.92
721.614	-11.92
721.64	-3.92
721.666	4.08
721.693	-10.92
721.719	14.08
721.745	-5.92
721.771	0.08
721.797	10.08
721.823	-3.92
721.849	20.08
721.875	4.08
721.901	4.08
721.927	1.08
721.953	6.08
721.979	30.08
722.005	25.08
722.031	5.08
722.057	17.08
722.083	14.08
722.109	16.08
722.135	29.08
722.161	27.08
722.187	17.08
722.214	-9.92
722.24	2.08
722.266	-7.92
722.292	13.08
722.318	22.08
722.344	9.08
722.37	1.08
722.396	5.08
722.422	5.08
722.448	9.08
722.474	-1.92
722.5	-12.92
722.526	6.08
722.552	1.08
722.578	6.08
722.603	24.08
722.629	12.08
722.655	9.08
722.681	10.08
722.707	15.08
722.733	5.08
722.759	-1.92
722.785	8.08
722.811	9.08
722.837	-8.92
722.863	6.08
722.889	7.08
722.915	-0.92
722.941	10.08
722.967	-1.92
722.993	16.08
723.019	10.08
723.045	5.08
723.071	-3.92
723.097	8.08
723.122	12.08
723.148	0.08
723.174	4.08
723.2	14.08
723.226	-3.92
723.252	7.08
723.278	10.08
723.304	5.08
723.33	10.08
723.356	1.08
723.381	-6.92
723.407	-5.92
723.433	7.08
723.459	9.08
723.485	2.08
723.511	24.08
723.537	-7.92
723.563	10.08
723.588	15.08
723.614	15.08
723.64	2.08
723.666	-1.92
723.692	18.08
723.718	22.08
723.744	2.08
723.769	4.08
723.795	-17.92
723.821	-6.92
723.847	-10.92
723.873	4.08
723.899	6.08
723.924	9.08
723.95	6.08
723.976	-2.92
724.002	8.08
724.028	12.08
724.053	11.08
724.079	4.08
724.105	16.08
724.131	-9.92
724.157	5.08
724.182	14.08
724.208	15.08
724.234	12.08
724.26	0.08
724.286	0.08
724.311	8.08
724.337	6.08
724.363	-8.92
724.389	4.08
724.415	11.08
724.44	4.08
724.466	2.08
724.492	13.08
724.518	8.08
724.543	-1.92
724.569	-4.92
724.595	8.08
724.621	17.08
724.646	-1.92
724.672	-0.92
724.698	8.08
724.723	-1.92
724.749	-1.92
724.775	14.08
724.801	9.08
724.826	4.08
724.852	-7.92
724.878	1.08
724.904	-19.92
724.929	-1.92
724.955	-4.92
724.981	-0.92
725.006	-2.92
725.032	10.08
725.058	12.08
725.083	6.08
725.109	-0.92
725.135	2.08
725.161	8.08
725.186	-1.92
725.212	1.08
725.238	8.08
725.263	7.08
725.289	0.08
725.315	2.08
725.34	4.08
725.366	17.08
725.392	0.08
725.417	-3.92
725.443	17.08
725.468	15.08
725.494	16.08
725.52	26.08
725.545	7.08
725.571	-4.92
725.597	1.08
725.622	5.08
725.648	6.08
725.674	4.08
725.699	4.08
725.725	13.08
725.75	21.08
725.776	1.08
725.802	14.08
725.827	18.08
725.853	-2.92
725.878	20.08
725.904	-5.92
725.93	-1.92
725.955	-4.92
725.981	-0.92
726.006	18.08
726.032	24.08
726.057	5.08
726.083	-2.92
726.109	13.08
726.134	11.08
726.16	8.08
726.185	-8.92
726.211	5.08
726.236	8.08
726.262	0.08
726.288	4.08
726.313	29.08
726.339	18.08
726.364	8.08
726.39	2.08
726.415	0.08
726.441	2.08
726.466	0.08
726.492	16.08
726.517	17.08
726.543	16.08
726.568	-8.92
726.594	5.08
726.619	14.08
726.645	19.08
726.67	7.08
726.696	13.08
726.721	-2.92
726.747	-7.92
726.772	8.08
726.798	-0.92
726.823	23.08
726.849	6.08
726.874	20.08
726.9	25.08
726.925	0.08
726.951	0.08
726.976	20.08
727.002	3.08
727.027	18.08
727.053	16.08
727.078	20.08
727.104	0.08
727.129	-11.92
727.155	2.08
727.18	2.08
727.205	-0.92
727.231	-1.92
727.256	9.08
727.282	-0.92
727.307	8.08
727.333	-11.92
727.358	2.08
727.383	-10.92
727.409	-1.92
727.434	11.08
727.46	4.08
727.485	7.08
727.511	18.08
727.536	-11.92
727.561	12.08
727.587	13.08
727.612	-9.92
727.637	-2.92
727.663	-5.92
727.688	12.08
727.714	4.08
727.739	-1.92
727.764	-1.92
727.79	2.08
727.815	21.08
727.841	3.08
727.866	12.08
727.891	14.08
727.917	-3.92
727.942	-7.92
727.967	-8.92
727.993	-3.92
728.018	-8.92
728.043	-5.92
728.069	4.08
728.094	15.08
728.119	12.08
728.145	9.08
728.17	14.08
728.195	9.08
728.221	10.08
728.246	8.08
728.271	8.08
728.297	11.08
728.322	9.08
728.347	1.08
728.373	18.08
728.398	17.08
728.423	5.08
728.448	11.08
728.474	5.08
728.499	22.08
728.524	8.08
728.55	-10.92
728.575	-2.92
728.6	19.08
728.625	2.08
728.651	9.08
728.676	14.08
728.701	9.08
728.727	9.08
728.752	4.08
728.777	4.08
728.802	-0.92
728.828	6.08
728.853	1.08
728.878	-3.92
728.903	11.08
728.929	4.08
728.954	-5.92
728.979	0.08
729.004	5.08
729.03	-2.92
729.055	6.08
729.08	-7.92
729.105	-7.92
729.13	19.08
729.156	13.08
729.181	-0.92
729.206	-6.92
729.231	2.08
729.256	14.08
729.282	-0.92
729.307	-3.92
729.332	-4.92
729.357	-11.92
729.382	-6.92
729.408	8.08
729.433	8.08
729.458	-5.92
729.483	20.08
729.508	18.08
729.533	4.08
729.559	-1.92
729.584	-7.92
729.609	16.08
729.634	15.08
729.659	16.08
729.684	-1.92
729.71	11.08
729.735	4.08
729.76	7.08
729.785	-6.92
729.81	6.08
729.835	-3.92
729.86	17.08
729.886	18.08
729.911	-7.92
729.936	-1.92
729.961	14.08
729.986	-10.92
730.011	1.08
730.036	12.08
730.061	12.08
730.086	10.08
730.112	4.08
730.137	4.08
730.162	6.08
730.187	-4.92
730.212	25.08
730.237	5.08
730.262	8.08
730.287	1.08
730.312	23.08
730.337	-16.92
730.362	29.08
730.387	11.08
730.413	-11.92
730.438	6.08
730.463	2.08
730.488	-16.92
730.513	-4.92
730.538	-2.92
730.563	5.08
730.588	10.08
730.613	32.08
730.638	17.08
730.663	14.08
730.688	18.08
730.713	8.08
730.738	16.08
730.763	4.08
730.788	-7.92
730.813	17.08
730.838	12.08
730.863	17.08
730.888	0.08
730.913	-6.92
730.938	1.08
730.963	1.08
730.988	15.08
731.013	38.08
731.038	14.08
731.063	-3.92
731.088	-3.92
731.113	10.08
731.138	1.08
731.163	6.08
731.188	-6.92
731.213	1.08
731.238	19.08
731.263	7.08
731.288	1.08
731.313	23.08
731.338	4.08
731.363	8.08
731.388	4.08
731.413	12.08
731.438	13.08
731.463	16.08
731.487	9.08
731.512	2.08
731.537	5.08
731.562	6.08
731.587	5.08
731.612	5.08
731.637	1.08
731.662	5.08
731.687	-1.92
731.712	-3.92
731.737	-0.92
731.762	11.08
731.786	19.08
731.811	4.08
731.836	6.08
731.861	7.08
731.886	-3.92
731.911	-3.92
731.936	16.08
731.961	2.08
731.986	1.08
732.01	17.08
732.035	17.08
732.06	21.08
732.085	0.08
732.11	-5.92
732.135	-22.92
732.16	4.08
732.184	16.08
732.209	10.08
732.234	13.08
732.259	5.08
732.284	9.08
732.309	-1.92
732.334	14.08
732.358	-17.92
732.383	-11.92
732.408	12.08
732.433	11.08
732.458	-3.92
732.482	3.08
732.507	1.08
732.532	24.08
732.557	29.08
732.582	3.08
732.607	1.08
732.631	-6.92
732.656	5.08
732.681	13.08
732.706	7.08
732.73	3.08
732.755	-3.92
732.78	-10.92
732.805	9.08
732.83	2.08
732.854	-3.92
732.879	1.08
732.904	2.08
732.929	-1.92
732.953	1.08
732.978	0.08
733.003	0.08
733.028	-1.92
733.052	-0.92
733.077	11.08
733.102	6.08
733.127	-11.92
733.151	-0.92
733.176	12.08
733.201	7.08
733.226	0.08
733.25	4.08
733.275	7.08
733.3	9.08
733.324	13.08
733.349	12.08
733.374	29.08
733.399	11.08
733.423	10.08
733.448	0.08
733.473	2.08
733.497	-15.92
733.522	1.08
733.547	28.08
733.571	20.08
733.596	16.08
733.621	6.08
733.646	4.08
733.67	28.08
733.695	-3.92
733.72	-7.92
733.744	11.08
733.769	5.08
733.794	15.08
733.818	20.08
733.843	3.08
733.867	12.08
733.892	10.08
733.917	-2.92
733.941	8.08
733.966	7.08
733.991	-0.92
734.015	7.08
734.04	1.08
734.065	15.08
734.089	15.08
734.114	-3.92
734.138	17.08
734.163	-6.92
734.188	10.08
734.212	13.08
734.237	18.08
734.261	8.08
734.286	2.08
734.311	7.08
734.335	17.08
734.36	9.08
734.384	7.08
734.409	11.08
734.434	-2.92
734.458	15.08
734.483	0.08
734.507	1.08
734.532	-1.92
734.556	21.08
734.581	8.08
734.606	0.08
734.63	-0.92
734.655	7.08
734.679	9.08
734.704	0.08
734.728	6.08
734.753	-1.92
734.777	10.08
734.802	10.08
734.826	2.08
734.851	7.08
734.876	17.08
734.9	-0.92
734.925	17.08
734.949	10.08
734.974	-0.92
734.998	19.08
735.023	-7.92
735.047	-3.92
735.072	17.08
735.096	22.08
735.121	0.08
735.145	1.08
735.17	18.08
735.194	10.08
735.219	8.08
735.243	8.08
735.268	18.08
735.292	14.08
735.317	9.08
735.341	8.08
735.365	-1.92
735.39	26.08
735.414	9.08
735.439	20.08
735.463	-0.92
735.488	-0.92
735.512	6.08
735.537	2.08
735.561	13.08
735.586	10.08
735.61	25.08
735.634	-2.92
735.659	6.08
735.683	21.08
735.708	9.08
735.732	1.08
735.757	2.08
735.781	17.08
735.805	8.08
735.83	-3.92
735.854	3.08
735.879	2.08
735.903	16.08
735.927	13.08
735.952	-1.92
735.976	-3.92
736.001	0.08
736.025	7.08
736.049	0.08
736.074	0.08
736.098	9.08
736.123	4.08
736.147	-0.92
736.171	-2.92
736.196	-1.92
736.22	5.08
736.244	7.08
736.269	4.08
736.293	-3.92
736.317	11.08
736.342	10.08
736.366	28.08
736.39	15.08
736.415	8.08
736.439	3.08
736.463	42.08
736.488	20.08
736.512	1.08
736.536	9.08
736.561	23.08
736.585	9.08
736.609	19.08
736.634	-4.92
736.658	10.08
736.682	-9.92
736.707	-3.92
736.731	4.08
736.755	5.08
736.78	9.08
736.804	24.08
736.828	22.08
736.852	5.08
736.877	1.08
736.901	20.08
736.925	14.08
736.949	10.08
736.974	7.08
736.998	-3.92
737.022	12.08
737.047	17.08
737.071	19.08
737.095	12.08
737.119	28.08
737.144	18.08
737.168	5.08
737.192	-10.92
737.216	14.08
737.241	1.08
737.265	11.08
737.289	-0.92
737.313	14.08
737.337	14.08
737.362	8.08
737.386	-3.92
737.41	-10.92
737.434	10.08
737.459	3.08
737.483	13.08
737.507	15.08
737.531	8.08
737.555	-5.92
737.58	16.08
737.604	-0.92
737.628	-17.92
737.652	-7.92
737.676	-0.92
737.701	12.08
737.725	5.08
737.749	14.08
737.773	13.08
737.797	1.08
737.821	0.08
737.846	7.08
737.87	26.08
737.894	4.08
737.918	0.08
737.942	0.08
737.966	21.08
737.99	26.08
738.015	18.08
738.039	8.08
738.063	5.08
738.087	23.08
738.111	21.08
738.135	18.08
738.159	1.08
738.184	7.08
738.208	14.08
738.232	4.08
738.256	22.08
738.28	17.08
738.304	21.08
738.328	10.08
738.352	-3.92
738.376	-1.92
738.4	15.08
738.425	6.08
738.449	6.08
738.473	12.08
738.497	-2.92
738.521	-2.92
738.545	10.08
738.569	-13.92
738.593	9.08
738.617	15.08
738.641	13.08
738.665	6.08
738.689	30.08
738.713	13.08
738.737	24.08
738.762	19.08
738.786	5.08
738.81	-0.92
738.834	10.08
738.858	0.08
738.882	5.08
738.906	11.08
738.93	9.08
738.954	3.08
738.978	13.08
739.002	-0.92
739.026	13.08
739.05	-4.92
739.074	-8.92
739.098	29.08
739.122	21.08
739.146	14.08
739.17	24.08
739.194	7.08
739.218	-11.92
739.242	2.08
739.266	-0.92
739.29	1.08
739.314	8.08
739.338	8.08
739.362	9.08
739.386	21.08
739.41	-6.92
739.434	-10.92
739.458	21.08
739.482	5.08
739.506	2.08
739.53	0.08
739.554	-0.92
739.577	3.08
739.601	4.08
739.625	-2.92
739.649	8.08
739.673	15.08
739.697	18.08
739.721	9.08
739.745	9.08
739.769	24.08
739.793	20.08
739.817	27.08
739.841	17.08
739.865	20.08
739.889	5.08
739.912	15.08
739.936	17.08
739.96	13.08
739.984	18.08
740.008	18.08
740.032	-3.92
740.056	0.08
740.08	-0.92
740.104	-7.92
740.127	9.08
740.151	10.08
740.175	7.08
740.199	14.08
740.223	57.08
740.247	8.08
740.271	1.08
740.295	3.08
740.318	1.08
740.342	0.08
740.366	7.08
740.39	14.08
740.414	5.08
740.438	2.08
740.461	34.08
740.485	6.08
740.509	-2.92
740.533	16.08
740.557	10.08
740.581	-4.92
740.604	-6.92
740.628	2.08
740.652	18.08
740.676	8.08
740.7	14.08
740.723	-0.92
740.747	-1.92
740.771	1.08
740.795	11.08
740.819	18.08
740.842	8.08
740.866	18.08
740.89	13.08
740.914	-5.92
740.938	-7.92
740.961	6.08
740.985	-1.92
741.009	17.08
741.033	14.08
741.056	12.08
741.08	5.08
741.104	-2.92
741.128	-1.92
741.151	18.08
741.175	14.08
741.199	5.08
741.223	5.08
741.246	0.08
741.27	1.08
741.294	16.08
741.318	-4.92
741.341	-4.92
741.365	13.08
741.389	20.08
741.413	19.08
741.436	20.08
741.46	-0.92
741.484	9.08
741.507	10.08
741.531	30.08
741.555	22.08
741.579	0.08
741.602	4.08
741.626	17.08
741.65	9.08
741.673	8.08
741.697	17.08
741.721	17.08
741.744	-18.92
741.768	-15.92
741.792	5.08
741.815	-7.92
741.839	10.08
741.863	31.08
741.886	32.08
741.91	26.08
741.934	6.08
741.957	2.08
741.981	8.08
742.005	20.08
742.028	3.08
742.052	-3.92
742.075	2.08
742.099	10.08
742.123	-1.92
742.146	8.08
742.17	6.08
742.194	-12.92
742.217	-1.92
742.241	-6.92
742.264	-1.92
742.288	28.08
742.312	4.08
742.335	-9.92
742.359	1.08
742.382	17.08
742.406	24.08
742.43	-7.92
742.453	0.08
742.477	-8.92
742.5	4.08
742.524	-5.92
742.548	-7.92
742.571	7.08
742.595	11.08
742.618	2.08
742.642	3.08
742.665	14.08
742.689	-14.92
742.712	14.08
742.736	12.08
742.76	-4.92
742.783	-8.92
742.807	19.08
742.83	8.08
742.854	-7.92
742.877	7.08
742.901	12.08
742.924	13.08
742.948	13.08
742.971	8.08
742.995	0.08
743.018	-21.92
743.042	7.08
743.065	-10.92
743.089	1.08
743.112	6.08
743.136	-6.92
743.159	-2.92
743.183	-17.92
743.206	4.08
743.23	-5.92
743.253	13.08
743.277	20.08
743.3	-0.92
743.324	1.08
743.347	13.08
743.371	18.08
743.394	19.08
743.418	14.08
743.441	1.08
743.465	9.08
743.488	13.08
743.512	-2.92
743.535	-2.92
743.558	-8.92
743.582	11.08
743.605	14.08
743.629	17.08
743.652	15.08
743.676	10.08
743.699	24.08
743.723	26.08
743.746	13.08
743.769	9.08
743.793	16.08
743.816	8.08
743.84	14.08
743.863	10.08
743.886	10.08
743.91	11.08
743.933	8.08
743.957	20.08
743.98	11.08
744.003	14.08
744.027	16.08
744.05	4.08
744.074	2.08
744.097	1.08
744.12	0.08
744.144	-3.92
744.167	23.08
744.19	13.08
744.214	5.08
744.237	-1.92
744.26	13.08
744.284	-13.92
744.307	-2.92
744.331	18.08
744.354	-8.92
744.377	-1.92
744.401	2.08
744.424	9.08
744.447	2.08
744.471	-2.92
