Data from HighRes_H2_15_09_11_07_2024_HR4C61891__102__15-11-06-602.txt Node

Date: Thu Nov 07 15:11:06 EST 2024
User: crc00042
Spectrometer: HR4C6189
Trigger mode: 4
Integration Time (sec): 1.000000E-1
Scans to average: 1
Electric dark correction enabled: true
Nonlinearity correction enabled: false
Boxcar width: 0
XAxis mode: Wavelengths
Number of Pixels in Spectrum: 3648
>>>>>Begin Spectral Data<<<<<
639.567	-28.92
639.602	-28.92
639.636	-28.92
639.67	-51.92
639.704	-18.92
639.738	-6.92
639.773	7.08
639.807	-23.92
639.841	-0.92
639.875	21.08
639.909	15.08
639.943	4.08
639.978	0.08
640.012	-3.92
640.046	5.08
640.08	3.08
640.114	-4.92
640.148	-14.92
640.182	3.08
640.217	2.08
640.251	13.08
640.285	10.08
640.319	-2.92
640.353	5.08
640.387	7.08
640.421	-3.92
640.455	-10.92
640.49	-19.92
640.524	3.08
640.558	4.08
640.592	0.08
640.626	-3.92
640.66	0.08
640.694	-13.92
640.728	10.08
640.762	11.08
640.796	19.08
640.83	19.08
640.865	3.08
640.899	-2.92
640.933	-12.92
640.967	0.08
641.001	3.08
641.035	-1.92
641.069	3.08
641.103	0.08
641.137	-1.92
641.171	-7.92
641.205	8.08
641.239	-14.92
641.273	23.08
641.307	0.08
641.341	1.08
641.375	0.08
641.409	4.08
641.443	-1.92
641.477	-3.92
641.511	10.08
641.545	13.08
641.579	2.08
641.614	15.08
641.648	14.08
641.682	0.08
641.716	14.08
641.75	11.08
641.784	0.08
641.818	6.08
641.852	16.08
641.886	-8.92
641.919	20.08
641.953	6.08
641.987	-13.92
642.021	2.08
642.055	19.08
642.089	4.08
642.123	6.08
642.157	-12.92
642.191	-10.92
642.225	3.08
642.259	0.08
642.293	14.08
642.327	6.08
642.361	17.08
642.395	1.08
642.429	15.08
642.463	5.08
642.497	29.08
642.531	-1.92
642.565	-3.92
642.599	-2.92
642.633	-14.92
642.666	7.08
642.7	14.08
642.734	22.08
642.768	0.08
642.802	0.08
642.836	6.08
642.87	3.08
642.904	21.08
642.938	13.08
642.972	6.08
643.005	0.08
643.039	16.08
643.073	-25.92
643.107	-3.92
643.141	-0.92
643.175	5.08
643.209	2.08
643.243	4.08
643.276	-1.92
643.31	-15.92
643.344	-11.92
643.378	-15.92
643.412	15.08
643.446	10.08
643.48	5.08
643.513	14.08
643.547	4.08
643.581	-7.92
643.615	8.08
643.649	11.08
643.683	8.08
643.716	5.08
643.75	6.08
643.784	-14.92
643.818	20.08
643.852	-13.92
643.886	-12.92
643.919	8.08
643.953	4.08
643.987	-3.92
644.021	0.08
644.055	4.08
644.088	-15.92
644.122	-9.92
644.156	-4.92
644.19	-15.92
644.224	-4.92
644.257	3.08
644.291	19.08
644.325	17.08
644.359	7.08
644.392	12.08
644.426	12.08
644.46	0.08
644.494	2.08
644.527	13.08
644.561	6.08
644.595	15.08
644.629	-7.92
644.662	0.08
644.696	10.08
644.73	31.08
644.764	8.08
644.797	1.08
644.831	9.08
644.865	12.08
644.899	15.08
644.932	14.08
644.966	14.08
645	9.08
645.033	3.08
645.067	-8.92
645.101	4.08
645.135	9.08
645.168	-1.92
645.202	1.08
645.236	3.08
645.269	8.08
645.303	5.08
645.337	-14.92
645.37	-8.92
645.404	5.08
645.438	7.08
645.471	3.08
645.505	7.08
645.539	13.08
645.572	-2.92
645.606	-0.92
645.64	4.08
645.673	12.08
645.707	15.08
645.741	-0.92
645.774	-20.92
645.808	4.08
645.842	2.08
645.875	5.08
645.909	-5.92
645.943	-10.92
645.976	1.08
646.01	11.08
646.043	15.08
646.077	13.08
646.111	10.08
646.144	11.08
646.178	5.08
646.212	-19.92
646.245	10.08
646.279	12.08
646.312	2.08
646.346	10.08
646.38	-3.92
646.413	25.08
646.447	4.08
646.48	-6.92
646.514	7.08
646.547	-4.92
646.581	-20.92
646.615	-13.92
646.648	-4.92
646.682	-10.92
646.715	-5.92
646.749	1.08
646.782	-0.92
646.816	-5.92
646.85	1.08
646.883	-1.92
646.917	3.08
646.95	12.08
646.984	6.08
647.017	-5.92
647.051	-3.92
647.084	-1.92
647.118	-0.92
647.151	3.08
647.185	5.08
647.218	-4.92
647.252	-4.92
647.285	-1.92
647.319	-3.92
647.353	11.08
647.386	14.08
647.42	-1.92
647.453	2.08
647.487	13.08
647.52	-2.92
647.553	7.08
647.587	2.08
647.62	-6.92
647.654	4.08
647.687	16.08
647.721	7.08
647.754	12.08
647.788	17.08
647.821	-4.92
647.855	0.08
647.888	12.08
647.922	29.08
647.955	-0.92
647.989	-20.92
648.022	1.08
648.055	14.08
648.089	0.08
648.122	18.08
648.156	1.08
648.189	10.08
648.223	14.08
648.256	11.08
648.29	13.08
648.323	-14.92
648.356	20.08
648.39	10.08
648.423	8.08
648.457	8.08
648.49	13.08
648.523	15.08
648.557	3.08
648.59	1.08
648.624	5.08
648.657	-2.92
648.69	9.08
648.724	5.08
648.757	8.08
648.791	6.08
648.824	8.08
648.857	19.08
648.891	20.08
648.924	17.08
648.957	28.08
648.991	-5.92
649.024	-1.92
649.057	-0.92
649.091	7.08
649.124	23.08
649.158	14.08
649.191	11.08
649.224	-3.92
649.258	12.08
649.291	2.08
649.324	-3.92
649.358	-10.92
649.391	12.08
649.424	-8.92
649.458	3.08
649.491	-1.92
649.524	-3.92
649.557	-4.92
649.591	-3.92
649.624	12.08
649.657	-23.92
649.691	4.08
649.724	9.08
649.757	1.08
649.791	3.08
649.824	7.08
649.857	14.08
649.89	-4.92
649.924	-22.92
649.957	-8.92
649.99	0.08
650.023	-9.92
650.057	-9.92
650.09	-0.92
650.123	15.08
650.157	17.08
650.19	36.08
650.223	8.08
650.256	-11.92
650.29	3.08
650.323	-2.92
650.356	11.08
650.389	0.08
650.423	5.08
650.456	12.08
650.489	10.08
650.522	2.08
650.555	37.08
650.589	16.08
650.622	25.08
650.655	27.08
650.688	10.08
650.721	-7.92
650.755	3.08
650.788	8.08
650.821	7.08
650.854	11.08
650.887	11.08
650.921	10.08
650.954	2.08
650.987	3.08
651.02	1.08
651.053	13.08
651.087	-4.92
651.12	13.08
651.153	4.08
651.186	6.08
651.219	-14.92
651.252	-11.92
651.286	1.08
651.319	-12.92
651.352	9.08
651.385	-7.92
651.418	-0.92
651.451	8.08
651.484	12.08
651.518	-7.92
651.551	13.08
651.584	1.08
651.617	9.08
651.65	14.08
651.683	10.08
651.716	11.08
651.749	1.08
651.783	9.08
651.816	13.08
651.849	25.08
651.882	1.08
651.915	-22.92
651.948	-6.92
651.981	-9.92
652.014	-13.92
652.047	0.08
652.08	-7.92
652.114	-0.92
652.147	-7.92
652.18	7.08
652.213	7.08
652.246	-3.92
652.279	-8.92
652.312	15.08
652.345	-13.92
652.378	18.08
652.411	24.08
652.444	18.08
652.477	13.08
652.51	-7.92
652.543	4.08
652.576	11.08
652.609	-3.92
652.642	3.08
652.675	21.08
652.709	6.08
652.742	10.08
652.775	4.08
652.808	2.08
652.841	-7.92
652.874	-0.92
652.907	-7.92
652.94	-8.92
652.973	-2.92
653.006	-4.92
653.039	-7.92
653.072	3.08
653.105	-0.92
653.138	-12.92
653.171	-18.92
653.204	-10.92
653.237	0.08
653.27	-9.92
653.303	24.08
653.336	17.08
653.368	-12.92
653.401	4.08
653.434	-2.92
653.467	-4.92
653.5	-17.92
653.533	-10.92
653.566	4.08
653.599	10.08
653.632	4.08
653.665	2.08
653.698	-29.92
653.731	1.08
653.764	12.08
653.797	4.08
653.83	11.08
653.863	-4.92
653.896	-7.92
653.929	-7.92
653.961	-10.92
653.994	-3.92
654.027	-6.92
654.06	18.08
654.093	4.08
654.126	4.08
654.159	-28.92
654.192	14.08
654.225	-3.92
654.258	0.08
654.29	2.08
654.323	-11.92
654.356	-7.92
654.389	-2.92
654.422	1.08
654.455	11.08
654.488	10.08
654.521	-2.92
654.553	-11.92
654.586	14.08
654.619	5.08
654.652	3.08
654.685	7.08
654.718	3.08
654.751	12.08
654.783	-2.92
654.816	25.08
654.849	27.08
654.882	6.08
654.915	-1.92
654.948	3.08
654.98	-5.92
655.013	6.08
655.046	3.08
655.079	-2.92
655.112	11.08
655.144	6.08
655.177	-8.92
655.21	28.08
655.243	19.08
655.276	9.08
655.308	9.08
655.341	-2.92
655.374	28.08
655.407	7.08
655.44	0.08
655.472	9.08
655.505	11.08
655.538	12.08
655.571	28.08
655.603	11.08
655.636	17.08
655.669	3.08
655.702	19.08
655.734	7.08
655.767	10.08
655.8	16.08
655.833	27.08
655.865	50.08
655.898	18.08
655.931	36.08
655.964	37.08
655.996	68.08
656.029	82.08
656.062	58.08
656.095	75.08
656.127	73.08
656.16	87.08
656.193	123.08
656.225	157.08
656.258	265.08
656.291	514.08
656.324	1120.08
656.356	3384.08
656.389	7538.08
656.422	5991.08
656.454	2073.08
656.487	674.08
656.52	264.08
656.552	128.08
656.585	89.08
656.618	55.08
656.65	22.08
656.683	16.08
656.716	22.08
656.748	7.08
656.781	6.08
656.814	-3.92
656.846	6.08
656.879	5.08
656.912	1.08
656.944	-15.92
656.977	-8.92
657.01	6.08
657.042	8.08
657.075	11.08
657.108	-11.92
657.14	8.08
657.173	28.08
657.205	42.08
657.238	21.08
657.271	6.08
657.303	-4.92
657.336	-6.92
657.369	-0.92
657.401	-1.92
657.434	14.08
657.466	-3.92
657.499	7.08
657.532	-14.92
657.564	14.08
657.597	6.08
657.629	16.08
657.662	-8.92
657.694	10.08
657.727	-13.92
657.76	18.08
657.792	-5.92
657.825	-9.92
657.857	-8.92
657.89	5.08
657.922	4.08
657.955	-2.92
657.987	3.08
658.02	16.08
658.053	16.08
658.085	-7.92
658.118	-7.92
658.15	14.08
658.183	25.08
658.215	0.08
658.248	-5.92
658.28	5.08
658.313	28.08
658.345	10.08
658.378	-5.92
658.41	4.08
658.443	8.08
658.475	9.08
658.508	-2.92
658.54	-5.92
658.573	-11.92
658.605	3.08
658.638	10.08
658.67	-7.92
658.703	8.08
658.735	-9.92
658.768	0.08
658.8	-5.92
658.833	16.08
658.865	-6.92
658.898	-1.92
658.93	-5.92
658.963	-13.92
658.995	-15.92
659.028	-12.92
659.06	5.08
659.092	-12.92
659.125	9.08
659.157	23.08
659.19	-10.92
659.222	0.08
659.255	14.08
659.287	8.08
659.32	-3.92
659.352	-6.92
659.384	19.08
659.417	-7.92
659.449	3.08
659.482	5.08
659.514	-20.92
659.546	0.08
659.579	-8.92
659.611	5.08
659.644	-2.92
659.676	-19.92
659.708	-13.92
659.741	-6.92
659.773	2.08
659.806	7.08
659.838	11.08
659.87	9.08
659.903	-2.92
659.935	10.08
659.967	12.08
660	2.08
660.032	-19.92
660.065	14.08
660.097	-6.92
660.129	11.08
660.162	-14.92
660.194	20.08
660.226	-0.92
660.259	7.08
660.291	10.08
660.323	7.08
660.356	-4.92
660.388	-5.92
660.42	1.08
660.453	9.08
660.485	17.08
660.517	21.08
660.55	13.08
660.582	-6.92
660.614	18.08
660.647	-2.92
660.679	-6.92
660.711	9.08
660.743	-9.92
660.776	-7.92
660.808	-13.92
660.84	-9.92
660.873	5.08
660.905	4.08
660.937	-2.92
660.969	-0.92
661.002	-14.92
661.034	13.08
661.066	2.08
661.099	3.08
661.131	12.08
661.163	16.08
661.195	4.08
661.228	13.08
661.26	0.08
661.292	8.08
661.324	2.08
661.357	13.08
661.389	0.08
661.421	-0.92
661.453	1.08
661.485	8.08
661.518	8.08
661.55	-11.92
661.582	-20.92
661.614	13.08
661.647	12.08
661.679	7.08
661.711	10.08
661.743	0.08
661.775	13.08
661.808	25.08
661.84	8.08
661.872	5.08
661.904	-0.92
661.936	4.08
661.969	-2.92
662.001	-11.92
662.033	-0.92
662.065	-5.92
662.097	13.08
662.129	10.08
662.162	-0.92
662.194	-12.92
662.226	0.08
662.258	-11.92
662.29	-11.92
662.322	-15.92
662.355	-13.92
662.387	20.08
662.419	-0.92
662.451	5.08
662.483	12.08
662.515	10.08
662.547	3.08
662.58	4.08
662.612	-0.92
662.644	-8.92
662.676	4.08
662.708	20.08
662.74	-2.92
662.772	1.08
662.804	3.08
662.836	12.08
662.869	6.08
662.901	12.08
662.933	2.08
662.965	14.08
662.997	11.08
663.029	7.08
663.061	-13.92
663.093	-2.92
663.125	4.08
663.157	1.08
663.189	-9.92
663.221	4.08
663.254	7.08
663.286	-11.92
663.318	6.08
663.35	7.08
663.382	4.08
663.414	4.08
663.446	-13.92
663.478	-15.92
663.51	29.08
663.542	-1.92
663.574	4.08
663.606	1.08
663.638	-18.92
663.67	-0.92
663.702	-3.92
663.734	3.08
663.766	-9.92
663.798	-3.92
663.83	8.08
663.862	11.08
663.894	9.08
663.926	0.08
663.958	4.08
663.99	7.08
664.022	4.08
664.054	9.08
664.086	-18.92
664.118	-5.92
664.15	4.08
664.182	9.08
664.214	-4.92
664.246	11.08
664.278	-5.92
664.31	14.08
664.342	17.08
664.374	9.08
664.406	6.08
664.438	6.08
664.47	16.08
664.502	1.08
664.534	-13.92
664.566	-12.92
664.598	5.08
664.63	-5.92
664.662	9.08
664.693	11.08
664.725	-11.92
664.757	-7.92
664.789	-7.92
664.821	1.08
664.853	4.08
664.885	-4.92
664.917	-12.92
664.949	14.08
664.981	4.08
665.013	6.08
665.045	-10.92
665.076	-14.92
665.108	9.08
665.14	-7.92
665.172	7.08
665.204	3.08
665.236	-14.92
665.268	-4.92
665.3	-13.92
665.331	-9.92
665.363	10.08
665.395	-2.92
665.427	-11.92
665.459	3.08
665.491	-7.92
665.523	-15.92
665.555	5.08
665.586	0.08
665.618	-5.92
665.65	-22.92
665.682	-0.92
665.714	-5.92
665.746	-11.92
665.777	-3.92
665.809	-3.92
665.841	9.08
665.873	-5.92
665.905	8.08
665.937	13.08
665.968	22.08
666	8.08
666.032	8.08
666.064	2.08
666.096	-1.92
666.127	7.08
666.159	21.08
666.191	11.08
666.223	2.08
666.255	7.08
666.286	11.08
666.318	-0.92
666.35	6.08
666.382	4.08
666.413	-3.92
666.445	-0.92
666.477	-16.92
666.509	-5.92
666.54	5.08
666.572	-6.92
666.604	-6.92
666.636	5.08
666.667	7.08
666.699	11.08
666.731	4.08
666.763	-1.92
666.794	-15.92
666.826	9.08
666.858	-8.92
666.89	17.08
666.921	12.08
666.953	0.08
666.985	4.08
667.017	8.08
667.048	-2.92
667.08	-8.92
667.112	-5.92
667.143	1.08
667.175	7.08
667.207	4.08
667.238	10.08
667.27	5.08
667.302	-4.92
667.334	-9.92
667.365	-1.92
667.397	-4.92
667.429	-11.92
667.46	1.08
667.492	1.08
667.524	11.08
667.555	-7.92
667.587	-4.92
667.619	-12.92
667.65	-7.92
667.682	7.08
667.714	16.08
667.745	11.08
667.777	-2.92
667.808	13.08
667.84	3.08
667.872	-11.92
667.903	8.08
667.935	-0.92
667.967	7.08
667.998	2.08
668.03	-14.92
668.061	5.08
668.093	-10.92
668.125	14.08
668.156	1.08
668.188	5.08
668.22	-2.92
668.251	10.08
668.283	16.08
668.314	12.08
668.346	-11.92
668.377	-3.92
668.409	1.08
668.441	2.08
668.472	-0.92
668.504	18.08
668.535	5.08
668.567	13.08
668.599	-10.92
668.63	10.08
668.662	7.08
668.693	14.08
668.725	10.08
668.756	6.08
668.788	-3.92
668.819	-3.92
668.851	-2.92
668.882	-3.92
668.914	-12.92
668.946	3.08
668.977	-3.92
669.009	8.08
669.04	-2.92
669.072	-12.92
669.103	1.08
669.135	11.08
669.166	10.08
669.198	7.08
669.229	-2.92
669.261	4.08
669.292	-19.92
669.324	1.08
669.355	5.08
669.387	-11.92
669.418	11.08
669.45	-19.92
669.481	17.08
669.513	18.08
669.544	14.08
669.576	-8.92
669.607	20.08
669.639	11.08
669.67	1.08
669.701	-0.92
669.733	-27.92
669.764	-11.92
669.796	-10.92
669.827	-4.92
669.859	12.08
669.89	-1.92
669.922	5.08
669.953	14.08
669.985	17.08
670.016	12.08
670.047	8.08
670.079	13.08
670.11	-1.92
670.142	9.08
670.173	6.08
670.204	7.08
670.236	6.08
670.267	4.08
670.299	12.08
670.33	0.08
670.362	2.08
670.393	-3.92
670.424	13.08
670.456	1.08
670.487	1.08
670.518	-5.92
670.55	8.08
670.581	-7.92
670.613	11.08
670.644	-10.92
670.675	-13.92
670.707	-10.92
670.738	-4.92
670.769	2.08
670.801	-18.92
670.832	2.08
670.864	-18.92
670.895	24.08
670.926	10.08
670.958	6.08
670.989	1.08
671.02	-2.92
671.052	-2.92
671.083	3.08
671.114	3.08
671.146	19.08
671.177	11.08
671.208	-6.92
671.24	-18.92
671.271	11.08
671.302	-4.92
671.333	-7.92
671.365	-4.92
671.396	-6.92
671.427	6.08
671.459	3.08
671.49	21.08
671.521	13.08
671.553	8.08
671.584	2.08
671.615	-13.92
671.646	1.08
671.678	-3.92
671.709	-2.92
671.74	-14.92
671.771	-3.92
671.803	0.08
671.834	8.08
671.865	-6.92
671.896	4.08
671.928	-16.92
671.959	-1.92
671.99	-2.92
672.021	2.08
672.053	2.08
672.084	4.08
672.115	35.08
672.146	-4.92
672.178	-15.92
672.209	-2.92
672.24	-1.92
672.271	32.08
672.303	-0.92
672.334	-4.92
672.365	2.08
672.396	-4.92
672.427	5.08
672.459	17.08
672.49	27.08
672.521	8.08
672.552	10.08
672.583	7.08
672.615	-3.92
672.646	7.08
672.677	2.08
672.708	-3.92
672.739	6.08
672.77	17.08
672.802	14.08
672.833	2.08
672.864	6.08
672.895	-11.92
672.926	14.08
672.957	-0.92
672.989	-10.92
673.02	9.08
673.051	-2.92
673.082	15.08
673.113	1.08
673.144	-0.92
673.175	1.08
673.206	9.08
673.238	4.08
673.269	-12.92
673.3	-12.92
673.331	11.08
673.362	6.08
673.393	5.08
673.424	0.08
673.455	15.08
673.487	-6.92
673.518	7.08
673.549	-0.92
673.58	-0.92
673.611	15.08
673.642	10.08
673.673	-9.92
673.704	0.08
673.735	-9.92
673.766	-3.92
673.797	11.08
673.828	0.08
673.86	-2.92
673.891	-6.92
673.922	-22.92
673.953	1.08
673.984	16.08
674.015	6.08
674.046	-5.92
674.077	1.08
674.108	-17.92
674.139	-12.92
674.17	-6.92
674.201	-9.92
674.232	-10.92
674.263	-10.92
674.294	-17.92
674.325	-31.92
674.356	6.08
674.387	24.08
674.418	13.08
674.449	1.08
674.48	-19.92
674.511	-3.92
674.542	7.08
674.573	-5.92
674.604	19.08
674.635	6.08
674.666	4.08
674.697	-7.92
674.728	-4.92
674.759	-0.92
674.79	-6.92
674.821	-2.92
674.852	8.08
674.883	7.08
674.914	2.08
674.945	-5.92
674.976	13.08
675.007	-12.92
675.038	-8.92
675.069	-14.92
675.1	-10.92
675.131	3.08
675.162	0.08
675.193	13.08
675.224	8.08
675.254	30.08
675.285	16.08
675.316	19.08
675.347	-19.92
675.378	-9.92
675.409	-14.92
675.44	12.08
675.471	-11.92
675.502	-21.92
675.533	4.08
675.564	2.08
675.595	-0.92
675.625	22.08
675.656	24.08
675.687	10.08
675.718	-3.92
675.749	-0.92
675.78	9.08
675.811	7.08
675.842	-5.92
675.873	-5.92
675.903	6.08
675.934	7.08
675.965	-1.92
675.996	-4.92
676.027	-5.92
676.058	-4.92
676.089	-7.92
676.119	0.08
676.15	6.08
676.181	2.08
676.212	-6.92
676.243	11.08
676.274	-1.92
676.304	12.08
676.335	-12.92
676.366	3.08
676.397	-19.92
676.428	-8.92
676.459	-0.92
676.489	11.08
676.52	6.08
676.551	2.08
676.582	2.08
676.613	-2.92
676.643	0.08
676.674	-0.92
676.705	3.08
676.736	6.08
676.767	7.08
676.797	14.08
676.828	-3.92
676.859	-11.92
676.89	-3.92
676.92	6.08
676.951	15.08
676.982	4.08
677.013	-9.92
677.044	11.08
677.074	-2.92
677.105	-14.92
677.136	-1.92
677.167	1.08
677.197	4.08
677.228	-8.92
677.259	-7.92
677.289	-13.92
677.32	-22.92
677.351	-8.92
677.382	-10.92
677.412	-15.92
677.443	9.08
677.474	0.08
677.505	-10.92
677.535	3.08
677.566	7.08
677.597	0.08
677.627	-7.92
677.658	8.08
677.689	0.08
677.72	7.08
677.75	5.08
677.781	-4.92
677.812	-1.92
677.842	9.08
677.873	0.08
677.904	3.08
677.934	1.08
677.965	-5.92
677.996	-7.92
678.026	-3.92
678.057	0.08
678.088	-14.92
678.118	3.08
678.149	-6.92
678.18	-13.92
678.21	0.08
678.241	-15.92
678.272	8.08
678.302	8.08
678.333	14.08
678.363	-0.92
678.394	7.08
678.425	-0.92
678.455	12.08
678.486	13.08
678.517	-2.92
678.547	4.08
678.578	6.08
678.608	-2.92
678.639	0.08
678.67	-4.92
678.7	5.08
678.731	12.08
678.761	-10.92
678.792	1.08
678.823	10.08
678.853	4.08
678.884	-3.92
678.914	11.08
678.945	10.08
678.975	-13.92
679.006	-2.92
679.037	-18.92
679.067	28.08
679.098	-0.92
679.128	0.08
679.159	-3.92
679.189	19.08
679.22	-2.92
679.25	1.08
679.281	-4.92
679.312	-7.92
679.342	14.08
679.373	35.08
679.403	15.08
679.434	-5.92
679.464	-6.92
679.495	0.08
679.525	-0.92
679.556	-5.92
679.586	4.08
679.617	13.08
679.647	6.08
679.678	1.08
679.708	9.08
679.739	0.08
679.769	-2.92
679.8	-6.92
679.83	3.08
679.861	20.08
679.891	8.08
679.922	-0.92
679.952	10.08
679.983	14.08
680.013	12.08
680.044	-9.92
680.074	-2.92
680.105	22.08
680.135	-0.92
680.165	10.08
680.196	13.08
680.226	13.08
680.257	11.08
680.287	2.08
680.318	-8.92
680.348	-18.92
680.379	5.08
680.409	-2.92
680.439	-5.92
680.47	10.08
680.5	-0.92
680.531	5.08
680.561	12.08
680.592	18.08
680.622	17.08
680.652	0.08
680.683	16.08
680.713	-3.92
680.744	-6.92
680.774	5.08
680.804	8.08
680.835	1.08
680.865	-14.92
680.896	15.08
680.926	14.08
680.956	-3.92
680.987	-5.92
681.017	-12.92
681.047	-5.92
681.078	-9.92
681.108	-10.92
681.139	-2.92
681.169	-8.92
681.199	-2.92
681.23	-3.92
681.26	-7.92
681.29	7.08
681.321	-7.92
681.351	0.08
681.381	-11.92
681.412	13.08
681.442	5.08
681.472	12.08
681.503	10.08
681.533	2.08
681.563	-4.92
681.594	0.08
681.624	10.08
681.654	-9.92
681.685	-1.92
681.715	-0.92
681.745	-7.92
681.775	2.08
681.806	-0.92
681.836	8.08
681.866	-4.92
681.897	-3.92
681.927	-3.92
681.957	-27.92
681.987	3.08
682.018	-3.92
682.048	8.08
682.078	4.08
682.109	10.08
682.139	16.08
682.169	-0.92
682.199	-4.92
682.23	-9.92
682.26	9.08
682.29	1.08
682.32	2.08
682.351	11.08
682.381	10.08
682.411	-0.92
682.441	-4.92
682.472	-7.92
682.502	3.08
682.532	-11.92
682.562	-13.92
682.592	20.08
682.623	1.08
682.653	-7.92
682.683	0.08
682.713	8.08
682.743	13.08
682.774	-2.92
682.804	0.08
682.834	2.08
682.864	-10.92
682.894	-3.92
682.925	-1.92
682.955	3.08
682.985	-15.92
683.015	-11.92
683.045	2.08
683.076	-1.92
683.106	14.08
683.136	-0.92
683.166	-1.92
683.196	-7.92
683.226	4.08
683.257	-15.92
683.287	-2.92
683.317	2.08
683.347	-7.92
683.377	3.08
683.407	1.08
683.437	9.08
683.468	3.08
683.498	-2.92
683.528	4.08
683.558	-5.92
683.588	-2.92
683.618	-4.92
683.648	-6.92
683.678	7.08
683.708	-3.92
683.739	1.08
683.769	1.08
683.799	2.08
683.829	-3.92
683.859	22.08
683.889	13.08
683.919	11.08
683.949	13.08
683.979	9.08
684.009	4.08
684.039	1.08
684.07	8.08
684.1	14.08
684.13	9.08
684.16	3.08
684.19	-6.92
684.22	-0.92
684.25	5.08
684.28	-0.92
684.31	17.08
684.34	8.08
684.37	-8.92
684.4	-16.92
684.43	-3.92
684.46	4.08
684.49	5.08
684.52	3.08
684.55	8.08
684.58	15.08
684.61	8.08
684.64	7.08
684.67	1.08
684.7	-0.92
684.73	2.08
684.76	-6.92
684.79	6.08
684.82	4.08
684.85	-14.92
684.88	-7.92
684.91	-7.92
684.94	-11.92
684.97	-5.92
685	-8.92
685.03	0.08
685.06	-5.92
685.09	5.08
685.12	19.08
685.15	4.08
685.18	5.08
685.21	0.08
685.24	13.08
685.27	6.08
685.3	-8.92
685.33	-9.92
685.36	-3.92
685.39	-1.92
685.42	-7.92
685.45	-8.92
685.48	4.08
685.51	3.08
685.54	12.08
685.569	4.08
685.599	11.08
685.629	11.08
685.659	-0.92
685.689	7.08
685.719	3.08
685.749	-5.92
685.779	0.08
685.809	23.08
685.839	16.08
685.869	-3.92
685.898	5.08
685.928	2.08
685.958	-8.92
685.988	20.08
686.018	6.08
686.048	13.08
686.078	4.08
686.108	1.08
686.137	7.08
686.167	10.08
686.197	-11.92
686.227	-0.92
686.257	11.08
686.287	17.08
686.317	8.08
686.346	-8.92
686.376	-18.92
686.406	-20.92
686.436	-0.92
686.466	8.08
686.496	1.08
686.525	3.08
686.555	-18.92
686.585	2.08
686.615	28.08
686.645	9.08
686.675	-8.92
686.704	10.08
686.734	18.08
686.764	-12.92
686.794	2.08
686.824	-4.92
686.853	10.08
686.883	19.08
686.913	5.08
686.943	-6.92
686.973	-7.92
687.002	-4.92
687.032	0.08
687.062	-13.92
687.092	6.08
687.121	-22.92
687.151	-2.92
687.181	3.08
687.211	14.08
687.24	4.08
687.27	10.08
687.3	0.08
687.33	-0.92
687.359	3.08
687.389	3.08
687.419	6.08
687.449	4.08
687.478	7.08
687.508	-6.92
687.538	11.08
687.568	-3.92
687.597	-5.92
687.627	1.08
687.657	-5.92
687.686	4.08
687.716	24.08
687.746	-0.92
687.776	-9.92
687.805	1.08
687.835	-2.92
687.865	13.08
687.894	4.08
687.924	0.08
687.954	5.08
687.983	6.08
688.013	3.08
688.043	14.08
688.072	14.08
688.102	5.08
688.132	-3.92
688.161	0.08
688.191	-5.92
688.221	17.08
688.25	-4.92
688.28	8.08
688.31	4.08
688.339	-2.92
688.369	-4.92
688.399	-6.92
688.428	-0.92
688.458	3.08
688.488	-6.92
688.517	18.08
688.547	0.08
688.576	31.08
688.606	13.08
688.636	-0.92
688.665	11.08
688.695	12.08
688.725	9.08
688.754	6.08
688.784	11.08
688.813	17.08
688.843	3.08
688.873	8.08
688.902	1.08
688.932	-7.92
688.961	-16.92
688.991	0.08
689.02	8.08
689.05	-3.92
689.08	17.08
689.109	5.08
689.139	-4.92
689.168	3.08
689.198	2.08
689.227	4.08
689.257	19.08
689.287	21.08
689.316	11.08
689.346	-4.92
689.375	-1.92
689.405	4.08
689.434	5.08
689.464	-6.92
689.493	-13.92
689.523	3.08
689.552	-10.92
689.582	8.08
689.611	-13.92
689.641	0.08
689.67	1.08
689.7	-3.92
689.73	15.08
689.759	-7.92
689.789	1.08
689.818	-5.92
689.848	1.08
689.877	12.08
689.906	-4.92
689.936	-1.92
689.965	26.08
689.995	0.08
690.024	11.08
690.054	0.08
690.083	7.08
690.113	0.08
690.142	-7.92
690.172	7.08
690.201	8.08
690.231	3.08
690.26	13.08
690.29	0.08
690.319	-0.92
690.348	-2.92
690.378	8.08
690.407	9.08
690.437	3.08
690.466	2.08
690.496	-5.92
690.525	-2.92
690.555	-14.92
690.584	-4.92
690.613	17.08
690.643	2.08
690.672	0.08
690.702	-3.92
690.731	-5.92
690.76	-2.92
690.79	-3.92
690.819	-12.92
690.849	12.08
690.878	3.08
690.907	-1.92
690.937	8.08
690.966	11.08
690.996	-9.92
691.025	-6.92
691.054	-15.92
691.084	1.08
691.113	8.08
691.142	16.08
691.172	4.08
691.201	-0.92
691.23	-0.92
691.26	16.08
691.289	4.08
691.319	-9.92
691.348	1.08
691.377	12.08
691.407	1.08
691.436	5.08
691.465	-6.92
691.495	-6.92
691.524	-12.92
691.553	3.08
691.583	-7.92
691.612	18.08
691.641	-5.92
691.67	5.08
691.7	2.08
691.729	0.08
691.758	10.08
691.788	1.08
691.817	-8.92
691.846	-8.92
691.876	-3.92
691.905	7.08
691.934	3.08
691.963	21.08
691.993	-2.92
692.022	2.08
692.051	-4.92
692.081	0.08
692.11	21.08
692.139	10.08
692.168	3.08
692.198	9.08
692.227	5.08
692.256	21.08
692.285	2.08
692.315	-3.92
692.344	12.08
692.373	-1.92
692.402	-15.92
692.432	1.08
692.461	2.08
692.49	-6.92
692.519	2.08
692.548	24.08
692.578	17.08
692.607	0.08
692.636	-7.92
692.665	13.08
692.694	18.08
692.724	-2.92
692.753	-3.92
692.782	13.08
692.811	2.08
692.84	-9.92
692.87	4.08
692.899	5.08
692.928	2.08
692.957	16.08
692.986	-5.92
693.016	3.08
693.045	10.08
693.074	-3.92
693.103	6.08
693.132	8.08
693.161	4.08
693.191	-5.92
693.22	5.08
693.249	-0.92
693.278	-6.92
693.307	23.08
693.336	-0.92
693.365	-18.92
693.395	-8.92
693.424	6.08
693.453	10.08
693.482	-12.92
693.511	-6.92
693.54	11.08
693.569	-3.92
693.598	0.08
693.628	11.08
693.657	6.08
693.686	21.08
693.715	15.08
693.744	22.08
693.773	12.08
693.802	4.08
693.831	-5.92
693.86	16.08
693.889	-2.92
693.919	-6.92
693.948	12.08
693.977	7.08
694.006	2.08
694.035	-1.92
694.064	-10.92
694.093	7.08
694.122	-9.92
694.151	-0.92
694.18	9.08
694.209	36.08
694.238	6.08
694.267	8.08
694.296	11.08
694.325	13.08
694.354	23.08
694.383	8.08
694.412	6.08
694.441	7.08
694.471	-3.92
694.5	-22.92
694.529	23.08
694.558	24.08
694.587	24.08
694.616	0.08
694.645	0.08
694.674	12.08
694.703	20.08
694.732	13.08
694.761	20.08
694.79	17.08
694.819	-5.92
694.848	-0.92
694.877	7.08
694.906	26.08
694.935	2.08
694.963	14.08
694.992	6.08
695.021	-4.92
695.05	-7.92
695.079	1.08
695.108	4.08
695.137	21.08
695.166	13.08
695.195	-12.92
695.224	18.08
695.253	-7.92
695.282	1.08
695.311	9.08
695.34	-3.92
695.369	0.08
695.398	1.08
695.427	24.08
695.456	-8.92
695.485	14.08
695.513	2.08
695.542	-5.92
695.571	-2.92
695.6	14.08
695.629	3.08
695.658	15.08
695.687	-5.92
695.716	3.08
695.745	27.08
695.774	-0.92
695.802	2.08
695.831	3.08
695.86	9.08
695.889	3.08
695.918	-3.92
695.947	-0.92
695.976	-19.92
696.005	5.08
696.033	5.08
696.062	13.08
696.091	11.08
696.12	4.08
696.149	1.08
696.178	6.08
696.207	4.08
696.235	-23.92
696.264	3.08
696.293	7.08
696.322	4.08
696.351	10.08
696.38	11.08
696.408	5.08
696.437	-16.92
696.466	8.08
696.495	13.08
696.524	21.08
696.553	2.08
696.581	16.08
696.61	4.08
696.639	0.08
696.668	-2.92
696.697	-10.92
696.725	0.08
696.754	-0.92
696.783	-7.92
696.812	9.08
696.84	24.08
696.869	5.08
696.898	8.08
696.927	5.08
696.956	10.08
696.984	0.08
697.013	19.08
697.042	7.08
697.071	17.08
697.099	8.08
697.128	4.08
697.157	-9.92
697.186	-1.92
697.214	0.08
697.243	-7.92
697.272	-10.92
697.301	22.08
697.329	4.08
697.358	-0.92
697.387	13.08
697.415	11.08
697.444	5.08
697.473	-1.92
697.502	-9.92
697.53	2.08
697.559	-11.92
697.588	-6.92
697.616	6.08
697.645	-1.92
697.674	16.08
697.703	7.08
697.731	6.08
697.76	1.08
697.789	3.08
697.817	-2.92
697.846	15.08
697.875	-0.92
697.903	17.08
697.932	16.08
697.961	1.08
697.989	-3.92
698.018	5.08
698.047	9.08
698.075	-1.92
698.104	-13.92
698.133	-5.92
698.161	3.08
698.19	3.08
698.218	4.08
698.247	-6.92
698.276	-0.92
698.304	12.08
698.333	3.08
698.362	1.08
698.39	3.08
698.419	6.08
698.447	-23.92
698.476	-8.92
698.505	12.08
698.533	-0.92
698.562	-6.92
698.591	-12.92
698.619	-11.92
698.648	0.08
698.676	14.08
698.705	6.08
698.733	-7.92
698.762	-8.92
698.791	-3.92
698.819	6.08
698.848	-4.92
698.876	15.08
698.905	5.08
698.933	8.08
698.962	11.08
698.991	28.08
699.019	4.08
699.048	14.08
699.076	-4.92
699.105	-14.92
699.133	-8.92
699.162	17.08
699.19	24.08
699.219	7.08
699.248	0.08
699.276	0.08
699.305	-6.92
699.333	-0.92
699.362	-4.92
699.39	6.08
699.419	7.08
699.447	10.08
699.476	12.08
699.504	-3.92
699.533	4.08
699.561	1.08
699.59	8.08
699.618	-1.92
699.647	-2.92
699.675	21.08
699.704	7.08
699.732	2.08
699.761	10.08
699.789	5.08
699.818	6.08
699.846	5.08
699.874	-5.92
699.903	-13.92
699.931	1.08
699.96	0.08
699.988	-4.92
700.017	-6.92
700.045	0.08
700.074	-1.92
700.102	4.08
700.13	12.08
700.159	5.08
700.187	4.08
700.216	6.08
700.244	-7.92
700.273	7.08
700.301	9.08
700.329	11.08
700.358	9.08
700.386	11.08
700.415	-2.92
700.443	12.08
700.472	-1.92
700.5	1.08
700.528	17.08
700.557	12.08
700.585	-4.92
700.614	-12.92
700.642	12.08
700.67	30.08
700.699	10.08
700.727	-7.92
700.755	-1.92
700.784	4.08
700.812	0.08
700.841	12.08
700.869	-9.92
700.897	-2.92
700.926	11.08
700.954	1.08
700.982	12.08
701.011	2.08
701.039	23.08
701.067	7.08
701.096	2.08
701.124	-6.92
701.152	18.08
701.181	10.08
701.209	-0.92
701.237	17.08
701.266	-11.92
701.294	-5.92
701.322	12.08
701.351	20.08
701.379	7.08
701.407	-11.92
701.435	-0.92
701.464	17.08
701.492	18.08
701.52	4.08
701.549	-2.92
701.577	-7.92
701.605	-6.92
701.634	2.08
701.662	-0.92
701.69	-10.92
701.718	-16.92
701.747	-7.92
701.775	4.08
701.803	11.08
701.831	14.08
701.86	-5.92
701.888	7.08
701.916	-12.92
701.944	0.08
701.973	-16.92
702.001	-12.92
702.029	-1.92
702.057	-0.92
702.086	-9.92
702.114	-3.92
702.142	1.08
702.17	-4.92
702.199	-2.92
702.227	9.08
702.255	-9.92
702.283	3.08
702.311	16.08
702.34	4.08
702.368	-12.92
702.396	-3.92
702.424	-9.92
702.452	-4.92
702.481	-7.92
702.509	6.08
702.537	-4.92
702.565	-2.92
702.593	-2.92
702.621	-5.92
702.65	-4.92
702.678	-4.92
702.706	-1.92
702.734	2.08
702.762	4.08
702.79	7.08
702.819	4.08
702.847	2.08
702.875	7.08
702.903	6.08
702.931	4.08
702.959	6.08
702.988	1.08
703.016	-4.92
703.044	5.08
703.072	5.08
703.1	1.08
703.128	-0.92
703.156	8.08
703.184	3.08
703.212	24.08
703.241	-0.92
703.269	3.08
703.297	3.08
703.325	18.08
703.353	7.08
703.381	-7.92
703.409	6.08
703.437	-15.92
703.465	12.08
703.493	-0.92
703.522	5.08
703.55	5.08
703.578	2.08
703.606	-0.92
703.634	-2.92
703.662	-5.92
703.69	3.08
703.718	5.08
703.746	37.08
703.774	-3.92
703.802	10.08
703.83	-8.92
703.858	-2.92
703.886	-2.92
703.914	-4.92
703.942	4.08
703.97	-5.92
703.998	-1.92
704.027	12.08
704.055	2.08
704.083	11.08
704.111	-6.92
704.139	7.08
704.167	2.08
704.195	-0.92
704.223	-6.92
704.251	-3.92
704.279	9.08
704.307	6.08
704.335	0.08
704.363	-2.92
704.391	-2.92
704.419	-2.92
704.447	8.08
704.475	5.08
704.503	1.08
704.531	4.08
704.558	-3.92
704.586	4.08
704.614	10.08
704.642	12.08
704.67	-11.92
704.698	1.08
704.726	17.08
704.754	-6.92
704.782	-0.92
704.81	-7.92
704.838	18.08
704.866	9.08
704.894	-10.92
704.922	-5.92
704.95	3.08
704.978	13.08
705.006	7.08
705.034	15.08
705.061	8.08
705.089	-9.92
705.117	-11.92
705.145	-14.92
705.173	3.08
705.201	9.08
705.229	8.08
705.257	-1.92
705.285	3.08
705.313	0.08
705.34	-8.92
705.368	-7.92
705.396	15.08
705.424	13.08
705.452	-4.92
705.48	3.08
705.508	4.08
705.536	-3.92
705.563	-7.92
705.591	18.08
705.619	-0.92
705.647	0.08
705.675	2.08
705.703	14.08
705.731	5.08
705.758	10.08
705.786	1.08
705.814	24.08
705.842	3.08
705.87	12.08
705.898	13.08
705.925	-14.92
705.953	1.08
705.981	-4.92
706.009	-5.92
706.037	-6.92
706.065	2.08
706.092	-26.92
706.12	7.08
706.148	7.08
706.176	-11.92
706.204	13.08
706.231	16.08
706.259	1.08
706.287	-6.92
706.315	7.08
706.342	-9.92
706.37	14.08
706.398	1.08
706.426	-6.92
706.454	10.08
706.481	13.08
706.509	2.08
706.537	8.08
706.565	1.08
706.592	4.08
706.62	-5.92
706.648	1.08
706.676	1.08
706.703	0.08
706.731	-0.92
706.759	-9.92
706.787	9.08
706.814	6.08
706.842	-2.92
706.87	4.08
706.897	-2.92
706.925	-7.92
706.953	5.08
706.981	24.08
707.008	7.08
707.036	14.08
707.064	1.08
707.091	-12.92
707.119	16.08
707.147	7.08
707.174	-4.92
707.202	4.08
707.23	-9.92
707.258	12.08
707.285	-15.92
707.313	-8.92
707.341	-1.92
707.368	-4.92
707.396	2.08
707.424	11.08
707.451	8.08
707.479	6.08
707.507	-10.92
707.534	7.08
707.562	-6.92
707.59	-26.92
707.617	7.08
707.645	-4.92
707.672	-4.92
707.7	-0.92
707.728	16.08
707.755	-7.92
707.783	-5.92
707.811	1.08
707.838	-0.92
707.866	-5.92
707.893	12.08
707.921	-10.92
707.949	-0.92
707.976	9.08
708.004	-2.92
708.031	9.08
708.059	-0.92
708.087	-4.92
708.114	-12.92
708.142	-5.92
708.169	-6.92
708.197	-18.92
708.225	1.08
708.252	-7.92
708.28	20.08
708.307	0.08
708.335	3.08
708.362	-14.92
708.39	-14.92
708.418	10.08
708.445	0.08
708.473	4.08
708.5	-3.92
708.528	13.08
708.555	-4.92
708.583	-4.92
708.61	-14.92
708.638	12.08
708.665	-2.92
708.693	4.08
708.72	-2.92
708.748	8.08
708.776	6.08
708.803	17.08
708.831	9.08
708.858	8.08
708.886	-8.92
708.913	16.08
708.941	-2.92
708.968	17.08
708.996	-1.92
709.023	32.08
709.051	0.08
709.078	0.08
709.105	1.08
709.133	-4.92
709.16	-11.92
709.188	5.08
709.215	1.08
709.243	11.08
709.27	-0.92
709.298	10.08
709.325	2.08
709.353	-3.92
709.38	-4.92
709.408	5.08
709.435	8.08
709.462	0.08
709.49	0.08
709.517	0.08
709.545	-8.92
709.572	-0.92
709.6	11.08
709.627	17.08
709.655	6.08
709.682	-5.92
709.709	6.08
709.737	7.08
709.764	-5.92
709.792	18.08
709.819	16.08
709.846	2.08
709.874	8.08
709.901	9.08
709.929	4.08
709.956	-7.92
709.983	-8.92
710.011	12.08
710.038	-0.92
710.066	8.08
710.093	16.08
710.12	-2.92
710.148	1.08
710.175	-7.92
710.202	-19.92
710.23	-8.92
710.257	10.08
710.284	1.08
710.312	4.08
710.339	14.08
710.366	-2.92
710.394	-5.92
710.421	-1.92
710.448	5.08
710.476	-5.92
710.503	20.08
710.53	4.08
710.558	11.08
710.585	-0.92
710.612	-13.92
710.64	0.08
710.667	-9.92
710.694	-8.92
710.722	-2.92
710.749	-0.92
710.776	1.08
710.804	21.08
710.831	-3.92
710.858	-0.92
710.885	-3.92
710.913	-5.92
710.94	20.08
710.967	12.08
710.995	-0.92
711.022	-9.92
711.049	2.08
711.076	-14.92
711.104	2.08
711.131	-13.92
711.158	11.08
711.185	0.08
711.213	-10.92
711.24	-12.92
711.267	-1.92
711.294	-16.92
711.322	-8.92
711.349	-14.92
711.376	-11.92
711.403	12.08
711.431	-0.92
711.458	0.08
711.485	-3.92
711.512	7.08
711.54	0.08
711.567	8.08
711.594	1.08
711.621	8.08
711.648	-5.92
711.676	4.08
711.703	5.08
711.73	-15.92
711.757	-5.92
711.784	-15.92
711.812	7.08
711.839	4.08
711.866	-6.92
711.893	-12.92
711.92	-1.92
711.947	-8.92
711.975	4.08
712.002	2.08
712.029	14.08
712.056	3.08
712.083	12.08
712.11	-9.92
712.138	9.08
712.165	-3.92
712.192	-0.92
712.219	-6.92
712.246	-23.92
712.273	-12.92
712.3	-9.92
712.328	4.08
712.355	-0.92
712.382	6.08
712.409	-0.92
712.436	-10.92
712.463	25.08
712.49	18.08
712.517	-2.92
712.544	-3.92
712.572	4.08
712.599	-10.92
712.626	8.08
712.653	-10.92
712.68	-2.92
712.707	12.08
712.734	4.08
712.761	6.08
712.788	8.08
712.815	-7.92
712.842	14.08
712.87	4.08
712.897	-9.92
712.924	-7.92
712.951	-1.92
712.978	13.08
713.005	6.08
713.032	15.08
713.059	0.08
713.086	-16.92
713.113	-1.92
713.14	-4.92
713.167	17.08
713.194	4.08
713.221	4.08
713.248	10.08
713.275	3.08
713.302	-11.92
713.329	9.08
713.356	10.08
713.383	12.08
713.41	16.08
713.437	-13.92
713.464	-5.92
713.491	4.08
713.518	5.08
713.545	-5.92
713.572	9.08
713.599	7.08
713.626	-4.92
713.653	4.08
713.68	-2.92
713.707	7.08
713.734	1.08
713.761	-8.92
713.788	3.08
713.815	0.08
713.842	0.08
713.869	0.08
713.896	-0.92
713.923	4.08
713.95	7.08
713.977	3.08
714.004	-0.92
714.031	-3.92
714.058	-3.92
714.085	-2.92
714.112	17.08
714.139	-0.92
714.165	-5.92
714.192	-0.92
714.219	17.08
714.246	0.08
714.273	10.08
714.3	-4.92
714.327	4.08
714.354	9.08
714.381	-2.92
714.408	-5.92
714.435	-4.92
714.461	3.08
714.488	7.08
714.515	3.08
714.542	-22.92
714.569	-15.92
714.596	-15.92
714.623	-11.92
714.65	-9.92
714.677	-0.92
714.703	5.08
714.73	-0.92
714.757	9.08
714.784	8.08
714.811	0.08
714.838	-15.92
714.865	-7.92
714.891	1.08
714.918	4.08
714.945	-2.92
714.972	-12.92
714.999	13.08
715.026	-0.92
715.052	8.08
715.079	-8.92
715.106	3.08
715.133	2.08
715.16	-12.92
715.187	5.08
715.213	18.08
715.24	20.08
715.267	-11.92
715.294	-1.92
715.321	-8.92
715.347	-5.92
715.374	3.08
715.401	8.08
715.428	24.08
715.455	2.08
715.481	-0.92
715.508	25.08
715.535	-1.92
715.562	11.08
715.588	-7.92
715.615	1.08
715.642	8.08
715.669	-12.92
715.695	-3.92
715.722	-11.92
715.749	2.08
715.776	7.08
715.802	1.08
715.829	-6.92
715.856	-10.92
715.883	9.08
715.909	-2.92
715.936	8.08
715.963	5.08
715.99	-16.92
716.016	-6.92
716.043	-4.92
716.07	-12.92
716.096	-14.92
716.123	3.08
716.15	11.08
716.177	9.08
716.203	9.08
716.23	10.08
716.257	10.08
716.283	10.08
716.31	-10.92
716.337	-5.92
716.363	-2.92
716.39	2.08
716.417	15.08
716.443	-7.92
716.47	7.08
716.497	8.08
716.523	6.08
716.55	5.08
716.577	16.08
716.603	20.08
716.63	13.08
716.657	13.08
716.683	-5.92
716.71	-4.92
716.737	5.08
716.763	3.08
716.79	8.08
716.817	11.08
716.843	17.08
716.87	-6.92
716.897	4.08
716.923	8.08
716.95	-11.92
716.976	-5.92
717.003	-11.92
717.03	11.08
717.056	2.08
717.083	-12.92
717.109	5.08
717.136	-1.92
717.163	4.08
717.189	20.08
717.216	3.08
717.242	2.08
717.269	-2.92
717.296	2.08
717.322	0.08
717.349	5.08
717.375	8.08
717.402	-3.92
717.428	-0.92
717.455	8.08
717.481	13.08
717.508	16.08
717.535	0.08
717.561	1.08
717.588	-3.92
717.614	0.08
717.641	8.08
717.667	-3.92
717.694	7.08
717.72	13.08
717.747	0.08
717.773	-7.92
717.8	5.08
717.826	3.08
717.853	6.08
717.88	10.08
717.906	-2.92
717.933	-0.92
717.959	15.08
717.986	5.08
718.012	-6.92
718.039	11.08
718.065	18.08
718.092	-7.92
718.118	-12.92
718.144	-3.92
718.171	14.08
718.197	19.08
718.224	4.08
718.25	16.08
718.277	0.08
718.303	5.08
718.33	-0.92
718.356	-6.92
718.383	-3.92
718.409	0.08
718.436	2.08
718.462	-2.92
718.489	8.08
718.515	8.08
718.541	3.08
718.568	-9.92
718.594	3.08
718.621	3.08
718.647	9.08
718.674	16.08
718.7	19.08
718.726	-10.92
718.753	-1.92
718.779	8.08
718.806	-4.92
718.832	0.08
718.858	8.08
718.885	-2.92
718.911	-4.92
718.938	1.08
718.964	-18.92
718.99	11.08
719.017	12.08
719.043	18.08
719.07	7.08
719.096	-0.92
719.122	15.08
719.149	2.08
719.175	-2.92
719.201	2.08
719.228	-8.92
719.254	2.08
719.281	-16.92
719.307	-3.92
719.333	18.08
719.36	34.08
719.386	-9.92
719.412	-3.92
719.439	-12.92
719.465	-6.92
719.491	-7.92
719.518	3.08
719.544	-3.92
719.57	16.08
719.597	11.08
719.623	-2.92
719.649	10.08
719.675	8.08
719.702	14.08
719.728	8.08
719.754	0.08
719.781	-5.92
719.807	1.08
719.833	-0.92
719.86	-6.92
719.886	5.08
719.912	11.08
719.938	-0.92
719.965	-2.92
719.991	10.08
720.017	2.08
720.044	-4.92
720.07	0.08
720.096	11.08
720.122	-2.92
720.149	-3.92
720.175	20.08
720.201	0.08
720.227	-8.92
720.254	-0.92
720.28	6.08
720.306	-3.92
720.332	5.08
720.359	13.08
720.385	8.08
720.411	18.08
720.437	-2.92
720.463	-1.92
720.49	17.08
720.516	5.08
720.542	1.08
720.568	-2.92
720.595	5.08
720.621	15.08
720.647	14.08
720.673	13.08
720.699	-9.92
720.725	11.08
720.752	-5.92
720.778	11.08
720.804	21.08
720.83	20.08
720.856	0.08
720.883	-6.92
720.909	-6.92
720.935	5.08
720.961	15.08
720.987	-4.92
721.013	-6.92
721.04	-10.92
721.066	0.08
721.092	-2.92
721.118	-0.92
721.144	-6.92
721.17	-15.92
721.196	3.08
721.223	-1.92
721.249	10.08
721.275	27.08
721.301	11.08
721.327	9.08
721.353	11.08
721.379	27.08
721.405	15.08
721.432	12.08
721.458	20.08
721.484	16.08
721.51	-7.92
721.536	-0.92
721.562	-2.92
721.588	-5.92
721.614	-10.92
721.64	-6.92
721.666	10.08
721.693	3.08
721.719	-10.92
721.745	-1.92
721.771	1.08
721.797	3.08
721.823	-6.92
721.849	5.08
721.875	-2.92
721.901	14.08
721.927	-2.92
721.953	9.08
721.979	19.08
722.005	14.08
722.031	-5.92
722.057	4.08
722.083	15.08
722.109	10.08
722.135	1.08
722.161	14.08
722.187	-13.92
722.214	-5.92
722.24	-3.92
722.266	-6.92
722.292	3.08
722.318	20.08
722.344	5.08
722.37	16.08
722.396	11.08
722.422	-0.92
722.448	1.08
722.474	-1.92
722.5	11.08
722.526	12.08
722.552	16.08
722.578	1.08
722.603	2.08
722.629	-3.92
722.655	13.08
722.681	-0.92
722.707	5.08
722.733	-8.92
722.759	-16.92
722.785	-10.92
722.811	-0.92
722.837	-1.92
722.863	6.08
722.889	11.08
722.915	9.08
722.941	0.08
722.967	-2.92
722.993	12.08
723.019	4.08
723.045	3.08
723.071	14.08
723.097	0.08
723.122	0.08
723.148	1.08
723.174	16.08
723.2	16.08
723.226	-0.92
723.252	8.08
723.278	9.08
723.304	12.08
723.33	7.08
723.356	-8.92
723.381	0.08
723.407	1.08
723.433	14.08
723.459	-10.92
723.485	-2.92
723.511	5.08
723.537	-3.92
723.563	-5.92
723.588	3.08
723.614	-7.92
723.64	-10.92
723.666	-13.92
723.692	1.08
723.718	5.08
723.744	11.08
723.769	-0.92
723.795	-5.92
723.821	-6.92
723.847	0.08
723.873	-7.92
723.899	7.08
723.924	0.08
723.95	8.08
723.976	3.08
724.002	5.08
724.028	14.08
724.053	7.08
724.079	4.08
724.105	-3.92
724.131	7.08
724.157	0.08
724.182	-10.92
724.208	-5.92
724.234	-2.92
724.26	4.08
724.286	8.08
724.311	8.08
724.337	-18.92
724.363	-11.92
724.389	-5.92
724.415	-11.92
724.44	11.08
724.466	-4.92
724.492	-0.92
724.518	8.08
724.543	4.08
724.569	-12.92
724.595	3.08
724.621	7.08
724.646	-10.92
724.672	10.08
724.698	5.08
724.723	-10.92
724.749	3.08
724.775	-1.92
724.801	-2.92
724.826	-6.92
724.852	3.08
724.878	-3.92
724.904	-8.92
724.929	2.08
724.955	-14.92
724.981	8.08
725.006	3.08
725.032	3.08
725.058	2.08
725.083	-2.92
725.109	-5.92
725.135	-0.92
725.161	-1.92
725.186	-2.92
725.212	-4.92
725.238	0.08
725.263	-6.92
725.289	-22.92
725.315	-14.92
725.34	-6.92
725.366	13.08
725.392	-2.92
725.417	-11.92
725.443	-9.92
725.468	-4.92
725.494	15.08
725.52	24.08
725.545	-7.92
725.571	-2.92
725.597	12.08
725.622	-11.92
725.648	5.08
725.674	17.08
725.699	-0.92
725.725	-3.92
725.75	15.08
725.776	-2.92
725.802	7.08
725.827	-2.92
725.853	5.08
725.878	9.08
725.904	7.08
725.93	2.08
725.955	-5.92
725.981	3.08
726.006	-4.92
726.032	13.08
726.057	-7.92
726.083	-4.92
726.109	-0.92
726.134	4.08
726.16	-5.92
726.185	-4.92
726.211	-12.92
726.236	11.08
726.262	5.08
726.288	15.08
726.313	-1.92
726.339	4.08
726.364	9.08
726.39	4.08
726.415	-3.92
726.441	-2.92
726.466	-10.92
726.492	0.08
726.517	2.08
726.543	2.08
726.568	-9.92
726.594	-6.92
726.619	-16.92
726.645	2.08
726.67	8.08
726.696	4.08
726.721	-20.92
726.747	1.08
726.772	-0.92
726.798	7.08
726.823	3.08
726.849	-4.92
726.874	13.08
726.9	18.08
726.925	13.08
726.951	-3.92
726.976	-0.92
727.002	-3.92
727.027	11.08
727.053	4.08
727.078	-3.92
727.104	-0.92
727.129	-9.92
727.155	-1.92
727.18	7.08
727.205	-7.92
727.231	-0.92
727.256	8.08
727.282	13.08
727.307	7.08
727.333	0.08
727.358	-2.92
727.383	2.08
727.409	-22.92
727.434	-6.92
727.46	-2.92
727.485	-12.92
727.511	15.08
727.536	-9.92
727.561	-4.92
727.587	-4.92
727.612	-8.92
727.637	2.08
727.663	-8.92
727.688	-0.92
727.714	8.08
727.739	5.08
727.764	-3.92
727.79	14.08
727.815	9.08
727.841	-4.92
727.866	-8.92
727.891	5.08
727.917	-6.92
727.942	-6.92
727.967	-12.92
727.993	-10.92
728.018	-4.92
728.043	8.08
728.069	12.08
728.094	6.08
728.119	-10.92
728.145	7.08
728.17	2.08
728.195	20.08
728.221	12.08
728.246	5.08
728.271	-6.92
728.297	-0.92
728.322	4.08
728.347	1.08
728.373	-8.92
728.398	6.08
728.423	-13.92
728.448	3.08
728.474	9.08
728.499	8.08
728.524	-5.92
728.55	-3.92
728.575	-3.92
728.6	11.08
728.625	0.08
728.651	1.08
728.676	1.08
728.701	-8.92
728.727	8.08
728.752	3.08
728.777	0.08
728.802	-1.92
728.828	1.08
728.853	19.08
728.878	5.08
728.903	-4.92
728.929	-11.92
728.954	7.08
728.979	17.08
729.004	-5.92
729.03	-8.92
729.055	3.08
729.08	-2.92
729.105	3.08
729.13	11.08
729.156	5.08
729.181	-10.92
729.206	-6.92
729.231	11.08
729.256	14.08
729.282	5.08
729.307	-2.92
729.332	-11.92
729.357	-6.92
729.382	-2.92
729.408	-9.92
729.433	22.08
729.458	0.08
729.483	24.08
729.508	5.08
729.533	10.08
729.559	4.08
729.584	-19.92
729.609	3.08
729.634	3.08
729.659	-6.92
729.684	-0.92
729.71	5.08
729.735	0.08
729.76	-1.92
729.785	-3.92
729.81	1.08
729.835	-10.92
729.86	1.08
729.886	9.08
729.911	0.08
729.936	-8.92
729.961	3.08
729.986	-12.92
730.011	-1.92
730.036	9.08
730.061	-8.92
730.086	8.08
730.112	-4.92
730.137	17.08
730.162	2.08
730.187	-7.92
730.212	-9.92
730.237	-6.92
730.262	0.08
730.287	-6.92
730.312	21.08
730.337	0.08
730.362	25.08
730.387	6.08
730.413	-1.92
730.438	6.08
730.463	7.08
730.488	-5.92
730.513	-13.92
730.538	-2.92
730.563	18.08
730.588	13.08
730.613	3.08
730.638	8.08
730.663	-0.92
730.688	25.08
730.713	-4.92
730.738	-0.92
730.763	-2.92
730.788	-7.92
730.813	-3.92
730.838	-8.92
730.863	3.08
730.888	-11.92
730.913	-15.92
730.938	-13.92
730.963	7.08
730.988	-7.92
731.013	7.08
731.038	-7.92
731.063	-1.92
731.088	-6.92
731.113	7.08
731.138	-2.92
731.163	-5.92
731.188	-16.92
731.213	-11.92
731.238	24.08
731.263	-6.92
731.288	-1.92
731.313	3.08
731.338	7.08
731.363	-6.92
731.388	5.08
731.413	-1.92
731.438	4.08
731.463	23.08
731.487	3.08
731.512	-11.92
731.537	-8.92
731.562	-4.92
731.587	-4.92
731.612	-0.92
731.637	-12.92
731.662	-9.92
731.687	5.08
731.712	-8.92
731.737	3.08
731.762	-1.92
731.786	-2.92
731.811	7.08
731.836	10.08
731.861	5.08
731.886	-1.92
731.911	-1.92
731.936	10.08
731.961	-0.92
731.986	-4.92
732.01	18.08
732.035	9.08
732.06	21.08
732.085	-0.92
732.11	-2.92
732.135	-8.92
732.16	-11.92
732.184	0.08
732.209	-3.92
732.234	-1.92
732.259	4.08
732.284	7.08
732.309	-2.92
732.334	3.08
732.358	-22.92
732.383	-12.92
732.408	-3.92
732.433	-10.92
732.458	-1.92
732.482	5.08
732.507	-13.92
732.532	4.08
732.557	23.08
732.582	17.08
732.607	8.08
732.631	-11.92
732.656	1.08
732.681	11.08
732.706	9.08
732.73	1.08
732.755	-7.92
732.78	8.08
732.805	11.08
732.83	-8.92
732.854	-2.92
732.879	1.08
732.904	-18.92
732.929	-6.92
732.953	1.08
732.978	-0.92
733.003	-8.92
733.028	-18.92
733.052	11.08
733.077	11.08
733.102	13.08
733.127	20.08
733.151	2.08
733.176	2.08
733.201	-0.92
733.226	-8.92
733.25	7.08
733.275	-0.92
733.3	9.08
733.324	13.08
733.349	2.08
733.374	21.08
733.399	-4.92
733.423	-9.92
733.448	-3.92
733.473	5.08
733.497	4.08
733.522	-11.92
733.547	7.08
733.571	17.08
733.596	-0.92
733.621	8.08
733.646	7.08
733.67	-1.92
733.695	6.08
733.72	-0.92
733.744	13.08
733.769	16.08
733.794	3.08
733.818	-3.92
733.843	0.08
733.867	-10.92
733.892	-4.92
733.917	1.08
733.941	-1.92
733.966	-2.92
733.991	-13.92
734.015	25.08
734.04	7.08
734.065	8.08
734.089	14.08
734.114	-0.92
734.138	0.08
734.163	-8.92
734.188	-3.92
734.212	-3.92
734.237	12.08
734.261	-1.92
734.286	-2.92
734.311	8.08
734.335	7.08
734.36	10.08
734.384	-4.92
734.409	-1.92
734.434	-5.92
734.458	-3.92
734.483	9.08
734.507	-6.92
734.532	2.08
734.556	-0.92
734.581	-5.92
734.606	-3.92
734.63	-12.92
734.655	8.08
734.679	-5.92
734.704	12.08
734.728	14.08
734.753	-20.92
734.777	9.08
734.802	11.08
734.826	15.08
734.851	1.08
734.876	3.08
734.9	3.08
734.925	-11.92
734.949	3.08
734.974	-4.92
734.998	1.08
735.023	-4.92
735.047	-5.92
735.072	15.08
735.096	2.08
735.121	0.08
735.145	-5.92
735.17	-2.92
735.194	-8.92
735.219	1.08
735.243	0.08
735.268	7.08
735.292	8.08
735.317	-5.92
735.341	0.08
735.365	-4.92
735.39	10.08
735.414	10.08
735.439	2.08
735.463	-0.92
735.488	7.08
735.512	-17.92
735.537	5.08
735.561	8.08
735.586	-1.92
735.61	16.08
735.634	-8.92
735.659	4.08
735.683	5.08
735.708	-1.92
735.732	-5.92
735.757	1.08
735.781	3.08
735.805	-8.92
735.83	-14.92
735.854	-12.92
735.879	1.08
735.903	4.08
735.927	14.08
735.952	20.08
735.976	4.08
736.001	-0.92
736.025	11.08
736.049	19.08
736.074	4.08
736.098	7.08
736.123	3.08
736.147	-4.92
736.171	-7.92
736.196	-2.92
736.22	-6.92
736.244	5.08
736.269	5.08
736.293	-5.92
736.317	-6.92
736.342	6.08
736.366	0.08
736.39	9.08
736.415	5.08
736.439	2.08
736.463	3.08
736.488	7.08
736.512	-5.92
736.536	7.08
736.561	28.08
736.585	6.08
736.609	15.08
736.634	-6.92
736.658	-2.92
736.682	5.08
736.707	-9.92
736.731	-8.92
736.755	-22.92
736.78	4.08
736.804	21.08
736.828	6.08
736.852	-15.92
736.877	12.08
736.901	6.08
736.925	0.08
736.949	7.08
736.974	-3.92
736.998	-13.92
737.022	-8.92
737.047	-10.92
737.071	-15.92
737.095	3.08
737.119	38.08
737.144	8.08
737.168	-22.92
737.192	-5.92
737.216	15.08
737.241	3.08
737.265	2.08
737.289	-10.92
737.313	2.08
737.337	-4.92
737.362	15.08
737.386	-0.92
737.41	-10.92
737.434	6.08
737.459	12.08
737.483	12.08
737.507	2.08
737.531	-2.92
737.555	3.08
737.58	18.08
737.604	7.08
737.628	-8.92
737.652	-6.92
737.676	0.08
737.701	-2.92
737.725	9.08
737.749	14.08
737.773	-2.92
737.797	-14.92
737.821	-5.92
737.846	5.08
737.87	16.08
737.894	-3.92
737.918	-6.92
737.942	4.08
737.966	10.08
737.99	9.08
738.015	4.08
738.039	-10.92
738.063	-8.92
738.087	2.08
738.111	-3.92
738.135	-3.92
738.159	-10.92
738.184	8.08
738.208	0.08
738.232	-6.92
738.256	24.08
738.28	5.08
738.304	9.08
738.328	-0.92
738.352	5.08
738.376	0.08
738.4	4.08
738.425	8.08
738.449	5.08
738.473	18.08
738.497	3.08
738.521	2.08
738.545	4.08
738.569	9.08
738.593	10.08
738.617	10.08
738.641	-6.92
738.665	-3.92
738.689	19.08
738.713	3.08
738.737	9.08
738.762	11.08
738.786	14.08
738.81	-14.92
738.834	15.08
738.858	-9.92
738.882	13.08
738.906	6.08
738.93	6.08
738.954	3.08
738.978	10.08
739.002	-5.92
739.026	0.08
739.05	-0.92
739.074	-1.92
739.098	21.08
739.122	31.08
739.146	12.08
739.17	12.08
739.194	3.08
739.218	-3.92
739.242	-7.92
739.266	8.08
739.29	13.08
739.314	-6.92
739.338	-0.92
739.362	1.08
739.386	10.08
739.41	-7.92
739.434	-16.92
739.458	13.08
739.482	0.08
739.506	8.08
739.53	16.08
739.554	8.08
739.577	-1.92
739.601	7.08
739.625	-0.92
739.649	-1.92
739.673	-2.92
739.697	7.08
739.721	5.08
739.745	11.08
739.769	19.08
739.793	6.08
739.817	19.08
739.841	-3.92
739.865	12.08
739.889	-10.92
739.912	10.08
739.936	-5.92
739.96	7.08
739.984	16.08
740.008	7.08
740.032	-7.92
740.056	-11.92
740.08	6.08
740.104	-0.92
740.127	18.08
740.151	-8.92
740.175	13.08
740.199	22.08
740.223	45.08
740.247	1.08
740.271	1.08
740.295	-10.92
740.318	-12.92
740.342	-12.92
740.366	-6.92
740.39	11.08
740.414	-2.92
740.438	-3.92
740.461	-3.92
740.485	3.08
740.509	-10.92
740.533	16.08
740.557	1.08
740.581	5.08
740.604	-2.92
740.628	-6.92
740.652	12.08
740.676	-6.92
740.7	18.08
740.723	10.08
740.747	-16.92
740.771	-4.92
740.795	4.08
740.819	7.08
740.842	-5.92
740.866	7.08
740.89	-0.92
740.914	10.08
740.938	-17.92
740.961	10.08
740.985	-1.92
741.009	-2.92
741.033	5.08
741.056	1.08
741.08	0.08
741.104	-0.92
741.128	2.08
741.151	18.08
741.175	-0.92
741.199	-7.92
741.223	17.08
741.246	-3.92
741.27	7.08
741.294	-4.92
741.318	-0.92
741.341	-4.92
741.365	-3.92
741.389	3.08
741.413	21.08
741.436	9.08
741.46	12.08
741.484	9.08
741.507	-7.92
741.531	26.08
741.555	24.08
741.579	4.08
741.602	14.08
741.626	14.08
741.65	-2.92
741.673	3.08
741.697	7.08
741.721	15.08
741.744	-14.92
741.768	-5.92
741.792	18.08
741.815	17.08
741.839	14.08
741.863	28.08
741.886	12.08
741.91	21.08
741.934	13.08
741.957	-15.92
741.981	25.08
742.005	17.08
742.028	-1.92
742.052	-10.92
742.075	-7.92
742.099	4.08
742.123	-6.92
742.146	-3.92
742.17	14.08
742.194	-7.92
742.217	2.08
742.241	-4.92
742.264	-6.92
742.288	20.08
742.312	16.08
742.335	-6.92
742.359	-3.92
742.382	1.08
742.406	17.08
742.43	-1.92
742.453	7.08
742.477	12.08
742.5	12.08
742.524	1.08
742.548	6.08
742.571	3.08
742.595	0.08
742.618	5.08
742.642	-6.92
742.665	8.08
742.689	-11.92
742.712	10.08
742.736	-3.92
742.76	9.08
742.783	0.08
742.807	14.08
742.83	14.08
742.854	-6.92
742.877	-1.92
742.901	1.08
742.924	-2.92
742.948	15.08
742.971	12.08
742.995	6.08
743.018	-10.92
743.042	-6.92
743.065	-12.92
743.089	0.08
743.112	-0.92
743.136	-9.92
743.159	-8.92
743.183	-8.92
743.206	3.08
743.23	-6.92
743.253	12.08
743.277	12.08
743.3	-11.92
743.324	-2.92
743.347	-13.92
743.371	8.08
743.394	6.08
743.418	22.08
743.441	2.08
743.465	3.08
743.488	6.08
743.512	-5.92
743.535	0.08
743.558	3.08
743.582	5.08
743.605	10.08
743.629	2.08
743.652	3.08
743.676	-6.92
743.699	8.08
743.723	-3.92
743.746	1.08
743.769	9.08
743.793	0.08
743.816	0.08
743.84	19.08
743.863	-0.92
743.886	12.08
743.91	2.08
743.933	16.08
743.957	12.08
743.98	-2.92
744.003	17.08
744.027	-4.92
744.05	-0.92
744.074	16.08
744.097	3.08
744.12	-6.92
744.144	-11.92
744.167	9.08
744.19	-7.92
744.214	4.08
744.237	-0.92
744.26	6.08
744.284	-0.92
744.307	-11.92
744.331	12.08
744.354	0.08
744.377	-2.92
744.401	6.08
744.424	-3.92
744.447	-28.92
744.471	-23.92
