Data from HighRes_H2_15_09_11_07_2024_HR4C61891__127__15-11-09-101.txt Node

Date: Thu Nov 07 15:11:09 EST 2024
User: crc00042
Spectrometer: HR4C6189
Trigger mode: 4
Integration Time (sec): 1.000000E-1
Scans to average: 1
Electric dark correction enabled: true
Nonlinearity correction enabled: false
Boxcar width: 0
XAxis mode: Wavelengths
Number of Pixels in Spectrum: 3648
>>>>>Begin Spectral Data<<<<<
639.567	-27.31
639.602	-27.31
639.636	-27.31
639.67	-41.31
639.704	-4.31
639.738	5.69
639.773	9.69
639.807	-11.31
639.841	8.69
639.875	13.69
639.909	0.69
639.943	-20.31
639.978	-5.31
640.012	-1.31
640.046	6.69
640.08	7.69
640.114	-3.31
640.148	-11.31
640.182	-11.31
640.217	-8.31
640.251	24.69
640.285	5.69
640.319	3.69
640.353	15.69
640.387	2.69
640.421	-4.31
640.455	4.69
640.49	-4.31
640.524	6.69
640.558	23.69
640.592	-6.31
640.626	-5.31
640.66	5.69
640.694	0.69
640.728	2.69
640.762	6.69
640.796	13.69
640.83	2.69
640.865	-1.31
640.899	7.69
640.933	-6.31
640.967	-7.31
641.001	6.69
641.035	-3.31
641.069	-14.31
641.103	-17.31
641.137	1.69
641.171	-8.31
641.205	3.69
641.239	-8.31
641.273	10.69
641.307	10.69
641.341	26.69
641.375	-2.31
641.409	-6.31
641.443	-7.31
641.477	20.69
641.511	13.69
641.545	11.69
641.579	-3.31
641.614	6.69
641.648	-3.31
641.682	-8.31
641.716	15.69
641.75	9.69
641.784	6.69
641.818	-6.31
641.852	-4.31
641.886	0.69
641.919	9.69
641.953	12.69
641.987	0.69
642.021	-7.31
642.055	2.69
642.089	-2.31
642.123	-10.31
642.157	-5.31
642.191	-13.31
642.225	21.69
642.259	7.69
642.293	-3.31
642.327	13.69
642.361	4.69
642.395	9.69
642.429	18.69
642.463	13.69
642.497	9.69
642.531	19.69
642.565	12.69
642.599	15.69
642.633	-3.31
642.666	1.69
642.7	7.69
642.734	13.69
642.768	1.69
642.802	-13.31
642.836	21.69
642.87	1.69
642.904	9.69
642.938	6.69
642.972	1.69
643.005	11.69
643.039	21.69
643.073	15.69
643.107	0.69
643.141	15.69
643.175	3.69
643.209	-14.31
643.243	-6.31
643.276	-6.31
643.31	-9.31
643.344	0.69
643.378	8.69
643.412	4.69
643.446	5.69
643.48	-3.31
643.513	1.69
643.547	7.69
643.581	-3.31
643.615	3.69
643.649	3.69
643.683	8.69
643.716	3.69
643.75	7.69
643.784	-14.31
643.818	13.69
643.852	1.69
643.886	0.69
643.919	6.69
643.953	-8.31
643.987	6.69
644.021	-3.31
644.055	-2.31
644.088	-13.31
644.122	-12.31
644.156	-0.31
644.19	4.69
644.224	-9.31
644.257	0.69
644.291	-1.31
644.325	4.69
644.359	-4.31
644.392	17.69
644.426	16.69
644.46	18.69
644.494	0.69
644.527	-4.31
644.561	-0.31
644.595	1.69
644.629	-14.31
644.662	3.69
644.696	16.69
644.73	10.69
644.764	7.69
644.797	8.69
644.831	7.69
644.865	3.69
644.899	-4.31
644.932	10.69
644.966	-12.31
645	16.69
645.033	22.69
645.067	-12.31
645.101	5.69
645.135	22.69
645.168	2.69
645.202	-10.31
645.236	-0.31
645.269	13.69
645.303	2.69
645.337	-20.31
645.37	-9.31
645.404	-0.31
645.438	6.69
645.471	8.69
645.505	24.69
645.539	4.69
645.572	-6.31
645.606	-11.31
645.64	1.69
645.673	7.69
645.707	23.69
645.741	-3.31
645.774	-0.31
645.808	-5.31
645.842	1.69
645.875	13.69
645.909	3.69
645.943	-1.31
645.976	12.69
646.01	-3.31
646.043	7.69
646.077	15.69
646.111	5.69
646.144	5.69
646.178	17.69
646.212	-7.31
646.245	2.69
646.279	9.69
646.312	5.69
646.346	17.69
646.38	0.69
646.413	12.69
646.447	9.69
646.48	-10.31
646.514	8.69
646.547	-1.31
646.581	-14.31
646.615	-9.31
646.648	-10.31
646.682	2.69
646.715	-3.31
646.749	9.69
646.782	1.69
646.816	12.69
646.85	10.69
646.883	-16.31
646.917	8.69
646.95	-4.31
646.984	-0.31
647.017	-2.31
647.051	0.69
647.084	9.69
647.118	-6.31
647.151	-2.31
647.185	11.69
647.218	-5.31
647.252	15.69
647.285	-16.31
647.319	-12.31
647.353	14.69
647.386	29.69
647.42	15.69
647.453	7.69
647.487	2.69
647.52	11.69
647.553	0.69
647.587	5.69
647.62	2.69
647.654	10.69
647.687	15.69
647.721	10.69
647.754	6.69
647.788	1.69
647.821	3.69
647.855	24.69
647.888	17.69
647.922	12.69
647.955	28.69
647.989	4.69
648.022	6.69
648.055	11.69
648.089	3.69
648.122	7.69
648.156	-21.31
648.189	-3.31
648.223	3.69
648.256	24.69
648.29	11.69
648.323	2.69
648.356	13.69
648.39	5.69
648.423	-2.31
648.457	-7.31
648.49	-0.31
648.523	6.69
648.557	0.69
648.59	0.69
648.624	-5.31
648.657	3.69
648.69	12.69
648.724	4.69
648.757	12.69
648.791	12.69
648.824	21.69
648.857	22.69
648.891	15.69
648.924	6.69
648.957	18.69
648.991	-3.31
649.024	13.69
649.057	-5.31
649.091	-16.31
649.124	9.69
649.158	9.69
649.191	22.69
649.224	9.69
649.258	6.69
649.291	-1.31
649.324	15.69
649.358	3.69
649.391	9.69
649.424	-14.31
649.458	0.69
649.491	3.69
649.524	-2.31
649.557	3.69
649.591	-23.31
649.624	3.69
649.657	7.69
649.691	-1.31
649.724	7.69
649.757	-2.31
649.791	-7.31
649.824	10.69
649.857	15.69
649.89	3.69
649.924	-9.31
649.957	-7.31
649.99	-13.31
650.023	-4.31
650.057	1.69
650.09	9.69
650.123	-1.31
650.157	7.69
650.19	24.69
650.223	3.69
650.256	-6.31
650.29	-14.31
650.323	-7.31
650.356	5.69
650.389	-6.31
650.423	-10.31
650.456	5.69
650.489	-4.31
650.522	21.69
650.555	16.69
650.589	-11.31
650.622	-11.31
650.655	14.69
650.688	22.69
650.721	-8.31
650.755	4.69
650.788	11.69
650.821	0.69
650.854	2.69
650.887	15.69
650.921	2.69
650.954	5.69
650.987	17.69
651.02	7.69
651.053	-15.31
651.087	-12.31
651.12	8.69
651.153	4.69
651.186	12.69
651.219	-15.31
651.252	2.69
651.286	4.69
651.319	-15.31
651.352	4.69
651.385	20.69
651.418	-8.31
651.451	11.69
651.484	-5.31
651.518	-7.31
651.551	6.69
651.584	-15.31
651.617	22.69
651.65	-6.31
651.683	9.69
651.716	-6.31
651.749	-10.31
651.783	10.69
651.816	4.69
651.849	8.69
651.882	1.69
651.915	-5.31
651.948	6.69
651.981	-2.31
652.014	-6.31
652.047	5.69
652.08	-3.31
652.114	-1.31
652.147	-11.31
652.18	0.69
652.213	26.69
652.246	0.69
652.279	-8.31
652.312	5.69
652.345	6.69
652.378	15.69
652.411	28.69
652.444	11.69
652.477	3.69
652.51	-1.31
652.543	-11.31
652.576	0.69
652.609	-9.31
652.642	-22.31
652.675	9.69
652.709	5.69
652.742	2.69
652.775	-0.31
652.808	9.69
652.841	-1.31
652.874	-0.31
652.907	8.69
652.94	-1.31
652.973	-24.31
653.006	-9.31
653.039	-6.31
653.072	10.69
653.105	1.69
653.138	-13.31
653.171	-5.31
653.204	1.69
653.237	1.69
653.27	-10.31
653.303	6.69
653.336	11.69
653.368	-8.31
653.401	-14.31
653.434	-4.31
653.467	11.69
653.5	3.69
653.533	-13.31
653.566	-3.31
653.599	-12.31
653.632	4.69
653.665	12.69
653.698	3.69
653.731	-12.31
653.764	0.69
653.797	9.69
653.83	12.69
653.863	3.69
653.896	-1.31
653.929	-6.31
653.961	5.69
653.994	-3.31
654.027	-14.31
654.06	10.69
654.093	13.69
654.126	0.69
654.159	-9.31
654.192	14.69
654.225	-7.31
654.258	0.69
654.29	15.69
654.323	-3.31
654.356	-16.31
654.389	-5.31
654.422	2.69
654.455	2.69
654.488	-7.31
654.521	-9.31
654.553	-16.31
654.586	6.69
654.619	0.69
654.652	-2.31
654.685	16.69
654.718	16.69
654.751	7.69
654.783	-5.31
654.816	10.69
654.849	11.69
654.882	-10.31
654.915	-23.31
654.948	3.69
654.98	-10.31
655.013	-0.31
655.046	2.69
655.079	-16.31
655.112	2.69
655.144	-14.31
655.177	-7.31
655.21	23.69
655.243	8.69
655.276	19.69
655.308	-2.31
655.341	-4.31
655.374	-4.31
655.407	-9.31
655.44	-6.31
655.472	19.69
655.505	10.69
655.538	-2.31
655.571	13.69
655.603	7.69
655.636	6.69
655.669	13.69
655.702	11.69
655.734	2.69
655.767	8.69
655.8	16.69
655.833	21.69
655.865	42.69
655.898	21.69
655.931	38.69
655.964	44.69
655.996	41.69
656.029	62.69
656.062	65.69
656.095	80.69
656.127	68.69
656.16	107.69
656.193	138.69
656.225	173.69
656.258	282.69
656.291	512.69
656.324	1119.69
656.356	3384.69
656.389	7641.69
656.422	6058.69
656.454	2068.69
656.487	691.69
656.52	254.69
656.552	115.69
656.585	90.69
656.618	63.69
656.65	40.69
656.683	19.69
656.716	24.69
656.748	9.69
656.781	-7.31
656.814	-5.31
656.846	2.69
656.879	4.69
656.912	-2.31
656.944	-23.31
656.977	-6.31
657.01	-13.31
657.042	1.69
657.075	5.69
657.108	-1.31
657.14	7.69
657.173	17.69
657.205	28.69
657.238	15.69
657.271	-1.31
657.303	-16.31
657.336	4.69
657.369	-5.31
657.401	-2.31
657.434	9.69
657.466	9.69
657.499	3.69
657.532	6.69
657.564	11.69
657.597	-5.31
657.629	5.69
657.662	-11.31
657.694	7.69
657.727	-17.31
657.76	-2.31
657.792	-13.31
657.825	2.69
657.857	-10.31
657.89	-5.31
657.922	18.69
657.955	3.69
657.987	7.69
658.02	15.69
658.053	16.69
658.085	2.69
658.118	-4.31
658.15	4.69
658.183	21.69
658.215	2.69
658.248	-4.31
658.28	0.69
658.313	0.69
658.345	10.69
658.378	0.69
658.41	1.69
658.443	18.69
658.475	3.69
658.508	0.69
658.54	-7.31
658.573	1.69
658.605	11.69
658.638	5.69
658.67	9.69
658.703	-8.31
658.735	-5.31
658.768	-9.31
658.8	-1.31
658.833	8.69
658.865	-1.31
658.898	-0.31
658.93	-12.31
658.963	2.69
658.995	-18.31
659.028	8.69
659.06	-5.31
659.092	-21.31
659.125	-10.31
659.157	12.69
659.19	-3.31
659.222	-12.31
659.255	-11.31
659.287	3.69
659.32	-6.31
659.352	4.69
659.384	33.69
659.417	-2.31
659.449	8.69
659.482	-2.31
659.514	-9.31
659.546	3.69
659.579	-4.31
659.611	7.69
659.644	-3.31
659.676	-13.31
659.708	1.69
659.741	-6.31
659.773	8.69
659.806	4.69
659.838	-1.31
659.87	-9.31
659.903	-9.31
659.935	3.69
659.967	-4.31
660	2.69
660.032	-6.31
660.065	2.69
660.097	-4.31
660.129	3.69
660.162	-6.31
660.194	4.69
660.226	7.69
660.259	11.69
660.291	6.69
660.323	4.69
660.356	15.69
660.388	-9.31
660.42	-1.31
660.453	8.69
660.485	24.69
660.517	8.69
660.55	1.69
660.582	-10.31
660.614	14.69
660.647	-16.31
660.679	-13.31
660.711	-4.31
660.743	-9.31
660.776	-15.31
660.808	-7.31
660.84	3.69
660.873	17.69
660.905	7.69
660.937	-13.31
660.969	-11.31
661.002	-4.31
661.034	-3.31
661.066	-12.31
661.099	15.69
661.131	16.69
661.163	3.69
661.195	10.69
661.228	9.69
661.26	-0.31
661.292	-2.31
661.324	8.69
661.357	5.69
661.389	14.69
661.421	4.69
661.453	1.69
661.485	0.69
661.518	4.69
661.55	-4.31
661.582	-4.31
661.614	13.69
661.647	2.69
661.679	-14.31
661.711	0.69
661.743	3.69
661.775	8.69
661.808	14.69
661.84	-2.31
661.872	4.69
661.904	5.69
661.936	6.69
661.969	-19.31
662.001	-9.31
662.033	-8.31
662.065	7.69
662.097	7.69
662.129	25.69
662.162	-13.31
662.194	-12.31
662.226	3.69
662.258	5.69
662.29	-13.31
662.322	-21.31
662.355	-13.31
662.387	29.69
662.419	15.69
662.451	2.69
662.483	-6.31
662.515	-9.31
662.547	3.69
662.58	-14.31
662.612	-10.31
662.644	-5.31
662.676	12.69
662.708	17.69
662.74	2.69
662.772	-0.31
662.804	2.69
662.836	10.69
662.869	-3.31
662.901	3.69
662.933	7.69
662.965	16.69
662.997	12.69
663.029	2.69
663.061	1.69
663.093	1.69
663.125	5.69
663.157	19.69
663.189	19.69
663.221	8.69
663.254	12.69
663.286	6.69
663.318	-5.31
663.35	4.69
663.382	7.69
663.414	13.69
663.446	5.69
663.478	2.69
663.51	29.69
663.542	-6.31
663.574	5.69
663.606	19.69
663.638	-3.31
663.67	0.69
663.702	8.69
663.734	10.69
663.766	-2.31
663.798	-12.31
663.83	4.69
663.862	16.69
663.894	10.69
663.926	4.69
663.958	15.69
663.99	-2.31
664.022	-4.31
664.054	0.69
664.086	1.69
664.118	-14.31
664.15	-15.31
664.182	2.69
664.214	4.69
664.246	-1.31
664.278	-1.31
664.31	11.69
664.342	11.69
664.374	16.69
664.406	8.69
664.438	-2.31
664.47	11.69
664.502	3.69
664.534	-4.31
664.566	-15.31
664.598	5.69
664.63	-9.31
664.662	-6.31
664.693	2.69
664.725	-2.31
664.757	-13.31
664.789	-22.31
664.821	-10.31
664.853	7.69
664.885	-1.31
664.917	7.69
664.949	8.69
664.981	16.69
665.013	5.69
665.045	-13.31
665.076	-7.31
665.108	-14.31
665.14	-2.31
665.172	6.69
665.204	-19.31
665.236	-5.31
665.268	22.69
665.3	9.69
665.331	-9.31
665.363	11.69
665.395	3.69
665.427	9.69
665.459	23.69
665.491	1.69
665.523	-1.31
665.555	3.69
665.586	8.69
665.618	8.69
665.65	-26.31
665.682	7.69
665.714	-6.31
665.746	-7.31
665.777	6.69
665.809	-1.31
665.841	-14.31
665.873	9.69
665.905	5.69
665.937	12.69
665.968	1.69
666	7.69
666.032	0.69
666.064	-3.31
666.096	-2.31
666.127	3.69
666.159	20.69
666.191	-8.31
666.223	2.69
666.255	6.69
666.286	-0.31
666.318	10.69
666.35	11.69
666.382	16.69
666.413	-15.31
666.445	-17.31
666.477	0.69
666.509	-6.31
666.54	12.69
666.572	-9.31
666.604	6.69
666.636	-1.31
666.667	22.69
666.699	10.69
666.731	13.69
666.763	-1.31
666.794	-12.31
666.826	9.69
666.858	-20.31
666.89	0.69
666.921	12.69
666.953	6.69
666.985	0.69
667.017	10.69
667.048	-15.31
667.08	-20.31
667.112	-18.31
667.143	-6.31
667.175	-6.31
667.207	-0.31
667.238	2.69
667.27	12.69
667.302	0.69
667.334	2.69
667.365	2.69
667.397	11.69
667.429	-9.31
667.46	-7.31
667.492	3.69
667.524	-23.31
667.555	-6.31
667.587	7.69
667.619	-3.31
667.65	-12.31
667.682	2.69
667.714	1.69
667.745	1.69
667.777	-4.31
667.808	14.69
667.84	1.69
667.872	3.69
667.903	29.69
667.935	-4.31
667.967	-1.31
667.998	-3.31
668.03	2.69
668.061	9.69
668.093	-5.31
668.125	-0.31
668.156	-5.31
668.188	5.69
668.22	-11.31
668.251	3.69
668.283	12.69
668.314	8.69
668.346	4.69
668.377	3.69
668.409	8.69
668.441	7.69
668.472	-3.31
668.504	-4.31
668.535	1.69
668.567	17.69
668.599	11.69
668.63	-10.31
668.662	-13.31
668.693	1.69
668.725	4.69
668.756	-6.31
668.788	14.69
668.819	10.69
668.851	-0.31
668.882	-3.31
668.914	-10.31
668.946	2.69
668.977	-2.31
669.009	-0.31
669.04	-24.31
669.072	-0.31
669.103	3.69
669.135	2.69
669.166	3.69
669.198	3.69
669.229	5.69
669.261	-8.31
669.292	-15.31
669.324	-2.31
669.355	-0.31
669.387	-0.31
669.418	15.69
669.45	-7.31
669.481	2.69
669.513	4.69
669.544	5.69
669.576	5.69
669.607	-3.31
669.639	3.69
669.67	-8.31
669.701	-0.31
669.733	-10.31
669.764	0.69
669.796	19.69
669.827	5.69
669.859	-3.31
669.89	-3.31
669.922	-0.31
669.953	6.69
669.985	3.69
670.016	2.69
670.047	-7.31
670.079	2.69
670.11	-2.31
670.142	12.69
670.173	13.69
670.204	7.69
670.236	3.69
670.267	6.69
670.299	-2.31
670.33	-3.31
670.362	12.69
670.393	-13.31
670.424	0.69
670.456	-19.31
670.487	-4.31
670.518	-2.31
670.55	10.69
670.581	0.69
670.613	13.69
670.644	3.69
670.675	-22.31
670.707	-12.31
670.738	7.69
670.769	-2.31
670.801	-21.31
670.832	6.69
670.864	0.69
670.895	3.69
670.926	-0.31
670.958	-4.31
670.989	-14.31
671.02	-7.31
671.052	2.69
671.083	-0.31
671.114	-13.31
671.146	6.69
671.177	15.69
671.208	8.69
671.24	-6.31
671.271	-1.31
671.302	18.69
671.333	3.69
671.365	-7.31
671.396	-3.31
671.427	24.69
671.459	9.69
671.49	-0.31
671.521	3.69
671.553	0.69
671.584	2.69
671.615	-5.31
671.646	-1.31
671.678	-8.31
671.709	-4.31
671.74	2.69
671.771	0.69
671.803	8.69
671.834	7.69
671.865	2.69
671.896	6.69
671.928	1.69
671.959	0.69
671.99	-1.31
672.021	-9.31
672.053	-0.31
672.084	10.69
672.115	6.69
672.146	-3.31
672.178	-11.31
672.209	-13.31
672.24	2.69
672.271	27.69
672.303	9.69
672.334	2.69
672.365	-11.31
672.396	2.69
672.427	8.69
672.459	-3.31
672.49	25.69
672.521	10.69
672.552	8.69
672.583	-2.31
672.615	-0.31
672.646	10.69
672.677	-11.31
672.708	-12.31
672.739	0.69
672.77	8.69
672.802	-4.31
672.833	-0.31
672.864	8.69
672.895	-3.31
672.926	-10.31
672.957	-9.31
672.989	-12.31
673.02	6.69
673.051	-20.31
673.082	10.69
673.113	0.69
673.144	3.69
673.175	21.69
673.206	0.69
673.238	1.69
673.269	-2.31
673.3	-0.31
673.331	16.69
673.362	11.69
673.393	-2.31
673.424	0.69
673.455	17.69
673.487	9.69
673.518	27.69
673.549	9.69
673.58	1.69
673.611	-3.31
673.642	0.69
673.673	-14.31
673.704	-2.31
673.735	-5.31
673.766	3.69
673.797	-6.31
673.828	8.69
673.86	2.69
673.891	-14.31
673.922	-7.31
673.953	2.69
673.984	-3.31
674.015	4.69
674.046	4.69
674.077	9.69
674.108	-4.31
674.139	-8.31
674.17	-19.31
674.201	-0.31
674.232	-11.31
674.263	-5.31
674.294	-6.31
674.325	-17.31
674.356	12.69
674.387	20.69
674.418	-1.31
674.449	-7.31
674.48	-12.31
674.511	-12.31
674.542	3.69
674.573	-14.31
674.604	12.69
674.635	-3.31
674.666	10.69
674.697	1.69
674.728	11.69
674.759	9.69
674.79	-7.31
674.821	-8.31
674.852	-7.31
674.883	-4.31
674.914	6.69
674.945	13.69
674.976	7.69
675.007	-8.31
675.038	-14.31
675.069	-18.31
675.1	-5.31
675.131	2.69
675.162	-17.31
675.193	-25.31
675.224	-3.31
675.254	2.69
675.285	-4.31
675.316	15.69
675.347	-7.31
675.378	-14.31
675.409	-4.31
675.44	-1.31
675.471	-9.31
675.502	-14.31
675.533	-2.31
675.564	15.69
675.595	3.69
675.625	21.69
675.656	2.69
675.687	11.69
675.718	-15.31
675.749	1.69
675.78	2.69
675.811	1.69
675.842	1.69
675.873	-3.31
675.903	-2.31
675.934	3.69
675.965	-5.31
675.996	-10.31
676.027	4.69
676.058	1.69
676.089	-18.31
676.119	3.69
676.15	-8.31
676.181	0.69
676.212	-10.31
676.243	-18.31
676.274	-12.31
676.304	18.69
676.335	-19.31
676.366	3.69
676.397	1.69
676.428	0.69
676.459	-19.31
676.489	-16.31
676.52	-11.31
676.551	-0.31
676.582	-14.31
676.613	8.69
676.643	-1.31
676.674	3.69
676.705	8.69
676.736	1.69
676.767	6.69
676.797	11.69
676.828	-0.31
676.859	-1.31
676.89	1.69
676.92	6.69
676.951	7.69
676.982	12.69
677.013	-0.31
677.044	16.69
677.074	-0.31
677.105	-4.31
677.136	6.69
677.167	2.69
677.197	11.69
677.228	4.69
677.259	-25.31
677.289	1.69
677.32	-18.31
677.351	-14.31
677.382	-6.31
677.412	-0.31
677.443	8.69
677.474	-5.31
677.505	-26.31
677.535	2.69
677.566	4.69
677.597	-7.31
677.627	2.69
677.658	0.69
677.689	2.69
677.72	23.69
677.75	4.69
677.781	1.69
677.812	5.69
677.842	15.69
677.873	-3.31
677.904	-0.31
677.934	2.69
677.965	-7.31
677.996	-15.31
678.026	-7.31
678.057	5.69
678.088	2.69
678.118	-5.31
678.149	-11.31
678.18	-6.31
678.21	13.69
678.241	10.69
678.272	-7.31
678.302	-14.31
678.333	4.69
678.363	8.69
678.394	11.69
678.425	3.69
678.455	10.69
678.486	17.69
678.517	0.69
678.547	7.69
678.578	8.69
678.608	-16.31
678.639	7.69
678.67	-0.31
678.7	-6.31
678.731	8.69
678.761	7.69
678.792	-3.31
678.823	11.69
678.853	20.69
678.884	-17.31
678.914	-2.31
678.945	-1.31
678.975	-10.31
679.006	6.69
679.037	-10.31
679.067	30.69
679.098	5.69
679.128	-12.31
679.159	-8.31
679.189	-2.31
679.22	-2.31
679.25	7.69
679.281	-3.31
679.312	-8.31
679.342	2.69
679.373	42.69
679.403	7.69
679.434	3.69
679.464	-0.31
679.495	4.69
679.525	-9.31
679.556	-3.31
679.586	4.69
679.617	17.69
679.647	2.69
679.678	-8.31
679.708	0.69
679.739	-3.31
679.769	3.69
679.8	-3.31
679.83	15.69
679.861	5.69
679.891	-1.31
679.922	-10.31
679.952	3.69
679.983	4.69
680.013	7.69
680.044	-6.31
680.074	12.69
680.105	10.69
680.135	-6.31
680.165	18.69
680.196	6.69
680.226	6.69
680.257	-12.31
680.287	1.69
680.318	-10.31
680.348	-3.31
680.379	9.69
680.409	-2.31
680.439	-23.31
680.47	-14.31
680.5	-8.31
680.531	2.69
680.561	3.69
680.592	-0.31
680.622	18.69
680.652	0.69
680.683	16.69
680.713	7.69
680.744	-12.31
680.774	-8.31
680.804	14.69
680.835	-5.31
680.865	-12.31
680.896	16.69
680.926	26.69
680.956	13.69
680.987	11.69
681.017	3.69
681.047	11.69
681.078	-4.31
681.108	3.69
681.139	-11.31
681.169	-0.31
681.199	-8.31
681.23	15.69
681.26	-5.31
681.29	11.69
681.321	-8.31
681.351	8.69
681.381	-11.31
681.412	-9.31
681.442	-10.31
681.472	4.69
681.503	25.69
681.533	4.69
681.563	-7.31
681.594	1.69
681.624	-7.31
681.654	-8.31
681.685	-4.31
681.715	-5.31
681.745	-9.31
681.775	-13.31
681.806	6.69
681.836	4.69
681.866	-4.31
681.897	1.69
681.927	11.69
681.957	-16.31
681.987	-1.31
682.018	8.69
682.048	-1.31
682.078	15.69
682.109	21.69
682.139	8.69
682.169	-7.31
682.199	2.69
682.23	-3.31
682.26	6.69
682.29	-3.31
682.32	-5.31
682.351	-0.31
682.381	8.69
682.411	-12.31
682.441	-12.31
682.472	-8.31
682.502	-3.31
682.532	-14.31
682.562	-6.31
682.592	9.69
682.623	8.69
682.653	4.69
682.683	-6.31
682.713	1.69
682.743	-8.31
682.774	-6.31
682.804	4.69
682.834	18.69
682.864	-1.31
682.894	21.69
682.925	-20.31
682.955	-0.31
682.985	-7.31
683.015	-6.31
683.045	26.69
683.076	-1.31
683.106	4.69
683.136	-6.31
683.166	-8.31
683.196	1.69
683.226	10.69
683.257	4.69
683.287	-4.31
683.317	-3.31
683.347	2.69
683.377	9.69
683.407	-0.31
683.437	14.69
683.468	1.69
683.498	4.69
683.528	5.69
683.558	7.69
683.588	-3.31
683.618	8.69
683.648	-7.31
683.678	12.69
683.708	6.69
683.739	5.69
683.769	7.69
683.799	-3.31
683.829	-14.31
683.859	4.69
683.889	11.69
683.919	1.69
683.949	3.69
683.979	-3.31
684.009	5.69
684.039	-2.31
684.07	-14.31
684.1	4.69
684.13	12.69
684.16	13.69
684.19	-3.31
684.22	15.69
684.25	-1.31
684.28	-5.31
684.31	17.69
684.34	3.69
684.37	8.69
684.4	-15.31
684.43	-10.31
684.46	-9.31
684.49	-1.31
684.52	2.69
684.55	13.69
684.58	-15.31
684.61	-0.31
684.64	7.69
684.67	23.69
684.7	11.69
684.73	16.69
684.76	-0.31
684.79	12.69
684.82	-11.31
684.85	6.69
684.88	15.69
684.91	2.69
684.94	-4.31
684.97	-9.31
685	11.69
685.03	-16.31
685.06	-9.31
685.09	-9.31
685.12	5.69
685.15	1.69
685.18	2.69
685.21	4.69
685.24	8.69
685.27	6.69
685.3	7.69
685.33	14.69
685.36	0.69
685.39	1.69
685.42	-8.31
685.45	4.69
685.48	12.69
685.51	-4.31
685.54	-0.31
685.569	11.69
685.599	0.69
685.629	3.69
685.659	-5.31
685.689	3.69
685.719	-9.31
685.749	-6.31
685.779	-6.31
685.809	-5.31
685.839	12.69
685.869	8.69
685.898	9.69
685.928	-11.31
685.958	-11.31
685.988	27.69
686.018	19.69
686.048	16.69
686.078	18.69
686.108	14.69
686.137	-3.31
686.167	31.69
686.197	-7.31
686.227	7.69
686.257	24.69
686.287	12.69
686.317	-1.31
686.346	7.69
686.376	9.69
686.406	0.69
686.436	-14.31
686.466	9.69
686.496	6.69
686.525	-3.31
686.555	-10.31
686.585	13.69
686.615	18.69
686.645	15.69
686.675	-8.31
686.704	7.69
686.734	14.69
686.764	0.69
686.794	5.69
686.824	-11.31
686.853	13.69
686.883	20.69
686.913	7.69
686.943	3.69
686.973	0.69
687.002	11.69
687.032	6.69
687.062	0.69
687.092	9.69
687.121	-10.31
687.151	7.69
687.181	7.69
687.211	11.69
687.24	10.69
687.27	13.69
687.3	10.69
687.33	23.69
687.359	-12.31
687.389	3.69
687.419	-0.31
687.449	4.69
687.478	-0.31
687.508	-5.31
687.538	12.69
687.568	7.69
687.597	0.69
687.627	12.69
687.657	10.69
687.686	2.69
687.716	28.69
687.746	-4.31
687.776	-3.31
687.805	2.69
687.835	17.69
687.865	21.69
687.894	1.69
687.924	-9.31
687.954	0.69
687.983	3.69
688.013	11.69
688.043	13.69
688.072	-11.31
688.102	11.69
688.132	12.69
688.161	1.69
688.191	-7.31
688.221	18.69
688.25	6.69
688.28	2.69
688.31	9.69
688.339	-7.31
688.369	-5.31
688.399	0.69
688.428	6.69
688.458	-0.31
688.488	-8.31
688.517	16.69
688.547	-15.31
688.576	34.69
688.606	13.69
688.636	-17.31
688.665	-6.31
688.695	-7.31
688.725	10.69
688.754	5.69
688.784	2.69
688.813	19.69
688.843	7.69
688.873	-6.31
688.902	-5.31
688.932	6.69
688.961	11.69
688.991	14.69
689.02	2.69
689.05	-2.31
689.08	5.69
689.109	22.69
689.139	-0.31
689.168	-7.31
689.198	-0.31
689.227	-4.31
689.257	13.69
689.287	18.69
689.316	2.69
689.346	-15.31
689.375	-16.31
689.405	-1.31
689.434	-20.31
689.464	8.69
689.493	7.69
689.523	-10.31
689.552	1.69
689.582	-3.31
689.611	0.69
689.641	20.69
689.67	5.69
689.7	1.69
689.73	5.69
689.759	11.69
689.789	15.69
689.818	-9.31
689.848	21.69
689.877	42.69
689.906	-0.31
689.936	-10.31
689.965	0.69
689.995	16.69
690.024	5.69
690.054	1.69
690.083	11.69
690.113	2.69
690.142	-4.31
690.172	12.69
690.201	4.69
690.231	7.69
690.26	9.69
690.29	-1.31
690.319	5.69
690.348	-20.31
690.378	-4.31
690.407	-0.31
690.437	0.69
690.466	-16.31
690.496	3.69
690.525	20.69
690.555	-12.31
690.584	4.69
690.613	0.69
690.643	9.69
690.672	4.69
690.702	6.69
690.731	-1.31
690.76	0.69
690.79	-8.31
690.819	-2.31
690.849	1.69
690.878	2.69
690.907	-5.31
690.937	8.69
690.966	18.69
690.996	5.69
691.025	14.69
691.054	-6.31
691.084	5.69
691.113	-11.31
691.142	-3.31
691.172	-10.31
691.201	7.69
691.23	3.69
691.26	12.69
691.289	2.69
691.319	1.69
691.348	5.69
691.377	24.69
691.407	9.69
691.436	-0.31
691.465	-0.31
691.495	-4.31
691.524	-3.31
691.553	-5.31
691.583	5.69
691.612	8.69
691.641	-9.31
691.67	-1.31
691.7	8.69
691.729	-11.31
691.758	-16.31
691.788	5.69
691.817	-3.31
691.846	-12.31
691.876	9.69
691.905	7.69
691.934	10.69
691.963	22.69
691.993	7.69
692.022	0.69
692.051	-12.31
692.081	6.69
692.11	23.69
692.139	11.69
692.168	10.69
692.198	17.69
692.227	6.69
692.256	7.69
692.285	6.69
692.315	16.69
692.344	6.69
692.373	0.69
692.402	-14.31
692.432	-1.31
692.461	-0.31
692.49	-3.31
692.519	-10.31
692.548	24.69
692.578	11.69
692.607	0.69
692.636	-3.31
692.665	15.69
692.694	4.69
692.724	-12.31
692.753	17.69
692.782	19.69
692.811	-9.31
692.84	5.69
692.87	18.69
692.899	-6.31
692.928	6.69
692.957	10.69
692.986	10.69
693.016	15.69
693.045	0.69
693.074	9.69
693.103	-2.31
693.132	-5.31
693.161	12.69
693.191	-19.31
693.22	-4.31
693.249	25.69
693.278	16.69
693.307	-10.31
693.336	-9.31
693.365	-8.31
693.395	-16.31
693.424	-4.31
693.453	26.69
693.482	-1.31
693.511	12.69
693.54	-1.31
693.569	14.69
693.598	-4.31
693.628	25.69
693.657	2.69
693.686	16.69
693.715	2.69
693.744	7.69
693.773	13.69
693.802	0.69
693.831	-16.31
693.86	15.69
693.889	-6.31
693.919	3.69
693.948	3.69
693.977	13.69
694.006	3.69
694.035	-4.31
694.064	-21.31
694.093	-0.31
694.122	13.69
694.151	2.69
694.18	-0.31
694.209	7.69
694.238	2.69
694.267	18.69
694.296	10.69
694.325	12.69
694.354	13.69
694.383	5.69
694.412	-4.31
694.441	-9.31
694.471	1.69
694.5	-4.31
694.529	-1.31
694.558	14.69
694.587	11.69
694.616	6.69
694.645	1.69
694.674	15.69
694.703	13.69
694.732	17.69
694.761	13.69
694.79	13.69
694.819	-5.31
694.848	4.69
694.877	21.69
694.906	23.69
694.935	-1.31
694.963	26.69
694.992	2.69
695.021	10.69
695.05	13.69
695.079	-6.31
695.108	-4.31
695.137	21.69
695.166	7.69
695.195	-3.31
695.224	12.69
695.253	-1.31
695.282	-1.31
695.311	21.69
695.34	9.69
695.369	9.69
695.398	2.69
695.427	28.69
695.456	10.69
695.485	1.69
695.513	-4.31
695.542	10.69
695.571	-17.31
695.6	14.69
695.629	17.69
695.658	18.69
695.687	12.69
695.716	3.69
695.745	22.69
695.774	-14.31
695.802	-8.31
695.831	-10.31
695.86	17.69
695.889	19.69
695.918	15.69
695.947	-3.31
695.976	-4.31
696.005	-3.31
696.033	4.69
696.062	8.69
696.091	4.69
696.12	11.69
696.149	19.69
696.178	9.69
696.207	9.69
696.235	-4.31
696.264	11.69
696.293	-9.31
696.322	4.69
696.351	14.69
696.38	-4.31
696.408	6.69
696.437	5.69
696.466	9.69
696.495	-0.31
696.524	5.69
696.553	3.69
696.581	3.69
696.61	11.69
696.639	-5.31
696.668	8.69
696.697	-7.31
696.725	16.69
696.754	5.69
696.783	-11.31
696.812	7.69
696.84	4.69
696.869	-4.31
696.898	-0.31
696.927	8.69
696.956	20.69
696.984	-13.31
697.013	10.69
697.042	2.69
697.071	1.69
697.099	17.69
697.128	17.69
697.157	16.69
697.186	4.69
697.214	6.69
697.243	-1.31
697.272	7.69
697.301	11.69
697.329	5.69
697.358	9.69
697.387	18.69
697.415	-9.31
697.444	14.69
697.473	5.69
697.502	1.69
697.53	10.69
697.559	3.69
697.588	10.69
697.616	8.69
697.645	-0.31
697.674	14.69
697.703	0.69
697.731	13.69
697.76	3.69
697.789	0.69
697.817	-10.31
697.846	16.69
697.875	-3.31
697.903	15.69
697.932	7.69
697.961	5.69
697.989	14.69
698.018	15.69
698.047	4.69
698.075	5.69
698.104	1.69
698.133	2.69
698.161	3.69
698.19	-2.31
698.218	-9.31
698.247	10.69
698.276	-3.31
698.304	12.69
698.333	2.69
698.362	19.69
698.39	12.69
698.419	5.69
698.447	0.69
698.476	5.69
698.505	8.69
698.533	14.69
698.562	26.69
698.591	-1.31
698.619	-6.31
698.648	3.69
698.676	1.69
698.705	-3.31
698.733	-36.31
698.762	8.69
698.791	0.69
698.819	-4.31
698.848	17.69
698.876	12.69
698.905	-0.31
698.933	14.69
698.962	7.69
698.991	8.69
699.019	11.69
699.048	-2.31
699.076	3.69
699.105	-9.31
699.133	1.69
699.162	15.69
699.19	10.69
699.219	16.69
699.248	8.69
699.276	-1.31
699.305	-7.31
699.333	2.69
699.362	3.69
699.39	11.69
699.419	-15.31
699.447	0.69
699.476	18.69
699.504	-8.31
699.533	-1.31
699.561	-3.31
699.59	-3.31
699.618	-2.31
699.647	1.69
699.675	-11.31
699.704	9.69
699.732	6.69
699.761	12.69
699.789	3.69
699.818	19.69
699.846	8.69
699.874	-11.31
699.903	-5.31
699.931	-10.31
699.96	8.69
699.988	9.69
700.017	3.69
700.045	-4.31
700.074	-7.31
700.102	-7.31
700.13	-18.31
700.159	-3.31
700.187	6.69
700.216	-2.31
700.244	-2.31
700.273	14.69
700.301	6.69
700.329	2.69
700.358	9.69
700.386	-1.31
700.415	1.69
700.443	0.69
700.472	-9.31
700.5	-5.31
700.528	9.69
700.557	16.69
700.585	-5.31
700.614	-5.31
700.642	1.69
700.67	5.69
700.699	-11.31
700.727	0.69
700.755	16.69
700.784	18.69
700.812	-7.31
700.841	13.69
700.869	-3.31
700.897	-17.31
700.926	-2.31
700.954	1.69
700.982	14.69
701.011	0.69
701.039	11.69
701.067	2.69
701.096	1.69
701.124	-0.31
701.152	3.69
701.181	1.69
701.209	0.69
701.237	2.69
701.266	-5.31
701.294	-0.31
701.322	1.69
701.351	15.69
701.379	-1.31
701.407	2.69
701.435	2.69
701.464	13.69
701.492	17.69
701.52	15.69
701.549	7.69
701.577	2.69
701.605	-5.31
701.634	-10.31
701.662	-7.31
701.69	-9.31
701.718	3.69
701.747	8.69
701.775	-4.31
701.803	-1.31
701.831	7.69
701.86	10.69
701.888	-0.31
701.916	-1.31
701.944	27.69
701.973	-20.31
702.001	-6.31
702.029	-9.31
702.057	-14.31
702.086	-14.31
702.114	-3.31
702.142	1.69
702.17	-14.31
702.199	2.69
702.227	6.69
702.255	-2.31
702.283	-4.31
702.311	0.69
702.34	-0.31
702.368	-12.31
702.396	5.69
702.424	-9.31
702.452	-10.31
702.481	6.69
702.509	-3.31
702.537	11.69
702.565	7.69
702.593	-10.31
702.621	5.69
702.65	4.69
702.678	-1.31
702.706	4.69
702.734	-10.31
702.762	7.69
702.79	14.69
702.819	1.69
702.847	-3.31
702.875	-1.31
702.903	19.69
702.931	-0.31
702.959	1.69
702.988	-4.31
703.016	-16.31
703.044	2.69
703.072	13.69
703.1	-0.31
703.128	2.69
703.156	0.69
703.184	-0.31
703.212	18.69
703.241	-12.31
703.269	9.69
703.297	-0.31
703.325	-7.31
703.353	-25.31
703.381	-17.31
703.409	3.69
703.437	-10.31
703.465	0.69
703.493	-1.31
703.522	12.69
703.55	2.69
703.578	18.69
703.606	-7.31
703.634	-10.31
703.662	-7.31
703.69	1.69
703.718	1.69
703.746	21.69
703.774	1.69
703.802	17.69
703.83	-3.31
703.858	26.69
703.886	-11.31
703.914	-12.31
703.942	16.69
703.97	-1.31
703.998	1.69
704.027	13.69
704.055	14.69
704.083	1.69
704.111	-7.31
704.139	8.69
704.167	-9.31
704.195	1.69
704.223	-25.31
704.251	1.69
704.279	15.69
704.307	9.69
704.335	-0.31
704.363	8.69
704.391	-13.31
704.419	-6.31
704.447	-14.31
704.475	15.69
704.503	3.69
704.531	3.69
704.558	12.69
704.586	-0.31
704.614	5.69
704.642	2.69
704.67	-20.31
704.698	-6.31
704.726	17.69
704.754	-12.31
704.782	-8.31
704.81	11.69
704.838	6.69
704.866	3.69
704.894	-13.31
704.922	-7.31
704.95	9.69
704.978	6.69
705.006	21.69
705.034	0.69
705.061	1.69
705.089	6.69
705.117	-15.31
705.145	-13.31
705.173	-3.31
705.201	11.69
705.229	10.69
705.257	13.69
705.285	5.69
705.313	-2.31
705.34	0.69
705.368	-16.31
705.396	2.69
705.424	-2.31
705.452	4.69
705.48	14.69
705.508	-1.31
705.536	-7.31
705.563	2.69
705.591	-0.31
705.619	2.69
705.647	-5.31
705.675	-7.31
705.703	5.69
705.731	-8.31
705.758	-1.31
705.786	-0.31
705.814	1.69
705.842	-0.31
705.87	22.69
705.898	12.69
705.925	1.69
705.953	12.69
705.981	-5.31
706.009	-6.31
706.037	6.69
706.065	7.69
706.092	-8.31
706.12	-1.31
706.148	-6.31
706.176	3.69
706.204	-1.31
706.231	4.69
706.259	-11.31
706.287	-13.31
706.315	14.69
706.342	2.69
706.37	14.69
706.398	8.69
706.426	-8.31
706.454	-3.31
706.481	0.69
706.509	6.69
706.537	1.69
706.565	-1.31
706.592	-1.31
706.62	-6.31
706.648	7.69
706.676	-13.31
706.703	-3.31
706.731	2.69
706.759	-10.31
706.787	8.69
706.814	8.69
706.842	-8.31
706.87	-7.31
706.897	0.69
706.925	2.69
706.953	16.69
706.981	7.69
707.008	2.69
707.036	0.69
707.064	-2.31
707.091	-4.31
707.119	1.69
707.147	-0.31
707.174	-4.31
707.202	12.69
707.23	2.69
707.258	0.69
707.285	-16.31
707.313	-16.31
707.341	-2.31
707.368	-11.31
707.396	12.69
707.424	17.69
707.451	5.69
707.479	3.69
707.507	4.69
707.534	-12.31
707.562	-1.31
707.59	-1.31
707.617	-12.31
707.645	-0.31
707.672	-4.31
707.7	0.69
707.728	2.69
707.755	-4.31
707.783	0.69
707.811	-0.31
707.838	7.69
707.866	-1.31
707.893	-9.31
707.921	-0.31
707.949	-3.31
707.976	9.69
708.004	2.69
708.031	-1.31
708.059	-14.31
708.087	-5.31
708.114	-1.31
708.142	-2.31
708.169	-4.31
708.197	-5.31
708.225	-5.31
708.252	-13.31
708.28	-5.31
708.307	-0.31
708.335	-0.31
708.362	6.69
708.39	-4.31
708.418	-3.31
708.445	-4.31
708.473	-7.31
708.5	-1.31
708.528	5.69
708.555	-0.31
708.583	8.69
708.61	-9.31
708.638	3.69
708.665	-14.31
708.693	-3.31
708.72	-10.31
708.748	-12.31
708.776	-2.31
708.803	22.69
708.831	-0.31
708.858	-0.31
708.886	-0.31
708.913	-10.31
708.941	-16.31
708.968	1.69
708.996	0.69
709.023	28.69
709.051	-4.31
709.078	-12.31
709.105	1.69
709.133	-3.31
709.16	-1.31
709.188	10.69
709.215	7.69
709.243	7.69
709.27	-8.31
709.298	-16.31
709.325	-11.31
709.353	-3.31
709.38	10.69
709.408	9.69
709.435	19.69
709.462	-1.31
709.49	-0.31
709.517	-8.31
709.545	-24.31
709.572	-4.31
709.6	15.69
709.627	6.69
709.655	-13.31
709.682	-0.31
709.709	0.69
709.737	2.69
709.764	-6.31
709.792	15.69
709.819	9.69
709.846	5.69
709.874	12.69
709.901	8.69
709.929	23.69
709.956	8.69
709.983	-9.31
710.011	-12.31
710.038	-6.31
710.066	15.69
710.093	21.69
710.12	4.69
710.148	-4.31
710.175	-8.31
710.202	-13.31
710.23	-1.31
710.257	-11.31
710.284	-3.31
710.312	-21.31
710.339	0.69
710.366	5.69
710.394	-2.31
710.421	8.69
710.448	6.69
710.476	-17.31
710.503	-8.31
710.53	18.69
710.558	25.69
710.585	1.69
710.612	-8.31
710.64	-4.31
710.667	5.69
710.694	-2.31
710.722	-3.31
710.749	18.69
710.776	-0.31
710.804	3.69
710.831	8.69
710.858	3.69
710.885	2.69
710.913	9.69
710.94	21.69
710.967	10.69
710.995	9.69
711.022	3.69
711.049	8.69
711.076	7.69
711.104	-3.31
711.131	-5.31
711.158	7.69
711.185	15.69
711.213	-3.31
711.24	-16.31
711.267	10.69
711.294	-8.31
711.322	10.69
711.349	2.69
711.376	-0.31
711.403	20.69
711.431	-13.31
711.458	-3.31
711.485	-4.31
711.512	3.69
711.54	-9.31
711.567	-4.31
711.594	-5.31
711.621	-0.31
711.648	7.69
711.676	-3.31
711.703	5.69
711.73	-4.31
711.757	-1.31
711.784	-5.31
711.812	10.69
711.839	2.69
711.866	-0.31
711.893	5.69
711.92	3.69
711.947	4.69
711.975	15.69
712.002	0.69
712.029	15.69
712.056	5.69
712.083	2.69
712.11	-9.31
712.138	9.69
712.165	-7.31
712.192	0.69
712.219	-7.31
712.246	-4.31
712.273	-8.31
712.3	-23.31
712.328	-1.31
712.355	6.69
712.382	-0.31
712.409	-0.31
712.436	6.69
712.463	27.69
712.49	24.69
712.517	3.69
712.544	-6.31
712.572	3.69
712.599	-3.31
712.626	-5.31
712.653	-9.31
712.68	-1.31
712.707	7.69
712.734	11.69
712.761	-7.31
712.788	0.69
712.815	2.69
712.842	21.69
712.87	1.69
712.897	-14.31
712.924	-21.31
712.951	-6.31
712.978	6.69
713.005	10.69
713.032	10.69
713.059	11.69
713.086	-10.31
713.113	-24.31
713.14	-19.31
713.167	-0.31
713.194	16.69
713.221	2.69
713.248	6.69
713.275	-11.31
713.302	15.69
713.329	6.69
713.356	2.69
713.383	8.69
713.41	21.69
713.437	-11.31
713.464	-5.31
713.491	-9.31
713.518	-11.31
713.545	-21.31
713.572	-12.31
713.599	15.69
713.626	13.69
713.653	15.69
713.68	-11.31
713.707	-9.31
713.734	-2.31
713.761	-4.31
713.788	3.69
713.815	17.69
713.842	1.69
713.869	-4.31
713.896	7.69
713.923	9.69
713.95	-7.31
713.977	8.69
714.004	-5.31
714.031	5.69
714.058	-0.31
714.085	-3.31
714.112	11.69
714.139	-11.31
714.165	-5.31
714.192	-17.31
714.219	19.69
714.246	10.69
714.273	-0.31
714.3	-0.31
714.327	8.69
714.354	20.69
714.381	13.69
714.408	4.69
714.435	-6.31
714.461	8.69
714.488	14.69
714.515	-5.31
714.542	-3.31
714.569	-5.31
714.596	-22.31
714.623	-3.31
714.65	-12.31
714.677	-1.31
714.703	10.69
714.73	5.69
714.757	12.69
714.784	9.69
714.811	-15.31
714.838	-10.31
714.865	8.69
714.891	12.69
714.918	1.69
714.945	-13.31
714.972	-3.31
714.999	3.69
715.026	-3.31
715.052	19.69
715.079	2.69
715.106	4.69
715.133	-0.31
715.16	-13.31
715.187	9.69
715.213	5.69
715.24	-19.31
715.267	4.69
715.294	16.69
715.321	3.69
715.347	-0.31
715.374	-15.31
715.401	-9.31
715.428	-5.31
715.455	13.69
715.481	-10.31
715.508	18.69
715.535	0.69
715.562	17.69
715.588	7.69
715.615	1.69
715.642	12.69
715.669	-3.31
715.695	2.69
715.722	-6.31
715.749	7.69
715.776	3.69
715.802	-5.31
715.829	9.69
715.856	-24.31
715.883	22.69
715.909	8.69
715.936	-1.31
715.963	-6.31
715.99	-13.31
716.016	-8.31
716.043	8.69
716.07	-17.31
716.096	-6.31
716.123	-9.31
716.15	2.69
716.177	-3.31
716.203	8.69
716.23	10.69
716.257	2.69
716.283	3.69
716.31	16.69
716.337	1.69
716.363	-7.31
716.39	14.69
716.417	7.69
716.443	-9.31
716.47	-3.31
716.497	8.69
716.523	19.69
716.55	6.69
716.577	6.69
716.603	12.69
716.63	-8.31
716.657	-5.31
716.683	-6.31
716.71	-3.31
716.737	10.69
716.763	9.69
716.79	5.69
716.817	27.69
716.843	8.69
716.87	-1.31
716.897	13.69
716.923	8.69
716.95	-9.31
716.976	5.69
717.003	5.69
717.03	6.69
717.056	18.69
717.083	-6.31
717.109	-3.31
717.136	1.69
717.163	15.69
717.189	4.69
717.216	4.69
717.242	-2.31
717.269	2.69
717.296	15.69
717.322	-1.31
717.349	3.69
717.375	15.69
717.402	-6.31
717.428	-0.31
717.455	-0.31
717.481	-0.31
717.508	8.69
717.535	-15.31
717.561	0.69
717.588	-9.31
717.614	-4.31
717.641	-7.31
717.667	-11.31
717.694	5.69
717.72	9.69
717.747	3.69
717.773	-13.31
717.8	7.69
717.826	0.69
717.853	6.69
717.88	1.69
717.906	9.69
717.933	3.69
717.959	10.69
717.986	20.69
718.012	-7.31
718.039	16.69
718.065	24.69
718.092	10.69
718.118	-4.31
718.144	-4.31
718.171	8.69
718.197	21.69
718.224	10.69
718.25	2.69
718.277	10.69
718.303	14.69
718.33	-0.31
718.356	4.69
718.383	-5.31
718.409	-15.31
718.436	15.69
718.462	3.69
718.489	2.69
718.515	3.69
718.541	12.69
718.568	13.69
718.594	8.69
718.621	11.69
718.647	6.69
718.674	2.69
718.7	27.69
718.726	-1.31
718.753	-0.31
718.779	8.69
718.806	8.69
718.832	-5.31
718.858	-1.31
718.885	-5.31
718.911	6.69
718.938	-11.31
718.964	-16.31
718.99	-3.31
719.017	2.69
719.043	15.69
719.07	20.69
719.096	-4.31
719.122	-0.31
719.149	1.69
719.175	3.69
719.201	-0.31
719.228	-1.31
719.254	-3.31
719.281	-3.31
719.307	-8.31
719.333	-3.31
719.36	7.69
719.386	-1.31
719.412	0.69
719.439	-13.31
719.465	1.69
719.491	-12.31
719.518	11.69
719.544	3.69
719.57	8.69
719.597	6.69
719.623	-13.31
719.649	-5.31
719.675	0.69
719.702	6.69
719.728	20.69
719.754	5.69
719.781	1.69
719.807	-5.31
719.833	-4.31
719.86	2.69
719.886	-2.31
719.912	-0.31
719.938	-1.31
719.965	-11.31
719.991	12.69
720.017	6.69
720.044	-13.31
720.07	13.69
720.096	8.69
720.122	3.69
720.149	8.69
720.175	21.69
720.201	11.69
720.227	0.69
720.254	5.69
720.28	7.69
720.306	2.69
720.332	11.69
720.359	-3.31
720.385	10.69
720.411	-3.31
720.437	-9.31
720.463	3.69
720.49	9.69
720.516	-3.31
720.542	2.69
720.568	-4.31
720.595	5.69
720.621	-4.31
720.647	11.69
720.673	7.69
720.699	0.69
720.725	-5.31
720.752	13.69
720.778	15.69
720.804	4.69
720.83	9.69
720.856	1.69
720.883	-17.31
720.909	1.69
720.935	0.69
720.961	6.69
720.987	-8.31
721.013	-1.31
721.04	-6.31
721.066	-5.31
721.092	-4.31
721.118	3.69
721.144	-3.31
721.17	-4.31
721.196	-5.31
721.223	0.69
721.249	-4.31
721.275	14.69
721.301	-2.31
721.327	13.69
721.353	14.69
721.379	-2.31
721.405	4.69
721.432	9.69
721.458	8.69
721.484	14.69
721.51	-17.31
721.536	7.69
721.562	-7.31
721.588	0.69
721.614	4.69
721.64	-4.31
721.666	5.69
721.693	-4.31
721.719	-8.31
721.745	-5.31
721.771	15.69
721.797	12.69
721.823	-3.31
721.849	7.69
721.875	15.69
721.901	2.69
721.927	-17.31
721.953	5.69
721.979	4.69
722.005	21.69
722.031	-2.31
722.057	-8.31
722.083	3.69
722.109	3.69
722.135	11.69
722.161	4.69
722.187	-11.31
722.214	-12.31
722.24	2.69
722.266	-9.31
722.292	6.69
722.318	7.69
722.344	5.69
722.37	-0.31
722.396	10.69
722.422	-3.31
722.448	2.69
722.474	-5.31
722.5	7.69
722.526	-4.31
722.552	10.69
722.578	11.69
722.603	-0.31
722.629	-6.31
722.655	-1.31
722.681	0.69
722.707	5.69
722.733	-7.31
722.759	-0.31
722.785	-4.31
722.811	-5.31
722.837	-5.31
722.863	2.69
722.889	-2.31
722.915	0.69
722.941	-1.31
722.967	1.69
722.993	10.69
723.019	-2.31
723.045	14.69
723.071	9.69
723.097	3.69
723.122	-5.31
723.148	-24.31
723.174	3.69
723.2	8.69
723.226	-4.31
723.252	-5.31
723.278	-4.31
723.304	-8.31
723.33	4.69
723.356	1.69
723.381	-17.31
723.407	-8.31
723.433	-3.31
723.459	5.69
723.485	-1.31
723.511	2.69
723.537	-6.31
723.563	7.69
723.588	-0.31
723.614	-1.31
723.64	2.69
723.666	-3.31
723.692	2.69
723.718	-5.31
723.744	-5.31
723.769	-8.31
723.795	-9.31
723.821	0.69
723.847	-7.31
723.873	-7.31
723.899	22.69
723.924	13.69
723.95	2.69
723.976	-9.31
724.002	-3.31
724.028	4.69
724.053	-11.31
724.079	-9.31
724.105	0.69
724.131	-0.31
724.157	2.69
724.182	7.69
724.208	0.69
724.234	-5.31
724.26	-0.31
724.286	3.69
724.311	-6.31
724.337	-5.31
724.363	13.69
724.389	-5.31
724.415	-9.31
724.44	16.69
724.466	2.69
724.492	-9.31
724.518	3.69
724.543	-5.31
724.569	-4.31
724.595	-0.31
724.621	-4.31
724.646	0.69
724.672	2.69
724.698	-4.31
724.723	1.69
724.749	-9.31
724.775	4.69
724.801	-5.31
724.826	-7.31
724.852	8.69
724.878	-5.31
724.904	-13.31
724.929	10.69
724.955	-1.31
724.981	8.69
725.006	-5.31
725.032	-3.31
725.058	11.69
725.083	-0.31
725.109	-4.31
725.135	-4.31
725.161	7.69
725.186	-0.31
725.212	4.69
725.238	-5.31
725.263	4.69
725.289	-15.31
725.315	-6.31
725.34	0.69
725.366	8.69
725.392	-11.31
725.417	-0.31
725.443	11.69
725.468	7.69
725.494	22.69
725.52	17.69
725.545	4.69
725.571	3.69
725.597	-9.31
725.622	15.69
725.648	9.69
725.674	4.69
725.699	-6.31
725.725	8.69
725.75	28.69
725.776	-14.31
725.802	-8.31
725.827	10.69
725.853	2.69
725.878	-9.31
725.904	-4.31
725.93	-5.31
725.955	-25.31
725.981	-17.31
726.006	-4.31
726.032	4.69
726.057	-5.31
726.083	-8.31
726.109	-8.31
726.134	1.69
726.16	6.69
726.185	-13.31
726.211	-5.31
726.236	7.69
726.262	-0.31
726.288	5.69
726.313	14.69
726.339	-5.31
726.364	-13.31
726.39	18.69
726.415	-1.31
726.441	-3.31
726.466	1.69
726.492	14.69
726.517	-5.31
726.543	-5.31
726.568	-4.31
726.594	3.69
726.619	7.69
726.645	6.69
726.67	15.69
726.696	0.69
726.721	-2.31
726.747	-2.31
726.772	10.69
726.798	3.69
726.823	-1.31
726.849	-7.31
726.874	1.69
726.9	15.69
726.925	-4.31
726.951	-0.31
726.976	2.69
727.002	-3.31
727.027	9.69
727.053	4.69
727.078	0.69
727.104	7.69
727.129	2.69
727.155	-4.31
727.18	9.69
727.205	0.69
727.231	-5.31
727.256	-6.31
727.282	-0.31
727.307	15.69
727.333	-0.31
727.358	-17.31
727.383	-19.31
727.409	-23.31
727.434	-4.31
727.46	6.69
727.485	-6.31
727.511	-12.31
727.536	-17.31
727.561	2.69
727.587	0.69
727.612	-6.31
727.637	-10.31
727.663	-3.31
727.688	14.69
727.714	-6.31
727.739	-23.31
727.764	-13.31
727.79	-0.31
727.815	6.69
727.841	9.69
727.866	2.69
727.891	-3.31
727.917	-12.31
727.942	-11.31
727.967	-4.31
727.993	-12.31
728.018	-6.31
728.043	1.69
728.069	20.69
728.094	3.69
728.119	-0.31
728.145	7.69
728.17	11.69
728.195	4.69
728.221	8.69
728.246	-5.31
728.271	-10.31
728.297	-4.31
728.322	8.69
728.347	13.69
728.373	-7.31
728.398	-11.31
728.423	-12.31
728.448	-0.31
728.474	-17.31
728.499	-0.31
728.524	0.69
728.55	-12.31
728.575	-7.31
728.6	3.69
728.625	-11.31
728.651	1.69
728.676	1.69
728.701	-14.31
728.727	-3.31
728.752	-0.31
728.777	-4.31
728.802	6.69
728.828	14.69
728.853	2.69
728.878	-0.31
728.903	10.69
728.929	-13.31
728.954	-8.31
728.979	15.69
729.004	-14.31
729.03	-28.31
729.055	-1.31
729.08	-16.31
729.105	-6.31
729.13	22.69
729.156	0.69
729.181	-21.31
729.206	-14.31
729.231	3.69
729.256	28.69
729.282	-4.31
729.307	3.69
729.332	-1.31
729.357	0.69
729.382	-3.31
729.408	-2.31
729.433	3.69
729.458	-1.31
729.483	5.69
729.508	16.69
729.533	0.69
729.559	3.69
729.584	-7.31
729.609	-4.31
729.634	6.69
729.659	-13.31
729.684	-2.31
729.71	13.69
729.735	12.69
729.76	-0.31
729.785	4.69
729.81	9.69
729.835	-14.31
729.86	-4.31
729.886	0.69
729.911	7.69
729.936	-11.31
729.961	4.69
729.986	-5.31
730.011	5.69
730.036	10.69
730.061	2.69
730.086	-3.31
730.112	-8.31
730.137	8.69
730.162	-1.31
730.187	-11.31
730.212	-2.31
730.237	-18.31
730.262	15.69
730.287	-3.31
730.312	8.69
730.337	-5.31
730.362	9.69
730.387	-2.31
730.413	-15.31
730.438	-4.31
730.463	10.69
730.488	2.69
730.513	-1.31
730.538	3.69
730.563	4.69
730.588	9.69
730.613	-1.31
730.638	-4.31
730.663	1.69
730.688	15.69
730.713	-0.31
730.738	-1.31
730.763	-8.31
730.788	-29.31
730.813	3.69
730.838	-7.31
730.863	-4.31
730.888	-13.31
730.913	-13.31
730.938	-11.31
730.963	-1.31
730.988	2.69
731.013	6.69
731.038	-4.31
731.063	-6.31
731.088	-5.31
731.113	-27.31
731.138	-8.31
731.163	-4.31
731.188	-10.31
731.213	-8.31
731.238	2.69
731.263	-7.31
731.288	-14.31
731.313	-5.31
731.338	-1.31
731.363	3.69
731.388	6.69
731.413	16.69
731.438	4.69
731.463	-18.31
731.487	3.69
731.512	-2.31
731.537	-6.31
731.562	-8.31
731.587	-7.31
731.612	-7.31
731.637	-9.31
731.662	10.69
731.687	7.69
731.712	-4.31
731.737	5.69
731.762	3.69
731.786	-1.31
731.811	0.69
731.836	3.69
731.861	6.69
731.886	-8.31
731.911	9.69
731.936	13.69
731.961	12.69
731.986	-8.31
732.01	0.69
732.035	-0.31
732.06	2.69
732.085	-0.31
732.11	-7.31
732.135	-9.31
732.16	-6.31
732.184	-5.31
732.209	5.69
732.234	14.69
732.259	6.69
732.284	-5.31
732.309	-11.31
732.334	-6.31
732.358	-24.31
732.383	-8.31
732.408	-1.31
732.433	7.69
732.458	7.69
732.482	0.69
732.507	4.69
732.532	6.69
732.557	11.69
732.582	9.69
732.607	4.69
732.631	-3.31
732.656	-3.31
732.681	12.69
732.706	7.69
732.73	3.69
732.755	-17.31
732.78	7.69
732.805	0.69
732.83	3.69
732.854	1.69
732.879	3.69
732.904	-0.31
732.929	6.69
732.953	7.69
732.978	0.69
733.003	-1.31
733.028	-12.31
733.052	11.69
733.077	10.69
733.102	10.69
733.127	-5.31
733.151	-14.31
733.176	-0.31
733.201	2.69
733.226	3.69
733.25	10.69
733.275	1.69
733.3	-1.31
733.324	21.69
733.349	23.69
733.374	27.69
733.399	2.69
733.423	-0.31
733.448	-5.31
733.473	2.69
733.497	3.69
733.522	-1.31
733.547	10.69
733.571	13.69
733.596	-0.31
733.621	15.69
733.646	-5.31
733.67	8.69
733.695	1.69
733.72	5.69
733.744	3.69
733.769	12.69
733.794	13.69
733.818	-5.31
733.843	-6.31
733.867	3.69
733.892	12.69
733.917	0.69
733.941	2.69
733.966	-1.31
733.991	5.69
734.015	23.69
734.04	17.69
734.065	7.69
734.089	19.69
734.114	-0.31
734.138	4.69
734.163	-17.31
734.188	-6.31
734.212	-1.31
734.237	4.69
734.261	4.69
734.286	0.69
734.311	5.69
734.335	-5.31
734.36	-3.31
734.384	2.69
734.409	6.69
734.434	-7.31
734.458	6.69
734.483	-6.31
734.507	-13.31
734.532	-8.31
734.556	5.69
734.581	-2.31
734.606	-6.31
734.63	-16.31
734.655	12.69
734.679	-0.31
734.704	-0.31
734.728	5.69
734.753	-3.31
734.777	3.69
734.802	-1.31
734.826	-11.31
734.851	10.69
734.876	8.69
734.9	2.69
734.925	9.69
734.949	2.69
734.974	9.69
734.998	1.69
735.023	-0.31
735.047	-14.31
735.072	12.69
735.096	1.69
735.121	3.69
735.145	-3.31
735.17	3.69
735.194	6.69
735.219	5.69
735.243	7.69
735.268	0.69
735.292	6.69
735.317	-1.31
735.341	-5.31
735.365	-21.31
735.39	13.69
735.414	7.69
735.439	-3.31
735.463	-12.31
735.488	-4.31
735.512	-9.31
735.537	3.69
735.561	10.69
735.586	12.69
735.61	7.69
735.634	-5.31
735.659	-7.31
735.683	13.69
735.708	-3.31
735.732	-5.31
735.757	-5.31
735.781	10.69
735.805	3.69
735.83	-15.31
735.854	6.69
735.879	3.69
735.903	19.69
735.927	1.69
735.952	-9.31
735.976	4.69
736.001	3.69
736.025	-16.31
736.049	-6.31
736.074	4.69
736.098	-5.31
736.123	11.69
736.147	6.69
736.171	12.69
736.196	-5.31
736.22	-3.31
736.244	4.69
736.269	-0.31
736.293	1.69
736.317	-15.31
736.342	-0.31
736.366	-3.31
736.39	11.69
736.415	1.69
736.439	-16.31
736.463	9.69
736.488	5.69
736.512	15.69
736.536	4.69
736.561	13.69
736.585	3.69
736.609	6.69
736.634	-1.31
736.658	3.69
736.682	-1.31
736.707	-17.31
736.731	-11.31
736.755	-14.31
736.78	11.69
736.804	7.69
736.828	4.69
736.852	9.69
736.877	-4.31
736.901	8.69
736.925	-0.31
736.949	8.69
736.974	-5.31
736.998	8.69
737.022	17.69
737.047	-8.31
737.071	-0.31
737.095	6.69
737.119	27.69
737.144	8.69
737.168	-9.31
737.192	8.69
737.216	12.69
737.241	-1.31
737.265	-10.31
737.289	-9.31
737.313	-4.31
737.337	8.69
737.362	-0.31
737.386	-5.31
737.41	-3.31
737.434	-9.31
737.459	-9.31
737.483	16.69
737.507	13.69
737.531	28.69
737.555	0.69
737.58	10.69
737.604	-6.31
737.628	-6.31
737.652	1.69
737.676	-5.31
737.701	-9.31
737.725	-4.31
737.749	6.69
737.773	3.69
737.797	-0.31
737.821	4.69
737.846	-7.31
737.87	21.69
737.894	14.69
737.918	-0.31
737.942	11.69
737.966	9.69
737.99	-2.31
738.015	10.69
738.039	-3.31
738.063	2.69
738.087	17.69
738.111	-0.31
738.135	2.69
738.159	-1.31
738.184	-1.31
738.208	8.69
738.232	10.69
738.256	6.69
738.28	12.69
738.304	11.69
738.328	-8.31
738.352	10.69
738.376	6.69
738.4	2.69
738.425	11.69
738.449	-2.31
738.473	5.69
738.497	-10.31
738.521	6.69
738.545	17.69
738.569	4.69
738.593	11.69
738.617	21.69
738.641	11.69
738.665	-1.31
738.689	2.69
738.713	-4.31
738.737	-4.31
738.762	21.69
738.786	7.69
738.81	-3.31
738.834	-8.31
738.858	-5.31
738.882	0.69
738.906	-0.31
738.93	-1.31
738.954	-0.31
738.978	16.69
739.002	-5.31
739.026	3.69
739.05	-1.31
739.074	-11.31
739.098	23.69
739.122	0.69
739.146	-1.31
739.17	13.69
739.194	-2.31
739.218	-6.31
739.242	3.69
739.266	13.69
739.29	-1.31
739.314	10.69
739.338	10.69
739.362	-1.31
739.386	-14.31
739.41	-10.31
739.434	-4.31
739.458	19.69
739.482	15.69
739.506	12.69
739.53	-6.31
739.554	13.69
739.577	-0.31
739.601	-5.31
739.625	-8.31
739.649	-5.31
739.673	-7.31
739.697	6.69
739.721	-0.31
739.745	10.69
739.769	6.69
739.793	14.69
739.817	10.69
739.841	-14.31
739.865	-1.31
739.889	-21.31
739.912	-3.31
739.936	-3.31
739.96	2.69
739.984	22.69
740.008	-0.31
740.032	-6.31
740.056	2.69
740.08	4.69
740.104	-9.31
740.127	8.69
740.151	6.69
740.175	5.69
740.199	24.69
740.223	49.69
740.247	20.69
740.271	-0.31
740.295	-10.31
740.318	-31.31
740.342	-4.31
740.366	-1.31
740.39	-5.31
740.414	-5.31
740.438	-1.31
740.461	8.69
740.485	10.69
740.509	-8.31
740.533	16.69
740.557	11.69
740.581	-4.31
740.604	-14.31
740.628	-5.31
740.652	0.69
740.676	-13.31
740.7	-0.31
740.723	-11.31
740.747	1.69
740.771	8.69
740.795	-0.31
740.819	10.69
740.842	12.69
740.866	8.69
740.89	-1.31
740.914	-3.31
740.938	-0.31
740.961	23.69
740.985	-2.31
741.009	-10.31
741.033	2.69
741.056	3.69
741.08	-8.31
741.104	-19.31
741.128	-4.31
741.151	7.69
741.175	-7.31
741.199	8.69
741.223	3.69
741.246	-11.31
741.27	1.69
741.294	-0.31
741.318	-6.31
741.341	-12.31
741.365	8.69
741.389	13.69
741.413	12.69
741.436	8.69
741.46	5.69
741.484	-1.31
741.507	-5.31
741.531	15.69
741.555	21.69
741.579	6.69
741.602	-0.31
741.626	3.69
741.65	-4.31
741.673	6.69
741.697	8.69
741.721	12.69
741.744	-8.31
741.768	-5.31
741.792	-6.31
741.815	-0.31
741.839	11.69
741.863	12.69
741.886	9.69
741.91	6.69
741.934	-2.31
741.957	-4.31
741.981	19.69
742.005	3.69
742.028	-5.31
742.052	1.69
742.075	-1.31
742.099	0.69
742.123	0.69
742.146	-8.31
742.17	4.69
742.194	-11.31
742.217	-1.31
742.241	4.69
742.264	-1.31
742.288	18.69
742.312	2.69
742.335	7.69
742.359	3.69
742.382	20.69
742.406	17.69
742.43	-1.31
742.453	4.69
742.477	-9.31
742.5	20.69
742.524	0.69
742.548	-7.31
742.571	-5.31
742.595	-3.31
742.618	1.69
742.642	1.69
742.665	20.69
742.689	-6.31
742.712	14.69
742.736	-5.31
742.76	12.69
742.783	-1.31
742.807	14.69
742.83	2.69
742.854	-16.31
742.877	-19.31
742.901	-2.31
742.924	-13.31
742.948	7.69
742.971	8.69
742.995	1.69
743.018	-13.31
743.042	-16.31
743.065	-4.31
743.089	-4.31
743.112	2.69
743.136	-1.31
743.159	-0.31
743.183	-2.31
743.206	2.69
743.23	-8.31
743.253	13.69
743.277	5.69
743.3	-3.31
743.324	-5.31
743.347	-2.31
743.371	-1.31
743.394	13.69
743.418	18.69
743.441	11.69
743.465	-0.31
743.488	18.69
743.512	0.69
743.535	1.69
743.558	-1.31
743.582	3.69
743.605	2.69
743.629	-1.31
743.652	4.69
743.676	10.69
743.699	6.69
743.723	1.69
743.746	6.69
743.769	-3.31
743.793	2.69
743.816	3.69
743.84	5.69
743.863	4.69
743.886	7.69
743.91	3.69
743.933	15.69
743.957	0.69
743.98	2.69
744.003	16.69
744.027	8.69
744.05	-13.31
744.074	4.69
744.097	-13.31
744.12	12.69
744.144	-5.31
744.167	2.69
744.19	-10.31
744.214	4.69
744.237	-7.31
744.26	14.69
744.284	-0.31
744.307	-6.31
744.331	-3.31
744.354	-8.31
744.377	-6.31
744.401	8.69
744.424	4.69
744.447	1.69
744.471	-13.31
