Data from HighRes_H2_15_09_11_07_2024_HR4C61891__67__15-11-03-102.txt Node

Date: Thu Nov 07 15:11:03 EST 2024
User: crc00042
Spectrometer: HR4C6189
Trigger mode: 4
Integration Time (sec): 1.000000E-1
Scans to average: 1
Electric dark correction enabled: true
Nonlinearity correction enabled: false
Boxcar width: 0
XAxis mode: Wavelengths
Number of Pixels in Spectrum: 3648
>>>>>Begin Spectral Data<<<<<
639.567	-62.92
639.602	-62.92
639.636	-62.92
639.67	-47.92
639.704	-7.92
639.738	-3.92
639.773	8.08
639.807	-4.92
639.841	-21.92
639.875	9.08
639.909	4.08
639.943	-6.92
639.978	2.08
640.012	2.08
640.046	12.08
640.08	15.08
640.114	8.08
640.148	-22.92
640.182	-1.92
640.217	0.08
640.251	24.08
640.285	7.08
640.319	-6.92
640.353	-12.92
640.387	18.08
640.421	-7.92
640.455	-22.92
640.49	-5.92
640.524	-3.92
640.558	12.08
640.592	3.08
640.626	-7.92
640.66	5.08
640.694	-11.92
640.728	5.08
640.762	6.08
640.796	5.08
640.83	12.08
640.865	-4.92
640.899	1.08
640.933	4.08
640.967	11.08
641.001	-5.92
641.035	5.08
641.069	-8.92
641.103	-4.92
641.137	0.08
641.171	-0.92
641.205	0.08
641.239	1.08
641.273	12.08
641.307	9.08
641.341	-0.92
641.375	-12.92
641.409	-16.92
641.443	5.08
641.477	3.08
641.511	5.08
641.545	10.08
641.579	-11.92
641.614	7.08
641.648	1.08
641.682	-4.92
641.716	2.08
641.75	26.08
641.784	4.08
641.818	3.08
641.852	-6.92
641.886	-9.92
641.919	37.08
641.953	11.08
641.987	-28.92
642.021	-10.92
642.055	6.08
642.089	1.08
642.123	-5.92
642.157	10.08
642.191	-1.92
642.225	13.08
642.259	2.08
642.293	6.08
642.327	3.08
642.361	0.08
642.395	11.08
642.429	5.08
642.463	12.08
642.497	29.08
642.531	5.08
642.565	11.08
642.599	16.08
642.633	-14.92
642.666	22.08
642.7	14.08
642.734	11.08
642.768	-12.92
642.802	-4.92
642.836	6.08
642.87	-5.92
642.904	16.08
642.938	23.08
642.972	1.08
643.005	4.08
643.039	3.08
643.073	-7.92
643.107	1.08
643.141	9.08
643.175	7.08
643.209	0.08
643.243	-5.92
643.276	-10.92
643.31	-15.92
643.344	2.08
643.378	-12.92
643.412	29.08
643.446	11.08
643.48	-2.92
643.513	7.08
643.547	-0.92
643.581	-2.92
643.615	5.08
643.649	3.08
643.683	0.08
643.716	-0.92
643.75	2.08
643.784	-7.92
643.818	10.08
643.852	6.08
643.886	-6.92
643.919	9.08
643.953	14.08
643.987	-1.92
644.021	3.08
644.055	-1.92
644.088	6.08
644.122	-17.92
644.156	-6.92
644.19	-1.92
644.224	14.08
644.257	6.08
644.291	-9.92
644.325	4.08
644.359	-15.92
644.392	19.08
644.426	-7.92
644.46	-4.92
644.494	-5.92
644.527	-13.92
644.561	3.08
644.595	2.08
644.629	5.08
644.662	-14.92
644.696	23.08
644.73	16.08
644.764	4.08
644.797	-7.92
644.831	-0.92
644.865	-0.92
644.899	8.08
644.932	16.08
644.966	3.08
645	20.08
645.033	22.08
645.067	-7.92
645.101	6.08
645.135	0.08
645.168	3.08
645.202	2.08
645.236	0.08
645.269	6.08
645.303	-10.92
645.337	-10.92
645.37	-5.92
645.404	-3.92
645.438	6.08
645.471	-0.92
645.505	17.08
645.539	10.08
645.572	4.08
645.606	6.08
645.64	14.08
645.673	-1.92
645.707	27.08
645.741	6.08
645.774	9.08
645.808	6.08
645.842	-12.92
645.875	6.08
645.909	-1.92
645.943	14.08
645.976	-3.92
646.01	14.08
646.043	2.08
646.077	7.08
646.111	4.08
646.144	23.08
646.178	16.08
646.212	-14.92
646.245	4.08
646.279	11.08
646.312	0.08
646.346	17.08
646.38	-5.92
646.413	4.08
646.447	-6.92
646.48	-1.92
646.514	16.08
646.547	-2.92
646.581	7.08
646.615	-1.92
646.648	2.08
646.682	14.08
646.715	10.08
646.749	2.08
646.782	-13.92
646.816	-18.92
646.85	9.08
646.883	-4.92
646.917	17.08
646.95	14.08
646.984	14.08
647.017	11.08
647.051	2.08
647.084	7.08
647.118	-11.92
647.151	-3.92
647.185	-4.92
647.218	-20.92
647.252	-2.92
647.285	0.08
647.319	2.08
647.353	-5.92
647.386	11.08
647.42	2.08
647.453	8.08
647.487	-9.92
647.52	2.08
647.553	11.08
647.587	7.08
647.62	-12.92
647.654	15.08
647.687	6.08
647.721	9.08
647.754	10.08
647.788	6.08
647.821	-6.92
647.855	10.08
647.888	18.08
647.922	4.08
647.955	18.08
647.989	5.08
648.022	1.08
648.055	0.08
648.089	5.08
648.122	12.08
648.156	5.08
648.189	-7.92
648.223	0.08
648.256	17.08
648.29	15.08
648.323	-3.92
648.356	12.08
648.39	-2.92
648.423	-3.92
648.457	-8.92
648.49	1.08
648.523	-7.92
648.557	-4.92
648.59	-1.92
648.624	-1.92
648.657	4.08
648.69	6.08
648.724	4.08
648.757	22.08
648.791	8.08
648.824	21.08
648.857	26.08
648.891	13.08
648.924	17.08
648.957	16.08
648.991	-3.92
649.024	15.08
649.057	4.08
649.091	6.08
649.124	12.08
649.158	8.08
649.191	31.08
649.224	7.08
649.258	4.08
649.291	11.08
649.324	-0.92
649.358	8.08
649.391	6.08
649.424	5.08
649.458	1.08
649.491	-0.92
649.524	-2.92
649.557	-7.92
649.591	-20.92
649.624	14.08
649.657	1.08
649.691	9.08
649.724	3.08
649.757	3.08
649.791	-6.92
649.824	18.08
649.857	6.08
649.89	1.08
649.924	-5.92
649.957	-5.92
649.99	-7.92
650.023	-2.92
650.057	-7.92
650.09	20.08
650.123	-1.92
650.157	15.08
650.19	33.08
650.223	20.08
650.256	-9.92
650.29	-10.92
650.323	-7.92
650.356	17.08
650.389	-8.92
650.423	-5.92
650.456	-1.92
650.489	5.08
650.522	10.08
650.555	12.08
650.589	3.08
650.622	13.08
650.655	10.08
650.688	2.08
650.721	14.08
650.755	-9.92
650.788	4.08
650.821	-17.92
650.854	-5.92
650.887	-13.92
650.921	-26.92
650.954	4.08
650.987	-2.92
651.02	5.08
651.053	-7.92
651.087	-13.92
651.12	37.08
651.153	-0.92
651.186	1.08
651.219	-17.92
651.252	9.08
651.286	2.08
651.319	-2.92
651.352	8.08
651.385	4.08
651.418	4.08
651.451	3.08
651.484	2.08
651.518	-24.92
651.551	19.08
651.584	-7.92
651.617	12.08
651.65	16.08
651.683	5.08
651.716	-11.92
651.749	-7.92
651.783	-16.92
651.816	5.08
651.849	17.08
651.882	-3.92
651.915	-8.92
651.948	1.08
651.981	-6.92
652.014	-13.92
652.047	-22.92
652.08	-15.92
652.114	6.08
652.147	-1.92
652.18	7.08
652.213	9.08
652.246	3.08
652.279	10.08
652.312	10.08
652.345	-0.92
652.378	8.08
652.411	24.08
652.444	11.08
652.477	12.08
652.51	7.08
652.543	-3.92
652.576	8.08
652.609	-5.92
652.642	0.08
652.675	6.08
652.709	13.08
652.742	3.08
652.775	2.08
652.808	14.08
652.841	12.08
652.874	4.08
652.907	17.08
652.94	-5.92
652.973	-11.92
653.006	-7.92
653.039	-24.92
653.072	5.08
653.105	-5.92
653.138	-12.92
653.171	-13.92
653.204	-4.92
653.237	-5.92
653.27	-12.92
653.303	6.08
653.336	-1.92
653.368	-9.92
653.401	11.08
653.434	-3.92
653.467	12.08
653.5	-23.92
653.533	-10.92
653.566	2.08
653.599	5.08
653.632	5.08
653.665	8.08
653.698	0.08
653.731	-14.92
653.764	3.08
653.797	9.08
653.83	14.08
653.863	-9.92
653.896	-5.92
653.929	-10.92
653.961	0.08
653.994	-11.92
654.027	-18.92
654.06	5.08
654.093	6.08
654.126	12.08
654.159	-1.92
654.192	-9.92
654.225	-6.92
654.258	-8.92
654.29	-8.92
654.323	1.08
654.356	-0.92
654.389	-2.92
654.422	-0.92
654.455	5.08
654.488	11.08
654.521	-16.92
654.553	-18.92
654.586	8.08
654.619	-0.92
654.652	-9.92
654.685	1.08
654.718	-8.92
654.751	1.08
654.783	11.08
654.816	25.08
654.849	6.08
654.882	2.08
654.915	-3.92
654.948	5.08
654.98	-3.92
655.013	18.08
655.046	-2.92
655.079	4.08
655.112	6.08
655.144	-0.92
655.177	7.08
655.21	6.08
655.243	9.08
655.276	-3.92
655.308	8.08
655.341	-6.92
655.374	7.08
655.407	0.08
655.44	8.08
655.472	15.08
655.505	6.08
655.538	15.08
655.571	26.08
655.603	-0.92
655.636	7.08
655.669	8.08
655.702	22.08
655.734	4.08
655.767	13.08
655.8	16.08
655.833	11.08
655.865	18.08
655.898	22.08
655.931	29.08
655.964	44.08
655.996	47.08
656.029	62.08
656.062	51.08
656.095	70.08
656.127	67.08
656.16	102.08
656.193	115.08
656.225	170.08
656.258	261.08
656.291	494.08
656.324	1154.08
656.356	3398.08
656.389	7581.08
656.422	6013.08
656.454	2084.08
656.487	682.08
656.52	253.08
656.552	119.08
656.585	74.08
656.618	61.08
656.65	53.08
656.683	27.08
656.716	10.08
656.748	0.08
656.781	-3.92
656.814	6.08
656.846	22.08
656.879	-6.92
656.912	3.08
656.944	-0.92
656.977	-15.92
657.01	-16.92
657.042	10.08
657.075	7.08
657.108	-1.92
657.14	9.08
657.173	11.08
657.205	26.08
657.238	-5.92
657.271	-6.92
657.303	-24.92
657.336	-14.92
657.369	-1.92
657.401	9.08
657.434	12.08
657.466	12.08
657.499	7.08
657.532	-8.92
657.564	9.08
657.597	0.08
657.629	4.08
657.662	-3.92
657.694	-12.92
657.727	-15.92
657.76	-1.92
657.792	1.08
657.825	-15.92
657.857	-1.92
657.89	-9.92
657.922	13.08
657.955	-4.92
657.987	-8.92
658.02	19.08
658.053	6.08
658.085	2.08
658.118	3.08
658.15	6.08
658.183	18.08
658.215	7.08
658.248	-3.92
658.28	-6.92
658.313	24.08
658.345	4.08
658.378	12.08
658.41	18.08
658.443	-2.92
658.475	-7.92
658.508	-15.92
658.54	0.08
658.573	1.08
658.605	-2.92
658.638	0.08
658.67	4.08
658.703	2.08
658.735	-14.92
658.768	2.08
658.8	-12.92
658.833	17.08
658.865	-9.92
658.898	8.08
658.93	-7.92
658.963	6.08
658.995	-1.92
659.028	4.08
659.06	-0.92
659.092	1.08
659.125	1.08
659.157	11.08
659.19	-9.92
659.222	5.08
659.255	4.08
659.287	7.08
659.32	-2.92
659.352	-5.92
659.384	15.08
659.417	2.08
659.449	2.08
659.482	12.08
659.514	4.08
659.546	-1.92
659.579	-22.92
659.611	-10.92
659.644	-6.92
659.676	-12.92
659.708	-7.92
659.741	-0.92
659.773	-5.92
659.806	1.08
659.838	-8.92
659.87	-0.92
659.903	-16.92
659.935	3.08
659.967	13.08
660	0.08
660.032	-24.92
660.065	9.08
660.097	-9.92
660.129	6.08
660.162	-20.92
660.194	2.08
660.226	1.08
660.259	1.08
660.291	-10.92
660.323	2.08
660.356	0.08
660.388	-15.92
660.42	7.08
660.453	1.08
660.485	11.08
660.517	6.08
660.55	4.08
660.582	-10.92
660.614	11.08
660.647	-25.92
660.679	-21.92
660.711	11.08
660.743	-2.92
660.776	0.08
660.808	-1.92
660.84	-5.92
660.873	-5.92
660.905	11.08
660.937	-5.92
660.969	-12.92
661.002	3.08
661.034	18.08
661.066	2.08
661.099	-2.92
661.131	10.08
661.163	-1.92
661.195	-7.92
661.228	5.08
661.26	-10.92
661.292	-1.92
661.324	14.08
661.357	-3.92
661.389	10.08
661.421	-9.92
661.453	-2.92
661.485	4.08
661.518	-4.92
661.55	-5.92
661.582	-7.92
661.614	5.08
661.647	8.08
661.679	-10.92
661.711	3.08
661.743	-8.92
661.775	-0.92
661.808	18.08
661.84	-12.92
661.872	-4.92
661.904	-0.92
661.936	2.08
661.969	-22.92
662.001	-2.92
662.033	-9.92
662.065	-21.92
662.097	18.08
662.129	17.08
662.162	2.08
662.194	16.08
662.226	5.08
662.258	14.08
662.29	-7.92
662.322	-11.92
662.355	-11.92
662.387	7.08
662.419	11.08
662.451	6.08
662.483	-0.92
662.515	0.08
662.547	-16.92
662.58	-20.92
662.612	-13.92
662.644	-4.92
662.676	6.08
662.708	6.08
662.74	2.08
662.772	1.08
662.804	-4.92
662.836	1.08
662.869	-14.92
662.901	2.08
662.933	7.08
662.965	20.08
662.997	8.08
663.029	1.08
663.061	-1.92
663.093	2.08
663.125	12.08
663.157	12.08
663.189	3.08
663.221	18.08
663.254	3.08
663.286	-1.92
663.318	-13.92
663.35	-22.92
663.382	-15.92
663.414	7.08
663.446	-0.92
663.478	-5.92
663.51	22.08
663.542	-0.92
663.574	7.08
663.606	4.08
663.638	6.08
663.67	2.08
663.702	-6.92
663.734	-15.92
663.766	-1.92
663.798	-6.92
663.83	-3.92
663.862	3.08
663.894	11.08
663.926	1.08
663.958	16.08
663.99	3.08
664.022	-16.92
664.054	11.08
664.086	-1.92
664.118	-25.92
664.15	-4.92
664.182	-4.92
664.214	0.08
664.246	2.08
664.278	9.08
664.31	24.08
664.342	2.08
664.374	-2.92
664.406	5.08
664.438	-8.92
664.47	-2.92
664.502	-10.92
664.534	2.08
664.566	-7.92
664.598	5.08
664.63	-4.92
664.662	-5.92
664.693	6.08
664.725	10.08
664.757	-7.92
664.789	-15.92
664.821	13.08
664.853	22.08
664.885	-11.92
664.917	7.08
664.949	23.08
664.981	9.08
665.013	6.08
665.045	-14.92
665.076	-12.92
665.108	4.08
665.14	-16.92
665.172	-12.92
665.204	0.08
665.236	-4.92
665.268	5.08
665.3	-13.92
665.331	-17.92
665.363	-4.92
665.395	-10.92
665.427	-1.92
665.459	-5.92
665.491	-1.92
665.523	-3.92
665.555	-4.92
665.586	9.08
665.618	7.08
665.65	-9.92
665.682	11.08
665.714	9.08
665.746	-9.92
665.777	-4.92
665.809	1.08
665.841	-5.92
665.873	-8.92
665.905	-4.92
665.937	13.08
665.968	0.08
666	2.08
666.032	9.08
666.064	5.08
666.096	-0.92
666.127	11.08
666.159	7.08
666.191	8.08
666.223	-4.92
666.255	4.08
666.286	5.08
666.318	-2.92
666.35	14.08
666.382	3.08
666.413	-17.92
666.445	-19.92
666.477	-5.92
666.509	3.08
666.54	-4.92
666.572	-11.92
666.604	-2.92
666.636	5.08
666.667	2.08
666.699	10.08
666.731	-14.92
666.763	1.08
666.794	3.08
666.826	2.08
666.858	-8.92
666.89	8.08
666.921	-3.92
666.953	3.08
666.985	6.08
667.017	23.08
667.048	-5.92
667.08	1.08
667.112	1.08
667.143	-23.92
667.175	6.08
667.207	4.08
667.238	7.08
667.27	5.08
667.302	5.08
667.334	-1.92
667.365	12.08
667.397	3.08
667.429	0.08
667.46	12.08
667.492	7.08
667.524	-4.92
667.555	-10.92
667.587	1.08
667.619	-7.92
667.65	-8.92
667.682	8.08
667.714	17.08
667.745	2.08
667.777	5.08
667.808	6.08
667.84	-0.92
667.872	-5.92
667.903	2.08
667.935	-5.92
667.967	-8.92
667.998	-5.92
668.03	2.08
668.061	2.08
668.093	11.08
668.125	12.08
668.156	15.08
668.188	5.08
668.22	-4.92
668.251	10.08
668.283	7.08
668.314	11.08
668.346	-4.92
668.377	-2.92
668.409	-4.92
668.441	4.08
668.472	7.08
668.504	-0.92
668.535	12.08
668.567	0.08
668.599	-15.92
668.63	-10.92
668.662	-15.92
668.693	5.08
668.725	2.08
668.756	-3.92
668.788	-5.92
668.819	-7.92
668.851	-0.92
668.882	10.08
668.914	3.08
668.946	10.08
668.977	-4.92
669.009	-8.92
669.04	2.08
669.072	6.08
669.103	2.08
669.135	-12.92
669.166	4.08
669.198	10.08
669.229	-10.92
669.261	-0.92
669.292	3.08
669.324	10.08
669.355	1.08
669.387	-3.92
669.418	20.08
669.45	5.08
669.481	-1.92
669.513	3.08
669.544	7.08
669.576	2.08
669.607	22.08
669.639	14.08
669.67	-7.92
669.701	9.08
669.733	-12.92
669.764	4.08
669.796	-3.92
669.827	10.08
669.859	4.08
669.89	19.08
669.922	4.08
669.953	3.08
669.985	15.08
670.016	10.08
670.047	9.08
670.079	10.08
670.11	9.08
670.142	1.08
670.173	-2.92
670.204	-1.92
670.236	10.08
670.267	-18.92
670.299	7.08
670.33	1.08
670.362	5.08
670.393	-10.92
670.424	4.08
670.456	-9.92
670.487	1.08
670.518	-0.92
670.55	-9.92
670.581	-11.92
670.613	-5.92
670.644	-9.92
670.675	-5.92
670.707	8.08
670.738	10.08
670.769	-0.92
670.801	4.08
670.832	0.08
670.864	-8.92
670.895	0.08
670.926	-13.92
670.958	-8.92
670.989	9.08
671.02	6.08
671.052	-10.92
671.083	-14.92
671.114	-8.92
671.146	8.08
671.177	8.08
671.208	8.08
671.24	-12.92
671.271	-2.92
671.302	-1.92
671.333	-16.92
671.365	0.08
671.396	-17.92
671.427	-9.92
671.459	4.08
671.49	-1.92
671.521	-7.92
671.553	0.08
671.584	3.08
671.615	1.08
671.646	4.08
671.678	2.08
671.709	-8.92
671.74	2.08
671.771	-5.92
671.803	5.08
671.834	3.08
671.865	-7.92
671.896	-0.92
671.928	-6.92
671.959	-13.92
671.99	7.08
672.021	2.08
672.053	9.08
672.084	6.08
672.115	6.08
672.146	-8.92
672.178	-24.92
672.209	-18.92
672.24	-3.92
672.271	13.08
672.303	13.08
672.334	-8.92
672.365	-11.92
672.396	-4.92
672.427	-7.92
672.459	4.08
672.49	10.08
672.521	-13.92
672.552	10.08
672.583	-4.92
672.615	-5.92
672.646	6.08
672.677	-1.92
672.708	-7.92
672.739	-2.92
672.77	5.08
672.802	-9.92
672.833	-15.92
672.864	-3.92
672.895	-7.92
672.926	-13.92
672.957	-3.92
672.989	1.08
673.02	6.08
673.051	-13.92
673.082	5.08
673.113	4.08
673.144	0.08
673.175	-3.92
673.206	-17.92
673.238	0.08
673.269	-5.92
673.3	-9.92
673.331	21.08
673.362	-3.92
673.393	7.08
673.424	8.08
673.455	7.08
673.487	5.08
673.518	-3.92
673.549	10.08
673.58	-0.92
673.611	1.08
673.642	-21.92
673.673	-26.92
673.704	14.08
673.735	6.08
673.766	5.08
673.797	-5.92
673.828	1.08
673.86	-14.92
673.891	1.08
673.922	-20.92
673.953	-16.92
673.984	-10.92
674.015	-9.92
674.046	9.08
674.077	6.08
674.108	-20.92
674.139	-14.92
674.17	-12.92
674.201	-4.92
674.232	-8.92
674.263	-18.92
674.294	-22.92
674.325	-8.92
674.356	14.08
674.387	1.08
674.418	8.08
674.449	2.08
674.48	-17.92
674.511	2.08
674.542	0.08
674.573	-3.92
674.604	10.08
674.635	-0.92
674.666	7.08
674.697	-0.92
674.728	3.08
674.759	-3.92
674.79	-12.92
674.821	-21.92
674.852	-12.92
674.883	-12.92
674.914	4.08
674.945	-0.92
674.976	0.08
675.007	-4.92
675.038	-4.92
675.069	-14.92
675.1	1.08
675.131	7.08
675.162	-5.92
675.193	1.08
675.224	-10.92
675.254	4.08
675.285	-6.92
675.316	0.08
675.347	-6.92
675.378	-10.92
675.409	-1.92
675.44	-2.92
675.471	-17.92
675.502	-4.92
675.533	-4.92
675.564	8.08
675.595	-0.92
675.625	9.08
675.656	3.08
675.687	10.08
675.718	-14.92
675.749	-12.92
675.78	-28.92
675.811	-23.92
675.842	1.08
675.873	-9.92
675.903	-0.92
675.934	13.08
675.965	-16.92
675.996	-14.92
676.027	4.08
676.058	5.08
676.089	-9.92
676.119	-2.92
676.15	-0.92
676.181	0.08
676.212	1.08
676.243	12.08
676.274	-9.92
676.304	9.08
676.335	-12.92
676.366	2.08
676.397	0.08
676.428	1.08
676.459	-3.92
676.489	15.08
676.52	-1.92
676.551	0.08
676.582	-9.92
676.613	10.08
676.643	-5.92
676.674	6.08
676.705	8.08
676.736	-14.92
676.767	1.08
676.797	0.08
676.828	-10.92
676.859	-1.92
676.89	1.08
676.92	7.08
676.951	5.08
676.982	-8.92
677.013	-6.92
677.044	8.08
677.074	1.08
677.105	-9.92
677.136	-3.92
677.167	-13.92
677.197	-4.92
677.228	-8.92
677.259	-16.92
677.289	-11.92
677.32	-27.92
677.351	-5.92
677.382	-9.92
677.412	-17.92
677.443	5.08
677.474	2.08
677.505	-17.92
677.535	-14.92
677.566	-2.92
677.597	-8.92
677.627	-10.92
677.658	4.08
677.689	1.08
677.72	0.08
677.75	-10.92
677.781	2.08
677.812	8.08
677.842	12.08
677.873	5.08
677.904	-0.92
677.934	2.08
677.965	-6.92
677.996	-28.92
678.026	-4.92
678.057	6.08
678.088	-9.92
678.118	-1.92
678.149	-14.92
678.18	0.08
678.21	-1.92
678.241	-3.92
678.272	-5.92
678.302	-3.92
678.333	15.08
678.363	0.08
678.394	3.08
678.425	10.08
678.455	2.08
678.486	-0.92
678.517	6.08
678.547	-7.92
678.578	-4.92
678.608	-15.92
678.639	-1.92
678.67	11.08
678.7	-5.92
678.731	-17.92
678.761	-18.92
678.792	15.08
678.823	9.08
678.853	-4.92
678.884	-16.92
678.914	-1.92
678.945	-18.92
678.975	-2.92
679.006	4.08
679.037	-14.92
679.067	23.08
679.098	11.08
679.128	-6.92
679.159	-10.92
679.189	14.08
679.22	-9.92
679.25	5.08
679.281	-8.92
679.312	-1.92
679.342	6.08
679.373	20.08
679.403	9.08
679.434	-7.92
679.464	-2.92
679.495	1.08
679.525	0.08
679.556	-5.92
679.586	-0.92
679.617	-0.92
679.647	-0.92
679.678	1.08
679.708	-2.92
679.739	15.08
679.769	-5.92
679.8	-6.92
679.83	-1.92
679.861	2.08
679.891	1.08
679.922	-20.92
679.952	-4.92
679.983	3.08
680.013	2.08
680.044	-12.92
680.074	11.08
680.105	-1.92
680.135	0.08
680.165	15.08
680.196	-4.92
680.226	-3.92
680.257	1.08
680.287	2.08
680.318	-12.92
680.348	-3.92
680.379	29.08
680.409	-1.92
680.439	-9.92
680.47	5.08
680.5	-14.92
680.531	2.08
680.561	11.08
680.592	10.08
680.622	10.08
680.652	1.08
680.683	2.08
680.713	-7.92
680.744	-8.92
680.774	-3.92
680.804	20.08
680.835	4.08
680.865	-15.92
680.896	9.08
680.926	10.08
680.956	-2.92
680.987	1.08
681.017	-13.92
681.047	-14.92
681.078	-9.92
681.108	-15.92
681.139	-6.92
681.169	4.08
681.199	1.08
681.23	5.08
681.26	-4.92
681.29	2.08
681.321	8.08
681.351	1.08
681.381	-2.92
681.412	-9.92
681.442	3.08
681.472	12.08
681.503	-0.92
681.533	-6.92
681.563	-12.92
681.594	5.08
681.624	-1.92
681.654	-13.92
681.685	-7.92
681.715	9.08
681.745	-0.92
681.775	-13.92
681.806	-4.92
681.836	-19.92
681.866	-1.92
681.897	2.08
681.927	-0.92
681.957	-12.92
681.987	-4.92
682.018	-1.92
682.048	-13.92
682.078	-3.92
682.109	1.08
682.139	6.08
682.169	0.08
682.199	-18.92
682.23	-6.92
682.26	-4.92
682.29	6.08
682.32	-1.92
682.351	2.08
682.381	-5.92
682.411	-1.92
682.441	-8.92
682.472	-26.92
682.502	1.08
682.532	-8.92
682.562	14.08
682.592	2.08
682.623	3.08
682.653	1.08
682.683	-7.92
682.713	4.08
682.743	11.08
682.774	-8.92
682.804	-9.92
682.834	11.08
682.864	-20.92
682.894	10.08
682.925	-0.92
682.955	-12.92
682.985	-12.92
683.015	-1.92
683.045	6.08
683.076	-11.92
683.106	0.08
683.136	0.08
683.166	-18.92
683.196	-6.92
683.226	-10.92
683.257	-15.92
683.287	-14.92
683.317	-10.92
683.347	-9.92
683.377	-20.92
683.407	5.08
683.437	2.08
683.468	7.08
683.498	-1.92
683.528	2.08
683.558	2.08
683.588	-2.92
683.618	-14.92
683.648	-5.92
683.678	-0.92
683.708	9.08
683.739	0.08
683.769	-2.92
683.799	-6.92
683.829	9.08
683.859	-14.92
683.889	4.08
683.919	2.08
683.949	1.08
683.979	-12.92
684.009	-9.92
684.039	9.08
684.07	-4.92
684.1	12.08
684.13	-5.92
684.16	-7.92
684.19	-1.92
684.22	-18.92
684.25	2.08
684.28	-18.92
684.31	-0.92
684.34	9.08
684.37	10.08
684.4	-25.92
684.43	-1.92
684.46	-3.92
684.49	-1.92
684.52	3.08
684.55	8.08
684.58	-1.92
684.61	-12.92
684.64	-3.92
684.67	3.08
684.7	-2.92
684.73	-6.92
684.76	-14.92
684.79	1.08
684.82	-8.92
684.85	10.08
684.88	1.08
684.91	17.08
684.94	-0.92
684.97	-0.92
685	-8.92
685.03	-28.92
685.06	-23.92
685.09	-10.92
685.12	17.08
685.15	-1.92
685.18	9.08
685.21	17.08
685.24	3.08
685.27	-3.92
685.3	0.08
685.33	1.08
685.36	-7.92
685.39	11.08
685.42	-4.92
685.45	-18.92
685.48	-5.92
685.51	-9.92
685.54	3.08
685.569	14.08
685.599	17.08
685.629	1.08
685.659	-1.92
685.689	5.08
685.719	10.08
685.749	-8.92
685.779	6.08
685.809	10.08
685.839	-1.92
685.869	12.08
685.898	-5.92
685.928	-6.92
685.958	3.08
685.988	-6.92
686.018	0.08
686.048	9.08
686.078	16.08
686.108	14.08
686.137	7.08
686.167	1.08
686.197	-14.92
686.227	-9.92
686.257	27.08
686.287	14.08
686.317	13.08
686.346	0.08
686.376	1.08
686.406	-3.92
686.436	9.08
686.466	-1.92
686.496	6.08
686.525	3.08
686.555	2.08
686.585	6.08
686.615	31.08
686.645	8.08
686.675	-28.92
686.704	-3.92
686.734	7.08
686.764	-1.92
686.794	-2.92
686.824	-5.92
686.853	13.08
686.883	2.08
686.913	5.08
686.943	-1.92
686.973	-9.92
687.002	-8.92
687.032	-1.92
687.062	-9.92
687.092	18.08
687.121	1.08
687.151	-1.92
687.181	-6.92
687.211	17.08
687.24	-10.92
687.27	-1.92
687.3	-1.92
687.33	-8.92
687.359	-8.92
687.389	-1.92
687.419	-0.92
687.449	-7.92
687.478	-0.92
687.508	-4.92
687.538	-3.92
687.568	-4.92
687.597	3.08
687.627	6.08
687.657	7.08
687.686	-6.92
687.716	24.08
687.746	0.08
687.776	-9.92
687.805	20.08
687.835	13.08
687.865	16.08
687.894	2.08
687.924	-2.92
687.954	6.08
687.983	-9.92
688.013	14.08
688.043	8.08
688.072	-4.92
688.102	1.08
688.132	-3.92
688.161	6.08
688.191	-1.92
688.221	28.08
688.25	2.08
688.28	11.08
688.31	-0.92
688.339	1.08
688.369	-5.92
688.399	-9.92
688.428	-3.92
688.458	-0.92
688.488	0.08
688.517	1.08
688.547	-8.92
688.576	10.08
688.606	21.08
688.636	-4.92
688.665	15.08
688.695	10.08
688.725	20.08
688.754	-0.92
688.784	-0.92
688.813	26.08
688.843	12.08
688.873	-0.92
688.902	5.08
688.932	-7.92
688.961	4.08
688.991	13.08
689.02	11.08
689.05	-1.92
689.08	10.08
689.109	-2.92
689.139	-4.92
689.168	-8.92
689.198	7.08
689.227	3.08
689.257	4.08
689.287	2.08
689.316	-7.92
689.346	-6.92
689.375	-8.92
689.405	-1.92
689.434	-13.92
689.464	12.08
689.493	-10.92
689.523	-21.92
689.552	-4.92
689.582	14.08
689.611	6.08
689.641	5.08
689.67	-1.92
689.7	2.08
689.73	13.08
689.759	-2.92
689.789	13.08
689.818	-9.92
689.848	-4.92
689.877	11.08
689.906	-11.92
689.936	-10.92
689.965	-6.92
689.995	15.08
690.024	20.08
690.054	-9.92
690.083	-5.92
690.113	7.08
690.142	-5.92
690.172	-1.92
690.201	-0.92
690.231	0.08
690.26	-15.92
690.29	0.08
690.319	22.08
690.348	12.08
690.378	-7.92
690.407	-6.92
690.437	-7.92
690.466	-3.92
690.496	-2.92
690.525	1.08
690.555	-10.92
690.584	5.08
690.613	-1.92
690.643	1.08
690.672	6.08
690.702	-1.92
690.731	-0.92
690.76	7.08
690.79	0.08
690.819	1.08
690.849	2.08
690.878	1.08
690.907	-9.92
690.937	12.08
690.966	18.08
690.996	11.08
691.025	2.08
691.054	9.08
691.084	-10.92
691.113	7.08
691.142	3.08
691.172	1.08
691.201	1.08
691.23	-9.92
691.26	11.08
691.289	8.08
691.319	-5.92
691.348	-9.92
691.377	11.08
691.407	7.08
691.436	15.08
691.465	7.08
691.495	2.08
691.524	-12.92
691.553	-12.92
691.583	-10.92
691.612	8.08
691.641	-5.92
691.67	-8.92
691.7	2.08
691.729	-14.92
691.758	2.08
691.788	0.08
691.817	2.08
691.846	-11.92
691.876	9.08
691.905	-1.92
691.934	-9.92
691.963	-5.92
691.993	-12.92
692.022	-0.92
692.051	-9.92
692.081	3.08
692.11	10.08
692.139	-6.92
692.168	2.08
692.198	8.08
692.227	22.08
692.256	8.08
692.285	-9.92
692.315	-10.92
692.344	-10.92
692.373	12.08
692.402	-31.92
692.432	-13.92
692.461	1.08
692.49	-0.92
692.519	-11.92
692.548	0.08
692.578	8.08
692.607	-17.92
692.636	-8.92
692.665	15.08
692.694	-12.92
692.724	-4.92
692.753	6.08
692.782	8.08
692.811	4.08
692.84	2.08
692.87	-6.92
692.899	-5.92
692.928	8.08
692.957	15.08
692.986	13.08
693.016	-9.92
693.045	-0.92
693.074	11.08
693.103	-1.92
693.132	3.08
693.161	18.08
693.191	6.08
693.22	12.08
693.249	7.08
693.278	-0.92
693.307	17.08
693.336	-0.92
693.365	2.08
693.395	3.08
693.424	-5.92
693.453	11.08
693.482	9.08
693.511	10.08
693.54	4.08
693.569	4.08
693.598	2.08
693.628	27.08
693.657	4.08
693.686	24.08
693.715	6.08
693.744	7.08
693.773	20.08
693.802	12.08
693.831	-21.92
693.86	14.08
693.889	-10.92
693.919	1.08
693.948	15.08
693.977	1.08
694.006	-10.92
694.035	4.08
694.064	3.08
694.093	-4.92
694.122	-2.92
694.151	1.08
694.18	-5.92
694.209	31.08
694.238	10.08
694.267	29.08
694.296	26.08
694.325	10.08
694.354	12.08
694.383	10.08
694.412	-7.92
694.441	-2.92
694.471	1.08
694.5	-3.92
694.529	6.08
694.558	9.08
694.587	14.08
694.616	4.08
694.645	-4.92
694.674	9.08
694.703	6.08
694.732	1.08
694.761	11.08
694.79	7.08
694.819	-13.92
694.848	9.08
694.877	15.08
694.906	1.08
694.935	-7.92
694.963	14.08
694.992	7.08
695.021	5.08
695.05	12.08
695.079	5.08
695.108	-1.92
695.137	15.08
695.166	-11.92
695.195	-10.92
695.224	13.08
695.253	8.08
695.282	2.08
695.311	-7.92
695.34	-6.92
695.369	-5.92
695.398	-1.92
695.427	27.08
695.456	-2.92
695.485	-12.92
695.513	-5.92
695.542	-0.92
695.571	-9.92
695.6	17.08
695.629	-4.92
695.658	7.08
695.687	-0.92
695.716	7.08
695.745	19.08
695.774	-14.92
695.802	-5.92
695.831	11.08
695.86	3.08
695.889	9.08
695.918	23.08
695.947	-21.92
695.976	1.08
696.005	-13.92
696.033	9.08
696.062	7.08
696.091	11.08
696.12	9.08
696.149	13.08
696.178	0.08
696.207	9.08
696.235	-23.92
696.264	9.08
696.293	2.08
696.322	-7.92
696.351	17.08
696.38	-1.92
696.408	3.08
696.437	-10.92
696.466	2.08
696.495	32.08
696.524	17.08
696.553	2.08
696.581	0.08
696.61	-5.92
696.639	-6.92
696.668	-10.92
696.697	-7.92
696.725	-0.92
696.754	-2.92
696.783	-7.92
696.812	-11.92
696.84	11.08
696.869	-6.92
696.898	-12.92
696.927	6.08
696.956	6.08
696.984	-4.92
697.013	2.08
697.042	-10.92
697.071	4.08
697.099	18.08
697.128	-0.92
697.157	10.08
697.186	0.08
697.214	3.08
697.243	-5.92
697.272	0.08
697.301	6.08
697.329	0.08
697.358	-0.92
697.387	9.08
697.415	8.08
697.444	18.08
697.473	-5.92
697.502	-4.92
697.53	2.08
697.559	-0.92
697.588	2.08
697.616	6.08
697.645	7.08
697.674	15.08
697.703	13.08
697.731	12.08
697.76	1.08
697.789	-14.92
697.817	2.08
697.846	14.08
697.875	8.08
697.903	16.08
697.932	4.08
697.961	-0.92
697.989	13.08
698.018	-5.92
698.047	-1.92
698.075	1.08
698.104	-8.92
698.133	-2.92
698.161	-6.92
698.19	-7.92
698.218	-3.92
698.247	3.08
698.276	-0.92
698.304	5.08
698.333	-10.92
698.362	-5.92
698.39	5.08
698.419	1.08
698.447	-15.92
698.476	6.08
698.505	15.08
698.533	-3.92
698.562	-3.92
698.591	-23.92
698.619	-11.92
698.648	2.08
698.676	-4.92
698.705	12.08
698.733	-10.92
698.762	-10.92
698.791	10.08
698.819	12.08
698.848	-10.92
698.876	8.08
698.905	-4.92
698.933	17.08
698.962	5.08
698.991	-5.92
699.019	15.08
699.048	1.08
699.076	-17.92
699.105	-0.92
699.133	3.08
699.162	1.08
699.19	15.08
699.219	5.08
699.248	10.08
699.276	2.08
699.305	-13.92
699.333	3.08
699.362	-0.92
699.39	10.08
699.419	4.08
699.447	-1.92
699.476	10.08
699.504	-12.92
699.533	-12.92
699.561	-3.92
699.59	-3.92
699.618	-3.92
699.647	1.08
699.675	2.08
699.704	6.08
699.732	-1.92
699.761	-3.92
699.789	-13.92
699.818	3.08
699.846	6.08
699.874	7.08
699.903	-4.92
699.931	9.08
699.96	3.08
699.988	4.08
700.017	6.08
700.045	8.08
700.074	-2.92
700.102	-0.92
700.13	-1.92
700.159	-6.92
700.187	-10.92
700.216	2.08
700.244	-5.92
700.273	6.08
700.301	10.08
700.329	10.08
700.358	10.08
700.386	0.08
700.415	11.08
700.443	-1.92
700.472	-13.92
700.5	0.08
700.528	-9.92
700.557	-6.92
700.585	-7.92
700.614	12.08
700.642	16.08
700.67	22.08
700.699	-4.92
700.727	-1.92
700.755	-14.92
700.784	-10.92
700.812	-11.92
700.841	12.08
700.869	1.08
700.897	-23.92
700.926	-8.92
700.954	-7.92
700.982	8.08
701.011	-3.92
701.039	3.08
701.067	-2.92
701.096	9.08
701.124	-8.92
701.152	1.08
701.181	-2.92
701.209	-1.92
701.237	-5.92
701.266	1.08
701.294	-1.92
701.322	-4.92
701.351	-2.92
701.379	-1.92
701.407	8.08
701.435	12.08
701.464	14.08
701.492	19.08
701.52	6.08
701.549	4.08
701.577	-6.92
701.605	-1.92
701.634	-1.92
701.662	5.08
701.69	-10.92
701.718	-6.92
701.747	6.08
701.775	-8.92
701.803	5.08
701.831	-4.92
701.86	-19.92
701.888	10.08
701.916	8.08
701.944	12.08
701.973	-1.92
702.001	-12.92
702.029	-12.92
702.057	-14.92
702.086	-13.92
702.114	-15.92
702.142	1.08
702.17	-5.92
702.199	7.08
702.227	6.08
702.255	-4.92
702.283	-6.92
702.311	3.08
702.34	-24.92
702.368	-27.92
702.396	3.08
702.424	-11.92
702.452	8.08
702.481	18.08
702.509	-8.92
702.537	9.08
702.565	-2.92
702.593	-7.92
702.621	1.08
702.65	9.08
702.678	-18.92
702.706	-4.92
702.734	-12.92
702.762	3.08
702.79	-2.92
702.819	4.08
702.847	-11.92
702.875	9.08
702.903	3.08
702.931	-12.92
702.959	7.08
702.988	-6.92
703.016	-24.92
703.044	8.08
703.072	4.08
703.1	-9.92
703.128	-11.92
703.156	-12.92
703.184	-4.92
703.212	8.08
703.241	-1.92
703.269	-16.92
703.297	-5.92
703.325	-9.92
703.353	-9.92
703.381	-16.92
703.409	-8.92
703.437	-7.92
703.465	6.08
703.493	-12.92
703.522	-1.92
703.55	-0.92
703.578	6.08
703.606	-10.92
703.634	-5.92
703.662	-10.92
703.69	-4.92
703.718	-2.92
703.746	3.08
703.774	3.08
703.802	17.08
703.83	-9.92
703.858	7.08
703.886	-4.92
703.914	-10.92
703.942	-1.92
703.97	-17.92
703.998	-13.92
704.027	3.08
704.055	-4.92
704.083	7.08
704.111	-26.92
704.139	-4.92
704.167	-13.92
704.195	-12.92
704.223	4.08
704.251	-0.92
704.279	8.08
704.307	-1.92
704.335	-16.92
704.363	1.08
704.391	-9.92
704.419	10.08
704.447	-4.92
704.475	1.08
704.503	-15.92
704.531	6.08
704.558	5.08
704.586	4.08
704.614	-5.92
704.642	-0.92
704.67	-9.92
704.698	-7.92
704.726	-5.92
704.754	-9.92
704.782	-6.92
704.81	-8.92
704.838	23.08
704.866	11.08
704.894	-17.92
704.922	4.08
704.95	6.08
704.978	19.08
705.006	9.08
705.034	20.08
705.061	-4.92
705.089	2.08
705.117	-1.92
705.145	-0.92
705.173	4.08
705.201	-12.92
705.229	12.08
705.257	2.08
705.285	8.08
705.313	-6.92
705.34	4.08
705.368	-6.92
705.396	-2.92
705.424	-2.92
705.452	-3.92
705.48	-1.92
705.508	-7.92
705.536	2.08
705.563	-9.92
705.591	4.08
705.619	-7.92
705.647	-16.92
705.675	-10.92
705.703	7.08
705.731	-6.92
705.758	1.08
705.786	-2.92
705.814	6.08
705.842	-4.92
705.87	1.08
705.898	15.08
705.925	-4.92
705.953	-7.92
705.981	-11.92
706.009	0.08
706.037	8.08
706.065	-5.92
706.092	-23.92
706.12	-11.92
706.148	-8.92
706.176	-10.92
706.204	-5.92
706.231	2.08
706.259	-2.92
706.287	-2.92
706.315	9.08
706.342	-12.92
706.37	-7.92
706.398	4.08
706.426	2.08
706.454	4.08
706.481	4.08
706.509	5.08
706.537	-4.92
706.565	5.08
706.592	-2.92
706.62	-9.92
706.648	-0.92
706.676	-7.92
706.703	-0.92
706.731	-8.92
706.759	-5.92
706.787	-0.92
706.814	-1.92
706.842	-1.92
706.87	-2.92
706.897	-3.92
706.925	-0.92
706.953	14.08
706.981	26.08
707.008	-0.92
707.036	1.08
707.064	-11.92
707.091	-40.92
707.119	6.08
707.147	5.08
707.174	0.08
707.202	12.08
707.23	-14.92
707.258	5.08
707.285	-5.92
707.313	-0.92
707.341	-22.92
707.368	2.08
707.396	-5.92
707.424	7.08
707.451	2.08
707.479	-17.92
707.507	-5.92
707.534	-5.92
707.562	0.08
707.59	-15.92
707.617	-13.92
707.645	-4.92
707.672	3.08
707.7	13.08
707.728	3.08
707.755	-4.92
707.783	-7.92
707.811	1.08
707.838	-1.92
707.866	8.08
707.893	8.08
707.921	-14.92
707.949	-2.92
707.976	9.08
708.004	-4.92
708.031	2.08
708.059	-3.92
708.087	7.08
708.114	-8.92
708.142	-2.92
708.169	-0.92
708.197	-5.92
708.225	-10.92
708.252	4.08
708.28	13.08
708.307	-2.92
708.335	-2.92
708.362	-3.92
708.39	-12.92
708.418	4.08
708.445	-2.92
708.473	-0.92
708.5	-19.92
708.528	-5.92
708.555	-3.92
708.583	1.08
708.61	4.08
708.638	12.08
708.665	-8.92
708.693	-19.92
708.72	-7.92
708.748	1.08
708.776	-1.92
708.803	15.08
708.831	7.08
708.858	16.08
708.886	-1.92
708.913	-2.92
708.941	-16.92
708.968	15.08
708.996	8.08
709.023	20.08
709.051	3.08
709.078	-6.92
709.105	-2.92
709.133	-2.92
709.16	-2.92
709.188	-0.92
709.215	-3.92
709.243	0.08
709.27	-4.92
709.298	-13.92
709.325	-15.92
709.353	-4.92
709.38	-6.92
709.408	13.08
709.435	9.08
709.462	-2.92
709.49	-9.92
709.517	-1.92
709.545	-5.92
709.572	5.08
709.6	5.08
709.627	21.08
709.655	2.08
709.682	2.08
709.709	8.08
709.737	7.08
709.764	-7.92
709.792	16.08
709.819	-13.92
709.846	-13.92
709.874	22.08
709.901	20.08
709.929	8.08
709.956	12.08
709.983	-2.92
710.011	6.08
710.038	1.08
710.066	1.08
710.093	-3.92
710.12	1.08
710.148	-0.92
710.175	-5.92
710.202	-11.92
710.23	0.08
710.257	1.08
710.284	4.08
710.312	16.08
710.339	3.08
710.366	4.08
710.394	3.08
710.421	-0.92
710.448	15.08
710.476	-8.92
710.503	3.08
710.53	18.08
710.558	-1.92
710.585	1.08
710.612	-4.92
710.64	10.08
710.667	2.08
710.694	-6.92
710.722	2.08
710.749	5.08
710.776	6.08
710.804	27.08
710.831	-5.92
710.858	-2.92
710.885	-10.92
710.913	-7.92
710.94	18.08
710.967	-6.92
710.995	-2.92
711.022	-4.92
711.049	-2.92
711.076	-9.92
711.104	-1.92
711.131	-12.92
711.158	-4.92
711.185	12.08
711.213	-12.92
711.24	-8.92
711.267	3.08
711.294	-0.92
711.322	3.08
711.349	-2.92
711.376	5.08
711.403	12.08
711.431	-8.92
711.458	1.08
711.485	8.08
711.512	10.08
711.54	-1.92
711.567	6.08
711.594	-10.92
711.621	1.08
711.648	-4.92
711.676	-1.92
711.703	1.08
711.73	-17.92
711.757	-10.92
711.784	-8.92
711.812	-6.92
711.839	-1.92
711.866	1.08
711.893	-20.92
711.92	9.08
711.947	0.08
711.975	11.08
712.002	-0.92
712.029	2.08
712.056	2.08
712.083	18.08
712.11	-11.92
712.138	6.08
712.165	1.08
712.192	8.08
712.219	-4.92
712.246	-21.92
712.273	-14.92
712.3	2.08
712.328	9.08
712.355	6.08
712.382	-11.92
712.409	4.08
712.436	-22.92
712.463	6.08
712.49	16.08
712.517	-1.92
712.544	-1.92
712.572	3.08
712.599	-10.92
712.626	15.08
712.653	3.08
712.68	8.08
712.707	12.08
712.734	-3.92
712.761	-7.92
712.788	3.08
712.815	-1.92
712.842	13.08
712.87	-17.92
712.897	-26.92
712.924	-11.92
712.951	-5.92
712.978	10.08
713.005	10.08
713.032	17.08
713.059	-10.92
713.086	1.08
713.113	-5.92
713.14	-4.92
713.167	-1.92
713.194	1.08
713.221	-5.92
713.248	4.08
713.275	-13.92
713.302	-12.92
713.329	6.08
713.356	2.08
713.383	11.08
713.41	-1.92
713.437	-9.92
713.464	-14.92
713.491	-1.92
713.518	-14.92
713.545	-8.92
713.572	20.08
713.599	3.08
713.626	-1.92
713.653	3.08
713.68	-15.92
713.707	0.08
713.734	4.08
713.761	2.08
713.788	-12.92
713.815	5.08
713.842	5.08
713.869	-1.92
713.896	-2.92
713.923	-6.92
713.95	-7.92
713.977	-1.92
714.004	-10.92
714.031	-6.92
714.058	2.08
714.085	5.08
714.112	6.08
714.139	-1.92
714.165	2.08
714.192	-11.92
714.219	-1.92
714.246	7.08
714.273	7.08
714.3	8.08
714.327	2.08
714.354	15.08
714.381	12.08
714.408	-1.92
714.435	-1.92
714.461	5.08
714.488	8.08
714.515	13.08
714.542	-10.92
714.569	-13.92
714.596	-4.92
714.623	-1.92
714.65	-12.92
714.677	-1.92
714.703	-2.92
714.73	7.08
714.757	-3.92
714.784	2.08
714.811	-13.92
714.838	-6.92
714.865	-13.92
714.891	-6.92
714.918	-16.92
714.945	-6.92
714.972	2.08
714.999	5.08
715.026	-8.92
715.052	13.08
715.079	6.08
715.106	8.08
715.133	9.08
715.16	-5.92
715.187	9.08
715.213	-8.92
715.24	-18.92
715.267	1.08
715.294	-0.92
715.321	-7.92
715.347	-2.92
715.374	-1.92
715.401	-8.92
715.428	-2.92
715.455	-1.92
715.481	0.08
715.508	1.08
715.535	-2.92
715.562	18.08
715.588	-10.92
715.615	-9.92
715.642	-5.92
715.669	-9.92
715.695	-16.92
715.722	1.08
715.749	6.08
715.776	-1.92
715.802	-4.92
715.829	7.08
715.856	-5.92
715.883	12.08
715.909	-0.92
715.936	-13.92
715.963	-5.92
715.99	-10.92
716.016	0.08
716.043	-6.92
716.07	-6.92
716.096	-15.92
716.123	-2.92
716.15	-6.92
716.177	-11.92
716.203	2.08
716.23	10.08
716.257	2.08
716.283	11.08
716.31	6.08
716.337	9.08
716.363	-2.92
716.39	-0.92
716.417	20.08
716.443	2.08
716.47	11.08
716.497	17.08
716.523	13.08
716.55	4.08
716.577	11.08
716.603	-4.92
716.63	-2.92
716.657	10.08
716.683	-3.92
716.71	-2.92
716.737	-11.92
716.763	-0.92
716.79	2.08
716.817	-3.92
716.843	-1.92
716.87	-9.92
716.897	-0.92
716.923	22.08
716.95	-11.92
716.976	-18.92
717.003	2.08
717.03	17.08
717.056	13.08
717.083	-2.92
717.109	10.08
717.136	3.08
717.163	-5.92
717.189	10.08
717.216	-10.92
717.242	-6.92
717.269	-2.92
717.296	0.08
717.322	15.08
717.349	14.08
717.375	1.08
717.402	-8.92
717.428	9.08
717.455	17.08
717.481	-2.92
717.508	-8.92
717.535	-4.92
717.561	-15.92
717.588	-1.92
717.614	-6.92
717.641	1.08
717.667	-3.92
717.694	-1.92
717.72	8.08
717.747	-3.92
717.773	0.08
717.8	12.08
717.826	-11.92
717.853	8.08
717.88	30.08
717.906	6.08
717.933	-0.92
717.959	16.08
717.986	3.08
718.012	-0.92
718.039	13.08
718.065	8.08
718.092	20.08
718.118	-1.92
718.144	-2.92
718.171	16.08
718.197	11.08
718.224	-6.92
718.25	17.08
718.277	10.08
718.303	8.08
718.33	-2.92
718.356	4.08
718.383	-8.92
718.409	-6.92
718.436	6.08
718.462	5.08
718.489	-9.92
718.515	8.08
718.541	22.08
718.568	-6.92
718.594	6.08
718.621	9.08
718.647	-1.92
718.674	-3.92
718.7	5.08
718.726	-4.92
718.753	1.08
718.779	9.08
718.806	-0.92
718.832	-1.92
718.858	3.08
718.885	-12.92
718.911	4.08
718.938	0.08
718.964	-13.92
718.99	10.08
719.017	2.08
719.043	13.08
719.07	22.08
719.096	-7.92
719.122	6.08
719.149	9.08
719.175	-4.92
719.201	3.08
719.228	6.08
719.254	-8.92
719.281	-11.92
719.307	-8.92
719.333	-4.92
719.36	14.08
719.386	2.08
719.412	1.08
719.439	-16.92
719.465	3.08
719.491	-3.92
719.518	-10.92
719.544	-3.92
719.57	-1.92
719.597	-10.92
719.623	1.08
719.649	7.08
719.675	-4.92
719.702	15.08
719.728	5.08
719.754	-11.92
719.781	0.08
719.807	-10.92
719.833	-7.92
719.86	-15.92
719.886	2.08
719.912	-2.92
719.938	-10.92
719.965	-2.92
719.991	7.08
720.017	10.08
720.044	-6.92
720.07	5.08
720.096	-3.92
720.122	-1.92
720.149	-1.92
720.175	28.08
720.201	-1.92
720.227	-8.92
720.254	-8.92
720.28	-15.92
720.306	-19.92
720.332	1.08
720.359	-4.92
720.385	7.08
720.411	-6.92
720.437	8.08
720.463	-14.92
720.49	-5.92
720.516	-17.92
720.542	-5.92
720.568	7.08
720.595	8.08
720.621	4.08
720.647	2.08
720.673	8.08
720.699	-7.92
720.725	4.08
720.752	-11.92
720.778	2.08
720.804	-4.92
720.83	-9.92
720.856	-1.92
720.883	-28.92
720.909	-9.92
720.935	14.08
720.961	-0.92
720.987	7.08
721.013	5.08
721.04	-12.92
721.066	-14.92
721.092	-2.92
721.118	5.08
721.144	1.08
721.17	-8.92
721.196	0.08
721.223	-11.92
721.249	-5.92
721.275	14.08
721.301	-0.92
721.327	22.08
721.353	1.08
721.379	14.08
721.405	20.08
721.432	19.08
721.458	1.08
721.484	6.08
721.51	-24.92
721.536	-0.92
721.562	-12.92
721.588	-13.92
721.614	-7.92
721.64	-7.92
721.666	1.08
721.693	-12.92
721.719	-18.92
721.745	-23.92
721.771	-7.92
721.797	-10.92
721.823	-5.92
721.849	18.08
721.875	14.08
721.901	4.08
721.927	-1.92
721.953	-1.92
721.979	10.08
722.005	5.08
722.031	-21.92
722.057	-2.92
722.083	-6.92
722.109	-5.92
722.135	13.08
722.161	23.08
722.187	-9.92
722.214	-11.92
722.24	-23.92
722.266	-14.92
722.292	7.08
722.318	2.08
722.344	1.08
722.37	10.08
722.396	6.08
722.422	-11.92
722.448	-4.92
722.474	-9.92
722.5	18.08
722.526	6.08
722.552	2.08
722.578	4.08
722.603	1.08
722.629	-0.92
722.655	8.08
722.681	3.08
722.707	-17.92
722.733	-6.92
722.759	-6.92
722.785	-2.92
722.811	-0.92
722.837	-1.92
722.863	6.08
722.889	1.08
722.915	-8.92
722.941	0.08
722.967	-1.92
722.993	-5.92
723.019	13.08
723.045	3.08
723.071	-5.92
723.097	-6.92
723.122	-0.92
723.148	-12.92
723.174	6.08
723.2	-5.92
723.226	-10.92
723.252	-13.92
723.278	-10.92
723.304	-7.92
723.33	2.08
723.356	2.08
723.381	-12.92
723.407	-5.92
723.433	1.08
723.459	1.08
723.485	-0.92
723.511	2.08
723.537	-3.92
723.563	-18.92
723.588	-16.92
723.614	5.08
723.64	-14.92
723.666	-0.92
723.692	6.08
723.718	11.08
723.744	1.08
723.769	6.08
723.795	-2.92
723.821	-7.92
723.847	-6.92
723.873	6.08
723.899	-0.92
723.924	-14.92
723.95	-9.92
723.976	-5.92
724.002	-4.92
724.028	-8.92
724.053	9.08
724.079	-5.92
724.105	-0.92
724.131	-11.92
724.157	-1.92
724.182	10.08
724.208	11.08
724.234	-6.92
724.26	-8.92
724.286	13.08
724.311	0.08
724.337	-17.92
724.363	9.08
724.389	4.08
724.415	-19.92
724.44	3.08
724.466	-0.92
724.492	9.08
724.518	16.08
724.543	-1.92
724.569	-0.92
724.595	1.08
724.621	-6.92
724.646	-2.92
724.672	15.08
724.698	14.08
724.723	4.08
724.749	-2.92
724.775	3.08
724.801	13.08
724.826	-2.92
724.852	-7.92
724.878	-5.92
724.904	-22.92
724.929	-4.92
724.955	-5.92
724.981	-6.92
725.006	-5.92
725.032	1.08
725.058	20.08
725.083	-16.92
725.109	-10.92
725.135	5.08
725.161	12.08
725.186	-4.92
725.212	-10.92
725.238	3.08
725.263	0.08
725.289	-7.92
725.315	1.08
725.34	-7.92
725.366	2.08
725.392	-12.92
725.417	1.08
725.443	-7.92
725.468	1.08
725.494	16.08
725.52	8.08
725.545	0.08
725.571	-5.92
725.597	0.08
725.622	5.08
725.648	-2.92
725.674	-0.92
725.699	-0.92
725.725	-5.92
725.75	37.08
725.776	6.08
725.802	2.08
725.827	-11.92
725.853	-16.92
725.878	13.08
725.904	-17.92
725.93	-10.92
725.955	-2.92
725.981	-12.92
726.006	10.08
726.032	10.08
726.057	-12.92
726.083	-10.92
726.109	-8.92
726.134	-13.92
726.16	2.08
726.185	-10.92
726.211	-14.92
726.236	-6.92
726.262	-12.92
726.288	10.08
726.313	5.08
726.339	-1.92
726.364	-3.92
726.39	14.08
726.415	6.08
726.441	3.08
726.466	-12.92
726.492	-2.92
726.517	13.08
726.543	-5.92
726.568	-10.92
726.594	-6.92
726.619	4.08
726.645	6.08
726.67	-0.92
726.696	-10.92
726.721	2.08
726.747	-6.92
726.772	-0.92
726.798	3.08
726.823	10.08
726.849	16.08
726.874	3.08
726.9	21.08
726.925	-1.92
726.951	-6.92
726.976	11.08
727.002	-12.92
727.027	1.08
727.053	-0.92
727.078	1.08
727.104	-4.92
727.129	-6.92
727.155	-2.92
727.18	8.08
727.205	-9.92
727.231	-22.92
727.256	6.08
727.282	-7.92
727.307	7.08
727.333	-12.92
727.358	-15.92
727.383	-8.92
727.409	-9.92
727.434	13.08
727.46	-14.92
727.485	-6.92
727.511	-7.92
727.536	-10.92
727.561	-9.92
727.587	-8.92
727.612	-0.92
727.637	-5.92
727.663	-2.92
727.688	11.08
727.714	-5.92
727.739	3.08
727.764	-9.92
727.79	10.08
727.815	0.08
727.841	24.08
727.866	15.08
727.891	7.08
727.917	-1.92
727.942	-7.92
727.967	-6.92
727.993	-11.92
728.018	-5.92
728.043	0.08
728.069	-1.92
728.094	4.08
728.119	-12.92
728.145	3.08
728.17	-5.92
728.195	-0.92
728.221	9.08
728.246	-15.92
728.271	-6.92
728.297	24.08
728.322	6.08
728.347	-6.92
728.373	11.08
728.398	-0.92
728.423	-5.92
728.448	11.08
728.474	-5.92
728.499	5.08
728.524	-6.92
728.55	-8.92
728.575	-15.92
728.6	-11.92
728.625	-11.92
728.651	-1.92
728.676	-3.92
728.701	3.08
728.727	-0.92
728.752	-12.92
728.777	-8.92
728.802	-4.92
728.828	-2.92
728.853	-0.92
728.878	-12.92
728.903	-1.92
728.929	-8.92
728.954	-12.92
728.979	1.08
729.004	1.08
729.03	-14.92
729.055	4.08
729.08	-16.92
729.105	-13.92
729.13	-2.92
729.156	5.08
729.181	-10.92
729.206	-10.92
729.231	-17.92
729.256	6.08
729.282	6.08
729.307	-6.92
729.332	5.08
729.357	-4.92
729.382	-1.92
729.408	6.08
729.433	19.08
729.458	3.08
729.483	4.08
729.508	4.08
729.533	1.08
729.559	-11.92
729.584	-20.92
729.609	5.08
729.634	-7.92
729.659	-17.92
729.684	-11.92
729.71	10.08
729.735	7.08
729.76	-12.92
729.785	-4.92
729.81	10.08
729.835	-2.92
729.86	-10.92
729.886	1.08
729.911	8.08
729.936	13.08
729.961	13.08
729.986	-22.92
730.011	4.08
730.036	10.08
730.061	6.08
730.086	1.08
730.112	-5.92
730.137	9.08
730.162	-2.92
730.187	-18.92
730.212	6.08
730.237	-2.92
730.262	7.08
730.287	-11.92
730.312	6.08
730.337	-5.92
730.362	19.08
730.387	1.08
730.413	-0.92
730.438	-6.92
730.463	-6.92
730.488	-1.92
730.513	-5.92
730.538	-9.92
730.563	10.08
730.588	-1.92
730.613	4.08
730.638	-8.92
730.663	-8.92
730.688	26.08
730.713	-12.92
730.738	-4.92
730.763	-1.92
730.788	-7.92
730.813	7.08
730.838	-16.92
730.863	-7.92
730.888	-3.92
730.913	-18.92
730.938	-5.92
730.963	-6.92
730.988	-3.92
731.013	9.08
731.038	-11.92
731.063	-5.92
731.088	7.08
731.113	-11.92
731.138	-1.92
731.163	-4.92
731.188	-3.92
731.213	6.08
731.238	-1.92
731.263	-1.92
731.288	-0.92
731.313	9.08
731.338	-1.92
731.363	1.08
731.388	-4.92
731.413	-3.92
731.438	12.08
731.463	0.08
731.487	7.08
731.512	1.08
731.537	-3.92
731.562	2.08
731.587	3.08
731.612	-3.92
731.637	-4.92
731.662	7.08
731.687	-5.92
731.712	-16.92
731.737	-5.92
731.762	5.08
731.786	-0.92
731.811	10.08
731.836	2.08
731.861	-14.92
731.886	-18.92
731.911	2.08
731.936	12.08
731.961	12.08
731.986	14.08
732.01	4.08
732.035	6.08
732.06	22.08
732.085	-2.92
732.11	-9.92
732.135	-8.92
732.16	-8.92
732.184	-10.92
732.209	-6.92
732.234	-2.92
732.259	1.08
732.284	10.08
732.309	10.08
732.334	-6.92
732.358	-2.92
732.383	-9.92
732.408	-17.92
732.433	-20.92
732.458	-7.92
732.482	2.08
732.507	2.08
732.532	7.08
732.557	5.08
732.582	-9.92
732.607	-2.92
732.631	-11.92
732.656	-1.92
732.681	-14.92
732.706	10.08
732.73	7.08
732.755	-12.92
732.78	8.08
732.805	-2.92
732.83	2.08
732.854	1.08
732.879	3.08
732.904	-2.92
732.929	3.08
732.953	-0.92
732.978	-2.92
733.003	-11.92
733.028	2.08
733.052	8.08
733.077	10.08
733.102	6.08
733.127	-7.92
733.151	3.08
733.176	12.08
733.201	0.08
733.226	-0.92
733.25	5.08
733.275	-7.92
733.3	2.08
733.324	1.08
733.349	-2.92
733.374	21.08
733.399	12.08
733.423	-3.92
733.448	-4.92
733.473	-9.92
733.497	-7.92
733.522	-20.92
733.547	4.08
733.571	22.08
733.596	12.08
733.621	14.08
733.646	2.08
733.67	5.08
733.695	-13.92
733.72	-2.92
733.744	9.08
733.769	15.08
733.794	4.08
733.818	-0.92
733.843	-9.92
733.867	-5.92
733.892	-12.92
733.917	0.08
733.941	1.08
733.966	-4.92
733.991	3.08
734.015	16.08
734.04	-1.92
734.065	-0.92
734.089	13.08
734.114	3.08
734.138	-5.92
734.163	-5.92
734.188	3.08
734.212	2.08
734.237	20.08
734.261	-1.92
734.286	6.08
734.311	3.08
734.335	13.08
734.36	-7.92
734.384	4.08
734.409	13.08
734.434	-7.92
734.458	13.08
734.483	8.08
734.507	-5.92
734.532	-16.92
734.556	5.08
734.581	-12.92
734.606	7.08
734.63	-11.92
734.655	-14.92
734.679	4.08
734.704	3.08
734.728	5.08
734.753	-7.92
734.777	7.08
734.802	-1.92
734.826	-5.92
734.851	5.08
734.876	3.08
734.9	4.08
734.925	14.08
734.949	-2.92
734.974	-7.92
734.998	-4.92
735.023	-5.92
735.047	-2.92
735.072	18.08
735.096	-3.92
735.121	1.08
735.145	-8.92
735.17	-0.92
735.194	19.08
735.219	-4.92
735.243	7.08
735.268	-9.92
735.292	19.08
735.317	11.08
735.341	-2.92
735.365	-16.92
735.39	2.08
735.414	10.08
735.439	7.08
735.463	6.08
735.488	2.08
735.512	-4.92
735.537	-18.92
735.561	-12.92
735.586	-4.92
735.61	2.08
735.634	-11.92
735.659	19.08
735.683	16.08
735.708	-10.92
735.732	-17.92
735.757	-7.92
735.781	4.08
735.805	5.08
735.83	-2.92
735.854	-7.92
735.879	-6.92
735.903	20.08
735.927	-14.92
735.952	-1.92
735.976	-5.92
736.001	-1.92
736.025	-9.92
736.049	-3.92
736.074	-5.92
736.098	2.08
736.123	14.08
736.147	10.08
736.171	2.08
736.196	5.08
736.22	-5.92
736.244	-4.92
736.269	9.08
736.293	4.08
736.317	-5.92
736.342	5.08
736.366	17.08
736.39	9.08
736.415	3.08
736.439	0.08
736.463	6.08
736.488	11.08
736.512	0.08
736.536	-4.92
736.561	17.08
736.585	1.08
736.609	10.08
736.634	-2.92
736.658	-1.92
736.682	-10.92
736.707	-14.92
736.731	-13.92
736.755	7.08
736.78	3.08
736.804	8.08
736.828	12.08
736.852	2.08
736.877	11.08
736.901	-2.92
736.925	-1.92
736.949	2.08
736.974	-6.92
736.998	-2.92
737.022	-4.92
737.047	-14.92
737.071	7.08
737.095	19.08
737.119	11.08
737.144	13.08
737.168	-14.92
737.192	-20.92
737.216	4.08
737.241	1.08
737.265	9.08
737.289	5.08
737.313	-4.92
737.337	-1.92
737.362	3.08
737.386	7.08
737.41	-10.92
737.434	5.08
737.459	6.08
737.483	7.08
737.507	18.08
737.531	16.08
737.555	0.08
737.58	2.08
737.604	18.08
737.628	-5.92
737.652	2.08
737.676	2.08
737.701	-8.92
737.725	16.08
737.749	11.08
737.773	-10.92
737.797	-13.92
737.821	3.08
737.846	7.08
737.87	10.08
737.894	3.08
737.918	-2.92
737.942	-16.92
737.966	25.08
737.99	9.08
738.015	11.08
738.039	-1.92
738.063	-12.92
738.087	6.08
738.111	0.08
738.135	11.08
738.159	0.08
738.184	9.08
738.208	7.08
738.232	9.08
738.256	5.08
738.28	0.08
738.304	3.08
738.328	-3.92
738.352	-9.92
738.376	-15.92
738.4	-14.92
738.425	-1.92
738.449	-6.92
738.473	0.08
738.497	-2.92
738.521	9.08
738.545	15.08
738.569	14.08
738.593	-1.92
738.617	3.08
738.641	13.08
738.665	1.08
738.689	1.08
738.713	1.08
738.737	14.08
738.762	21.08
738.786	10.08
738.81	-11.92
738.834	12.08
738.858	-5.92
738.882	-1.92
738.906	0.08
738.93	5.08
738.954	-0.92
738.978	8.08
739.002	-10.92
739.026	6.08
739.05	13.08
739.074	0.08
739.098	31.08
739.122	7.08
739.146	-3.92
739.17	11.08
739.194	10.08
739.218	-2.92
739.242	-10.92
739.266	-12.92
739.29	6.08
739.314	11.08
739.338	1.08
739.362	6.08
739.386	7.08
739.41	-4.92
739.434	-12.92
739.458	17.08
739.482	5.08
739.506	14.08
739.53	-4.92
739.554	-4.92
739.577	-1.92
739.601	0.08
739.625	-7.92
739.649	13.08
739.673	-9.92
739.697	17.08
739.721	-0.92
739.745	-9.92
739.769	-2.92
739.793	3.08
739.817	-2.92
739.841	-10.92
739.865	28.08
739.889	-12.92
739.912	-7.92
739.936	-3.92
739.96	4.08
739.984	18.08
740.008	14.08
740.032	4.08
740.056	11.08
740.08	2.08
740.104	-4.92
740.127	-0.92
740.151	4.08
740.175	13.08
740.199	17.08
740.223	36.08
740.247	9.08
740.271	14.08
740.295	-4.92
740.318	-6.92
740.342	-13.92
740.366	-1.92
740.39	9.08
740.414	-8.92
740.438	-8.92
740.461	18.08
740.485	8.08
740.509	1.08
740.533	3.08
740.557	-14.92
740.581	-10.92
740.604	-11.92
740.628	-6.92
740.652	-4.92
740.676	-6.92
740.7	21.08
740.723	1.08
740.747	-6.92
740.771	-10.92
740.795	-8.92
740.819	2.08
740.842	-4.92
740.866	5.08
740.89	-2.92
740.914	-11.92
740.938	-3.92
740.961	1.08
740.985	2.08
741.009	-7.92
741.033	13.08
741.056	-2.92
741.08	-3.92
741.104	-15.92
741.128	-1.92
741.151	17.08
741.175	-2.92
741.199	-2.92
741.223	4.08
741.246	-2.92
741.27	12.08
741.294	10.08
741.318	-5.92
741.341	-6.92
741.365	2.08
741.389	0.08
741.413	1.08
741.436	9.08
741.46	14.08
741.484	14.08
741.507	19.08
741.531	25.08
741.555	10.08
741.579	11.08
741.602	3.08
741.626	-4.92
741.65	-0.92
741.673	2.08
741.697	-2.92
741.721	-1.92
741.744	0.08
741.768	-8.92
741.792	-8.92
741.815	-18.92
741.839	4.08
741.863	17.08
741.886	6.08
741.91	9.08
741.934	-0.92
741.957	-32.92
741.981	14.08
742.005	-9.92
742.028	-10.92
742.052	-8.92
742.075	5.08
742.099	24.08
742.123	-14.92
742.146	1.08
742.17	3.08
742.194	-5.92
742.217	-18.92
742.241	6.08
742.264	12.08
742.288	15.08
742.312	1.08
742.335	4.08
742.359	0.08
742.382	21.08
742.406	20.08
742.43	1.08
742.453	14.08
742.477	-17.92
742.5	10.08
742.524	-6.92
742.548	-24.92
742.571	7.08
742.595	-2.92
742.618	1.08
742.642	5.08
742.665	10.08
742.689	0.08
742.712	5.08
742.736	9.08
742.76	3.08
742.783	-5.92
742.807	-10.92
742.83	5.08
742.854	-10.92
742.877	3.08
742.901	5.08
742.924	-13.92
742.948	-8.92
742.971	-5.92
742.995	-11.92
743.018	-14.92
743.042	-18.92
743.065	-8.92
743.089	-1.92
743.112	2.08
743.136	1.08
743.159	-4.92
743.183	0.08
743.206	-1.92
743.23	-0.92
743.253	10.08
743.277	-2.92
743.3	12.08
743.324	-1.92
743.347	-8.92
743.371	13.08
743.394	7.08
743.418	17.08
743.441	9.08
743.465	10.08
743.488	-1.92
743.512	3.08
743.535	-5.92
743.558	-5.92
743.582	10.08
743.605	-4.92
743.629	-5.92
743.652	2.08
743.676	-0.92
743.699	5.08
743.723	13.08
743.746	4.08
743.769	-17.92
743.793	-13.92
743.816	8.08
743.84	11.08
743.863	-1.92
743.886	2.08
743.91	3.08
743.933	4.08
743.957	-1.92
743.98	5.08
744.003	-3.92
744.027	7.08
744.05	1.08
744.074	1.08
744.097	-31.92
744.12	5.08
744.144	-16.92
744.167	-5.92
744.19	2.08
744.214	6.08
744.237	-8.92
744.26	-1.92
744.284	-9.92
744.307	-10.92
744.331	0.08
744.354	7.08
744.377	1.08
744.401	-4.92
744.424	6.08
744.447	-11.92
744.471	-12.92
