Data from HighRes_H2_15_09_11_07_2024_HR4C61891__113__15-11-07-701.txt Node

Date: Thu Nov 07 15:11:07 EST 2024
User: crc00042
Spectrometer: HR4C6189
Trigger mode: 4
Integration Time (sec): 1.000000E-1
Scans to average: 1
Electric dark correction enabled: true
Nonlinearity correction enabled: false
Boxcar width: 0
XAxis mode: Wavelengths
Number of Pixels in Spectrum: 3648
>>>>>Begin Spectral Data<<<<<
639.567	-25.31
639.602	-25.31
639.636	-25.31
639.67	-44.31
639.704	-22.31
639.738	9.69
639.773	0.69
639.807	-25.31
639.841	3.69
639.875	11.69
639.909	-4.31
639.943	-2.31
639.978	3.69
640.012	-0.31
640.046	3.69
640.08	-2.31
640.114	9.69
640.148	-8.31
640.182	-7.31
640.217	0.69
640.251	17.69
640.285	-3.31
640.319	-10.31
640.353	4.69
640.387	-0.31
640.421	-3.31
640.455	-14.31
640.49	-12.31
640.524	-2.31
640.558	11.69
640.592	2.69
640.626	2.69
640.66	5.69
640.694	-2.31
640.728	4.69
640.762	9.69
640.796	5.69
640.83	9.69
640.865	14.69
640.899	14.69
640.933	-0.31
640.967	4.69
641.001	14.69
641.035	5.69
641.069	-5.31
641.103	-0.31
641.137	-4.31
641.171	-18.31
641.205	3.69
641.239	-12.31
641.273	-2.31
641.307	-1.31
641.341	0.69
641.375	-1.31
641.409	4.69
641.443	-12.31
641.477	10.69
641.511	6.69
641.545	11.69
641.579	-21.31
641.614	-2.31
641.648	9.69
641.682	-8.31
641.716	-2.31
641.75	3.69
641.784	-4.31
641.818	-3.31
641.852	-5.31
641.886	-12.31
641.919	6.69
641.953	2.69
641.987	-7.31
642.021	-1.31
642.055	2.69
642.089	-6.31
642.123	-4.31
642.157	-13.31
642.191	-3.31
642.225	15.69
642.259	-1.31
642.293	12.69
642.327	14.69
642.361	-6.31
642.395	13.69
642.429	14.69
642.463	5.69
642.497	6.69
642.531	1.69
642.565	-6.31
642.599	15.69
642.633	-8.31
642.666	-1.31
642.7	4.69
642.734	-1.31
642.768	-14.31
642.802	-5.31
642.836	-4.31
642.87	-9.31
642.904	8.69
642.938	19.69
642.972	-0.31
643.005	-18.31
643.039	13.69
643.073	2.69
643.107	6.69
643.141	-1.31
643.175	2.69
643.209	1.69
643.243	12.69
643.276	23.69
643.31	-4.31
643.344	-6.31
643.378	-7.31
643.412	-1.31
643.446	-4.31
643.48	-2.31
643.513	9.69
643.547	9.69
643.581	-12.31
643.615	4.69
643.649	13.69
643.683	-1.31
643.716	-1.31
643.75	-3.31
643.784	-17.31
643.818	-4.31
643.852	10.69
643.886	12.69
643.919	7.69
643.953	-1.31
643.987	5.69
644.021	25.69
644.055	12.69
644.088	-14.31
644.122	-7.31
644.156	-7.31
644.19	-5.31
644.224	0.69
644.257	0.69
644.291	16.69
644.325	7.69
644.359	-1.31
644.392	12.69
644.426	8.69
644.46	-3.31
644.494	-7.31
644.527	-7.31
644.561	14.69
644.595	-0.31
644.629	-24.31
644.662	-4.31
644.696	17.69
644.73	6.69
644.764	9.69
644.797	2.69
644.831	16.69
644.865	-9.31
644.899	-12.31
644.932	9.69
644.966	5.69
645	3.69
645.033	16.69
645.067	-6.31
645.101	10.69
645.135	-3.31
645.168	0.69
645.202	-6.31
645.236	1.69
645.269	17.69
645.303	6.69
645.337	-19.31
645.37	-5.31
645.404	-0.31
645.438	6.69
645.471	5.69
645.505	7.69
645.539	-0.31
645.572	9.69
645.606	5.69
645.64	7.69
645.673	8.69
645.707	25.69
645.741	9.69
645.774	8.69
645.808	2.69
645.842	1.69
645.875	19.69
645.909	-8.31
645.943	-4.31
645.976	14.69
646.01	22.69
646.043	19.69
646.077	15.69
646.111	8.69
646.144	11.69
646.178	6.69
646.212	-1.31
646.245	-13.31
646.279	-14.31
646.312	1.69
646.346	-8.31
646.38	5.69
646.413	18.69
646.447	3.69
646.48	-3.31
646.514	12.69
646.547	4.69
646.581	-5.31
646.615	5.69
646.648	-9.31
646.682	-1.31
646.715	-3.31
646.749	8.69
646.782	5.69
646.816	-5.31
646.85	3.69
646.883	-14.31
646.917	4.69
646.95	-3.31
646.984	-7.31
647.017	-5.31
647.051	-2.31
647.084	-0.31
647.118	6.69
647.151	-7.31
647.185	16.69
647.218	4.69
647.252	3.69
647.285	-4.31
647.319	-9.31
647.353	-10.31
647.386	27.69
647.42	1.69
647.453	5.69
647.487	-2.31
647.52	4.69
647.553	10.69
647.587	-1.31
647.62	10.69
647.654	26.69
647.687	12.69
647.721	16.69
647.754	22.69
647.788	8.69
647.821	5.69
647.855	13.69
647.888	31.69
647.922	9.69
647.955	1.69
647.989	-1.31
648.022	2.69
648.055	12.69
648.089	-4.31
648.122	24.69
648.156	-11.31
648.189	16.69
648.223	8.69
648.256	20.69
648.29	11.69
648.323	-3.31
648.356	10.69
648.39	7.69
648.423	3.69
648.457	0.69
648.49	-5.31
648.523	4.69
648.557	-3.31
648.59	-3.31
648.624	1.69
648.657	-0.31
648.69	15.69
648.724	21.69
648.757	22.69
648.791	27.69
648.824	1.69
648.857	25.69
648.891	1.69
648.924	-4.31
648.957	8.69
648.991	-7.31
649.024	10.69
649.057	5.69
649.091	7.69
649.124	17.69
649.158	12.69
649.191	32.69
649.224	7.69
649.258	26.69
649.291	6.69
649.324	5.69
649.358	14.69
649.391	1.69
649.424	4.69
649.458	-8.31
649.491	13.69
649.524	2.69
649.557	-14.31
649.591	-10.31
649.624	-1.31
649.657	-25.31
649.691	-0.31
649.724	4.69
649.757	-6.31
649.791	-6.31
649.824	16.69
649.857	6.69
649.89	-14.31
649.924	-23.31
649.957	-3.31
649.99	-5.31
650.023	-17.31
650.057	3.69
650.09	1.69
650.123	9.69
650.157	6.69
650.19	15.69
650.223	2.69
650.256	-2.31
650.29	-16.31
650.323	2.69
650.356	13.69
650.389	-4.31
650.423	-1.31
650.456	9.69
650.489	1.69
650.522	8.69
650.555	23.69
650.589	11.69
650.622	2.69
650.655	17.69
650.688	12.69
650.721	0.69
650.755	4.69
650.788	8.69
650.821	5.69
650.854	7.69
650.887	2.69
650.921	-3.31
650.954	-1.31
650.987	-2.31
651.02	8.69
651.053	1.69
651.087	-6.31
651.12	26.69
651.153	24.69
651.186	-13.31
651.219	-18.31
651.252	7.69
651.286	1.69
651.319	-18.31
651.352	-3.31
651.385	5.69
651.418	-8.31
651.451	5.69
651.484	7.69
651.518	3.69
651.551	24.69
651.584	9.69
651.617	21.69
651.65	1.69
651.683	16.69
651.716	10.69
651.749	-15.31
651.783	4.69
651.816	-0.31
651.849	11.69
651.882	-3.31
651.915	-7.31
651.948	7.69
651.981	3.69
652.014	1.69
652.047	5.69
652.08	10.69
652.114	2.69
652.147	-6.31
652.18	8.69
652.213	37.69
652.246	5.69
652.279	-7.31
652.312	22.69
652.345	4.69
652.378	2.69
652.411	9.69
652.444	-0.31
652.477	2.69
652.51	5.69
652.543	-2.31
652.576	13.69
652.609	9.69
652.642	1.69
652.675	17.69
652.709	21.69
652.742	10.69
652.775	10.69
652.808	8.69
652.841	18.69
652.874	10.69
652.907	-7.31
652.94	8.69
652.973	-8.31
653.006	-0.31
653.039	6.69
653.072	17.69
653.105	6.69
653.138	-7.31
653.171	-7.31
653.204	8.69
653.237	1.69
653.27	-18.31
653.303	30.69
653.336	11.69
653.368	5.69
653.401	-17.31
653.434	2.69
653.467	1.69
653.5	-12.31
653.533	-10.31
653.566	1.69
653.599	6.69
653.632	11.69
653.665	9.69
653.698	-7.31
653.731	11.69
653.764	12.69
653.797	-10.31
653.83	18.69
653.863	-8.31
653.896	-3.31
653.929	2.69
653.961	17.69
653.994	13.69
654.027	-6.31
654.06	1.69
654.093	0.69
654.126	24.69
654.159	0.69
654.192	8.69
654.225	13.69
654.258	-3.31
654.29	-1.31
654.323	1.69
654.356	-14.31
654.389	6.69
654.422	0.69
654.455	-0.31
654.488	1.69
654.521	-6.31
654.553	-9.31
654.586	1.69
654.619	6.69
654.652	-1.31
654.685	6.69
654.718	17.69
654.751	-3.31
654.783	-6.31
654.816	20.69
654.849	23.69
654.882	1.69
654.915	-5.31
654.948	5.69
654.98	17.69
655.013	2.69
655.046	-2.31
655.079	5.69
655.112	5.69
655.144	-9.31
655.177	13.69
655.21	13.69
655.243	14.69
655.276	8.69
655.308	19.69
655.341	13.69
655.374	21.69
655.407	6.69
655.44	-7.31
655.472	15.69
655.505	4.69
655.538	12.69
655.571	12.69
655.603	16.69
655.636	22.69
655.669	14.69
655.702	8.69
655.734	8.69
655.767	16.69
655.8	20.69
655.833	32.69
655.865	35.69
655.898	30.69
655.931	40.69
655.964	35.69
655.996	42.69
656.029	61.69
656.062	59.69
656.095	77.69
656.127	49.69
656.16	80.69
656.193	124.69
656.225	175.69
656.258	297.69
656.291	501.69
656.324	1139.69
656.356	3421.69
656.389	7531.69
656.422	6008.69
656.454	2048.69
656.487	705.69
656.52	256.69
656.552	121.69
656.585	89.69
656.618	56.69
656.65	57.69
656.683	23.69
656.716	35.69
656.748	8.69
656.781	6.69
656.814	12.69
656.846	23.69
656.879	5.69
656.912	-2.31
656.944	-20.31
656.977	2.69
657.01	3.69
657.042	8.69
657.075	26.69
657.108	6.69
657.14	15.69
657.173	16.69
657.205	28.69
657.238	15.69
657.271	-11.31
657.303	7.69
657.336	-2.31
657.369	10.69
657.401	1.69
657.434	12.69
657.466	18.69
657.499	6.69
657.532	-4.31
657.564	14.69
657.597	1.69
657.629	3.69
657.662	6.69
657.694	10.69
657.727	-2.31
657.76	23.69
657.792	-3.31
657.825	0.69
657.857	5.69
657.89	8.69
657.922	-3.31
657.955	-5.31
657.987	5.69
658.02	12.69
658.053	1.69
658.085	-1.31
658.118	2.69
658.15	-0.31
658.183	16.69
658.215	1.69
658.248	-10.31
658.28	-6.31
658.313	14.69
658.345	24.69
658.378	5.69
658.41	10.69
658.443	11.69
658.475	6.69
658.508	2.69
658.54	16.69
658.573	14.69
658.605	9.69
658.638	-13.31
658.67	1.69
658.703	-13.31
658.735	-10.31
658.768	-5.31
658.8	-9.31
658.833	13.69
658.865	26.69
658.898	15.69
658.93	1.69
658.963	3.69
658.995	-27.31
659.028	0.69
659.06	9.69
659.092	10.69
659.125	-18.31
659.157	7.69
659.19	-3.31
659.222	-18.31
659.255	0.69
659.287	8.69
659.32	-0.31
659.352	12.69
659.384	12.69
659.417	0.69
659.449	6.69
659.482	19.69
659.514	-10.31
659.546	-5.31
659.579	-7.31
659.611	10.69
659.644	-5.31
659.676	3.69
659.708	-1.31
659.741	12.69
659.773	7.69
659.806	5.69
659.838	6.69
659.87	3.69
659.903	-5.31
659.935	-2.31
659.967	-4.31
660	11.69
660.032	-4.31
660.065	12.69
660.097	12.69
660.129	3.69
660.162	-5.31
660.194	12.69
660.226	10.69
660.259	6.69
660.291	16.69
660.323	11.69
660.356	-5.31
660.388	-0.31
660.42	-6.31
660.453	4.69
660.485	11.69
660.517	17.69
660.55	16.69
660.582	0.69
660.614	0.69
660.647	-0.31
660.679	-9.31
660.711	0.69
660.743	-5.31
660.776	1.69
660.808	-0.31
660.84	1.69
660.873	9.69
660.905	-15.31
660.937	-8.31
660.969	-10.31
661.002	-6.31
661.034	5.69
661.066	5.69
661.099	17.69
661.131	24.69
661.163	8.69
661.195	-2.31
661.228	20.69
661.26	1.69
661.292	-11.31
661.324	-1.31
661.357	-1.31
661.389	5.69
661.421	5.69
661.453	3.69
661.485	6.69
661.518	6.69
661.55	-21.31
661.582	-12.31
661.614	0.69
661.647	-2.31
661.679	5.69
661.711	-5.31
661.743	2.69
661.775	8.69
661.808	25.69
661.84	-2.31
661.872	-9.31
661.904	3.69
661.936	-5.31
661.969	-4.31
662.001	-13.31
662.033	-5.31
662.065	-4.31
662.097	3.69
662.129	18.69
662.162	-6.31
662.194	18.69
662.226	0.69
662.258	-1.31
662.29	-12.31
662.322	-5.31
662.355	-19.31
662.387	15.69
662.419	14.69
662.451	20.69
662.483	7.69
662.515	8.69
662.547	0.69
662.58	7.69
662.612	3.69
662.644	-8.31
662.676	0.69
662.708	4.69
662.74	-9.31
662.772	-10.31
662.804	12.69
662.836	2.69
662.869	0.69
662.901	9.69
662.933	2.69
662.965	13.69
662.997	13.69
663.029	8.69
663.061	-7.31
663.093	3.69
663.125	16.69
663.157	5.69
663.189	-1.31
663.221	18.69
663.254	8.69
663.286	21.69
663.318	3.69
663.35	-3.31
663.382	-7.31
663.414	6.69
663.446	-2.31
663.478	3.69
663.51	39.69
663.542	-14.31
663.574	9.69
663.606	-3.31
663.638	-5.31
663.67	5.69
663.702	0.69
663.734	-5.31
663.766	15.69
663.798	-12.31
663.83	5.69
663.862	24.69
663.894	4.69
663.926	3.69
663.958	14.69
663.99	-5.31
664.022	-19.31
664.054	8.69
664.086	-10.31
664.118	-14.31
664.15	-9.31
664.182	8.69
664.214	2.69
664.246	10.69
664.278	-7.31
664.31	13.69
664.342	1.69
664.374	-1.31
664.406	5.69
664.438	-4.31
664.47	14.69
664.502	-3.31
664.534	-10.31
664.566	-13.31
664.598	23.69
664.63	-10.31
664.662	6.69
664.693	-6.31
664.725	-22.31
664.757	-15.31
664.789	-11.31
664.821	8.69
664.853	10.69
664.885	4.69
664.917	-11.31
664.949	9.69
664.981	30.69
665.013	-3.31
665.045	-3.31
665.076	24.69
665.108	20.69
665.14	1.69
665.172	-3.31
665.204	0.69
665.236	4.69
665.268	11.69
665.3	5.69
665.331	4.69
665.363	8.69
665.395	-14.31
665.427	4.69
665.459	21.69
665.491	15.69
665.523	5.69
665.555	-12.31
665.586	-6.31
665.618	-7.31
665.65	-10.31
665.682	5.69
665.714	5.69
665.746	-4.31
665.777	3.69
665.809	-5.31
665.841	5.69
665.873	2.69
665.905	6.69
665.937	9.69
665.968	-0.31
666	-7.31
666.032	15.69
666.064	9.69
666.096	14.69
666.127	19.69
666.159	13.69
666.191	18.69
666.223	8.69
666.255	5.69
666.286	4.69
666.318	1.69
666.35	24.69
666.382	12.69
666.413	-8.31
666.445	-4.31
666.477	-9.31
666.509	-4.31
666.54	7.69
666.572	-1.31
666.604	-4.31
666.636	9.69
666.667	12.69
666.699	5.69
666.731	1.69
666.763	-1.31
666.794	-5.31
666.826	-2.31
666.858	-17.31
666.89	8.69
666.921	1.69
666.953	-5.31
666.985	5.69
667.017	25.69
667.048	9.69
667.08	-11.31
667.112	4.69
667.143	-2.31
667.175	15.69
667.207	6.69
667.238	2.69
667.27	-0.31
667.302	-3.31
667.334	-10.31
667.365	22.69
667.397	3.69
667.429	0.69
667.46	10.69
667.492	5.69
667.524	2.69
667.555	-12.31
667.587	6.69
667.619	-11.31
667.65	-4.31
667.682	14.69
667.714	3.69
667.745	-8.31
667.777	9.69
667.808	12.69
667.84	4.69
667.872	2.69
667.903	17.69
667.935	9.69
667.967	12.69
667.998	-1.31
668.03	-9.31
668.061	4.69
668.093	1.69
668.125	-4.31
668.156	7.69
668.188	-15.31
668.22	-10.31
668.251	8.69
668.283	10.69
668.314	-13.31
668.346	-5.31
668.377	-2.31
668.409	-8.31
668.441	6.69
668.472	-0.31
668.504	12.69
668.535	1.69
668.567	1.69
668.599	13.69
668.63	14.69
668.662	-5.31
668.693	23.69
668.725	4.69
668.756	13.69
668.788	6.69
668.819	1.69
668.851	5.69
668.882	1.69
668.914	-6.31
668.946	2.69
668.977	-4.31
669.009	-5.31
669.04	8.69
669.072	16.69
669.103	3.69
669.135	-3.31
669.166	-6.31
669.198	-4.31
669.229	0.69
669.261	-3.31
669.292	19.69
669.324	12.69
669.355	20.69
669.387	-12.31
669.418	14.69
669.45	-4.31
669.481	-0.31
669.513	6.69
669.544	10.69
669.576	0.69
669.607	15.69
669.639	5.69
669.67	-16.31
669.701	10.69
669.733	-5.31
669.764	-0.31
669.796	-11.31
669.827	-5.31
669.859	4.69
669.89	22.69
669.922	25.69
669.953	11.69
669.985	15.69
670.016	18.69
670.047	0.69
670.079	4.69
670.11	14.69
670.142	8.69
670.173	2.69
670.204	-1.31
670.236	-6.31
670.267	-3.31
670.299	-8.31
670.33	-2.31
670.362	21.69
670.393	-3.31
670.424	8.69
670.456	-5.31
670.487	-3.31
670.518	-2.31
670.55	5.69
670.581	7.69
670.613	8.69
670.644	20.69
670.675	-14.31
670.707	-0.31
670.738	-6.31
670.769	3.69
670.801	2.69
670.832	9.69
670.864	-15.31
670.895	-0.31
670.926	0.69
670.958	0.69
670.989	7.69
671.02	-17.31
671.052	7.69
671.083	10.69
671.114	-7.31
671.146	16.69
671.177	10.69
671.208	-6.31
671.24	-12.31
671.271	-2.31
671.302	6.69
671.333	15.69
671.365	5.69
671.396	-3.31
671.427	13.69
671.459	28.69
671.49	12.69
671.521	-7.31
671.553	4.69
671.584	4.69
671.615	-10.31
671.646	13.69
671.678	8.69
671.709	3.69
671.74	-10.31
671.771	-6.31
671.803	-8.31
671.834	5.69
671.865	1.69
671.896	4.69
671.928	-0.31
671.959	1.69
671.99	0.69
672.021	-6.31
672.053	3.69
672.084	13.69
672.115	-2.31
672.146	-13.31
672.178	0.69
672.209	-14.31
672.24	1.69
672.271	31.69
672.303	7.69
672.334	2.69
672.365	6.69
672.396	3.69
672.427	12.69
672.459	12.69
672.49	30.69
672.521	9.69
672.552	21.69
672.583	-2.31
672.615	10.69
672.646	24.69
672.677	5.69
672.708	-0.31
672.739	12.69
672.77	-3.31
672.802	3.69
672.833	5.69
672.864	4.69
672.895	1.69
672.926	3.69
672.957	-14.31
672.989	-12.31
673.02	2.69
673.051	-4.31
673.082	12.69
673.113	1.69
673.144	16.69
673.175	7.69
673.206	-3.31
673.238	0.69
673.269	-4.31
673.3	-9.31
673.331	5.69
673.362	0.69
673.393	5.69
673.424	4.69
673.455	21.69
673.487	19.69
673.518	10.69
673.549	-3.31
673.58	-4.31
673.611	3.69
673.642	-4.31
673.673	-22.31
673.704	-5.31
673.735	6.69
673.766	-9.31
673.797	-9.31
673.828	8.69
673.86	-9.31
673.891	-4.31
673.922	-19.31
673.953	-11.31
673.984	9.69
674.015	11.69
674.046	-6.31
674.077	1.69
674.108	-18.31
674.139	-10.31
674.17	-12.31
674.201	-3.31
674.232	6.69
674.263	-11.31
674.294	-1.31
674.325	8.69
674.356	14.69
674.387	-1.31
674.418	-13.31
674.449	-12.31
674.48	-4.31
674.511	-8.31
674.542	-9.31
674.573	-4.31
674.604	23.69
674.635	0.69
674.666	13.69
674.697	6.69
674.728	3.69
674.759	-0.31
674.79	-0.31
674.821	-7.31
674.852	-12.31
674.883	-25.31
674.914	0.69
674.945	6.69
674.976	-2.31
675.007	-9.31
675.038	-8.31
675.069	-16.31
675.1	5.69
675.131	5.69
675.162	3.69
675.193	2.69
675.224	4.69
675.254	19.69
675.285	4.69
675.316	8.69
675.347	12.69
675.378	-5.31
675.409	-24.31
675.44	-4.31
675.471	-5.31
675.502	-6.31
675.533	-4.31
675.564	3.69
675.595	12.69
675.625	9.69
675.656	1.69
675.687	12.69
675.718	-14.31
675.749	-3.31
675.78	4.69
675.811	-17.31
675.842	17.69
675.873	0.69
675.903	3.69
675.934	7.69
675.965	1.69
675.996	-7.31
676.027	8.69
676.058	-6.31
676.089	-14.31
676.119	-11.31
676.15	-6.31
676.181	10.69
676.212	-2.31
676.243	8.69
676.274	13.69
676.304	1.69
676.335	-21.31
676.366	-2.31
676.397	-4.31
676.428	8.69
676.459	9.69
676.489	12.69
676.52	-5.31
676.551	-7.31
676.582	-20.31
676.613	21.69
676.643	-7.31
676.674	5.69
676.705	-2.31
676.736	8.69
676.767	14.69
676.797	8.69
676.828	19.69
676.859	7.69
676.89	-13.31
676.92	-4.31
676.951	-4.31
676.982	-9.31
677.013	5.69
677.044	20.69
677.074	-2.31
677.105	-17.31
677.136	3.69
677.167	3.69
677.197	2.69
677.228	2.69
677.259	-16.31
677.289	4.69
677.32	-20.31
677.351	-30.31
677.382	5.69
677.412	8.69
677.443	4.69
677.474	13.69
677.505	-11.31
677.535	-0.31
677.566	0.69
677.597	-5.31
677.627	-7.31
677.658	0.69
677.689	3.69
677.72	13.69
677.75	-3.31
677.781	-8.31
677.812	10.69
677.842	11.69
677.873	4.69
677.904	-5.31
677.934	-8.31
677.965	-11.31
677.996	-8.31
678.026	6.69
678.057	-8.31
678.088	-8.31
678.118	-3.31
678.149	-11.31
678.18	3.69
678.21	5.69
678.241	6.69
678.272	4.69
678.302	0.69
678.333	9.69
678.363	17.69
678.394	-1.31
678.425	-2.31
678.455	5.69
678.486	6.69
678.517	4.69
678.547	-1.31
678.578	-15.31
678.608	-8.31
678.639	3.69
678.67	12.69
678.7	-7.31
678.731	-7.31
678.761	-6.31
678.792	-6.31
678.823	11.69
678.853	-1.31
678.884	-0.31
678.914	10.69
678.945	16.69
678.975	-6.31
679.006	9.69
679.037	4.69
679.067	8.69
679.098	8.69
679.128	4.69
679.159	10.69
679.189	-5.31
679.22	-5.31
679.25	10.69
679.281	5.69
679.312	6.69
679.342	9.69
679.373	9.69
679.403	3.69
679.434	13.69
679.464	-3.31
679.495	19.69
679.525	3.69
679.556	-5.31
679.586	0.69
679.617	-10.31
679.647	3.69
679.678	-9.31
679.708	-0.31
679.739	5.69
679.769	-0.31
679.8	3.69
679.83	-6.31
679.861	-2.31
679.891	-4.31
679.922	-5.31
679.952	3.69
679.983	3.69
680.013	8.69
680.044	-4.31
680.074	7.69
680.105	3.69
680.135	0.69
680.165	8.69
680.196	4.69
680.226	-10.31
680.257	12.69
680.287	4.69
680.318	-4.31
680.348	-24.31
680.379	1.69
680.409	6.69
680.439	7.69
680.47	7.69
680.5	5.69
680.531	-5.31
680.561	12.69
680.592	0.69
680.622	11.69
680.652	-12.31
680.683	7.69
680.713	-0.31
680.744	-8.31
680.774	0.69
680.804	18.69
680.835	-3.31
680.865	-1.31
680.896	6.69
680.926	12.69
680.956	1.69
680.987	2.69
681.017	2.69
681.047	6.69
681.078	-8.31
681.108	-10.31
681.139	-2.31
681.169	10.69
681.199	7.69
681.23	20.69
681.26	0.69
681.29	3.69
681.321	-5.31
681.351	-0.31
681.381	-13.31
681.412	5.69
681.442	17.69
681.472	12.69
681.503	1.69
681.533	20.69
681.563	-2.31
681.594	4.69
681.624	19.69
681.654	-1.31
681.685	-4.31
681.715	11.69
681.745	-3.31
681.775	0.69
681.806	-2.31
681.836	-1.31
681.866	-8.31
681.897	9.69
681.927	-7.31
681.957	-17.31
681.987	-2.31
682.018	9.69
682.048	5.69
682.078	-4.31
682.109	20.69
682.139	9.69
682.169	-4.31
682.199	-8.31
682.23	-2.31
682.26	12.69
682.29	-8.31
682.32	-14.31
682.351	3.69
682.381	10.69
682.411	-0.31
682.441	-6.31
682.472	-13.31
682.502	1.69
682.532	-0.31
682.562	1.69
682.592	-1.31
682.623	18.69
682.653	4.69
682.683	-13.31
682.713	7.69
682.743	8.69
682.774	-0.31
682.804	-6.31
682.834	18.69
682.864	3.69
682.894	7.69
682.925	-6.31
682.955	9.69
682.985	-7.31
683.015	2.69
683.045	21.69
683.076	-6.31
683.106	5.69
683.136	1.69
683.166	-2.31
683.196	-6.31
683.226	-1.31
683.257	-2.31
683.287	-11.31
683.317	-3.31
683.347	1.69
683.377	0.69
683.407	-6.31
683.437	12.69
683.468	3.69
683.498	-3.31
683.528	14.69
683.558	-1.31
683.588	-7.31
683.618	-8.31
683.648	-8.31
683.678	2.69
683.708	2.69
683.739	-5.31
683.769	5.69
683.799	6.69
683.829	-13.31
683.859	-0.31
683.889	14.69
683.919	-5.31
683.949	-1.31
683.979	-3.31
684.009	0.69
684.039	3.69
684.07	-2.31
684.1	9.69
684.13	14.69
684.16	2.69
684.19	-6.31
684.22	-4.31
684.25	9.69
684.28	-7.31
684.31	4.69
684.34	-9.31
684.37	-4.31
684.4	-5.31
684.43	-7.31
684.46	2.69
684.49	-0.31
684.52	2.69
684.55	-11.31
684.58	7.69
684.61	0.69
684.64	7.69
684.67	18.69
684.7	-0.31
684.73	9.69
684.76	1.69
684.79	23.69
684.82	8.69
684.85	-5.31
684.88	3.69
684.91	-5.31
684.94	7.69
684.97	-9.31
685	-13.31
685.03	-4.31
685.06	-8.31
685.09	-4.31
685.12	6.69
685.15	-3.31
685.18	-6.31
685.21	8.69
685.24	9.69
685.27	12.69
685.3	-0.31
685.33	6.69
685.36	1.69
685.39	0.69
685.42	10.69
685.45	4.69
685.48	-4.31
685.51	2.69
685.54	18.69
685.569	7.69
685.599	14.69
685.629	2.69
685.659	8.69
685.689	-1.31
685.719	9.69
685.749	-6.31
685.779	6.69
685.809	2.69
685.839	11.69
685.869	-0.31
685.898	-3.31
685.928	-0.31
685.958	-3.31
685.988	13.69
686.018	-8.31
686.048	3.69
686.078	13.69
686.108	20.69
686.137	0.69
686.167	12.69
686.197	-8.31
686.227	10.69
686.257	14.69
686.287	7.69
686.317	-3.31
686.346	-4.31
686.376	1.69
686.406	3.69
686.436	13.69
686.466	4.69
686.496	-1.31
686.525	-10.31
686.555	-10.31
686.585	28.69
686.615	33.69
686.645	12.69
686.675	-1.31
686.704	1.69
686.734	-0.31
686.764	4.69
686.794	-7.31
686.824	-10.31
686.853	0.69
686.883	15.69
686.913	21.69
686.943	12.69
686.973	-10.31
687.002	2.69
687.032	8.69
687.062	13.69
687.092	27.69
687.121	0.69
687.151	-3.31
687.181	13.69
687.211	13.69
687.24	-5.31
687.27	8.69
687.3	2.69
687.33	4.69
687.359	-21.31
687.389	-8.31
687.419	9.69
687.449	7.69
687.478	3.69
687.508	-5.31
687.538	7.69
687.568	7.69
687.597	4.69
687.627	8.69
687.657	-13.31
687.686	0.69
687.716	11.69
687.746	-0.31
687.776	1.69
687.805	-4.31
687.835	-1.31
687.865	22.69
687.894	10.69
687.924	3.69
687.954	1.69
687.983	-1.31
688.013	7.69
688.043	11.69
688.072	6.69
688.102	3.69
688.132	1.69
688.161	-7.31
688.191	-0.31
688.221	6.69
688.25	0.69
688.28	11.69
688.31	-8.31
688.339	-14.31
688.369	-6.31
688.399	-2.31
688.428	4.69
688.458	3.69
688.488	-8.31
688.517	5.69
688.547	-3.31
688.576	18.69
688.606	0.69
688.636	-1.31
688.665	-1.31
688.695	9.69
688.725	7.69
688.754	-3.31
688.784	-12.31
688.813	8.69
688.843	3.69
688.873	-3.31
688.902	-13.31
688.932	0.69
688.961	0.69
688.991	13.69
689.02	6.69
689.05	-0.31
689.08	13.69
689.109	14.69
689.139	1.69
689.168	19.69
689.198	2.69
689.227	-7.31
689.257	-8.31
689.287	-2.31
689.316	-2.31
689.346	-8.31
689.375	1.69
689.405	7.69
689.434	-2.31
689.464	11.69
689.493	-1.31
689.523	2.69
689.552	-11.31
689.582	5.69
689.611	-1.31
689.641	13.69
689.67	9.69
689.7	19.69
689.73	32.69
689.759	5.69
689.789	8.69
689.818	5.69
689.848	1.69
689.877	10.69
689.906	0.69
689.936	-12.31
689.965	13.69
689.995	13.69
690.024	4.69
690.054	-6.31
690.083	4.69
690.113	0.69
690.142	6.69
690.172	13.69
690.201	8.69
690.231	7.69
690.26	13.69
690.29	16.69
690.319	14.69
690.348	-4.31
690.378	10.69
690.407	12.69
690.437	-4.31
690.466	-9.31
690.496	-4.31
690.525	9.69
690.555	-1.31
690.584	5.69
690.613	12.69
690.643	14.69
690.672	10.69
690.702	3.69
690.731	20.69
690.76	4.69
690.79	-0.31
690.819	10.69
690.849	16.69
690.878	-19.31
690.907	4.69
690.937	5.69
690.966	11.69
690.996	-9.31
691.025	-11.31
691.054	1.69
691.084	-3.31
691.113	-6.31
691.142	11.69
691.172	12.69
691.201	16.69
691.23	11.69
691.26	-0.31
691.289	17.69
691.319	-0.31
691.348	10.69
691.377	25.69
691.407	6.69
691.436	0.69
691.465	11.69
691.495	4.69
691.524	-4.31
691.553	-4.31
691.583	2.69
691.612	9.69
691.641	5.69
691.67	0.69
691.7	-6.31
691.729	-11.31
691.758	11.69
691.788	6.69
691.817	4.69
691.846	4.69
691.876	-10.31
691.905	4.69
691.934	-17.31
691.963	13.69
691.993	12.69
692.022	-4.31
692.051	-7.31
692.081	6.69
692.11	26.69
692.139	-1.31
692.168	13.69
692.198	22.69
692.227	3.69
692.256	-4.31
692.285	-4.31
692.315	6.69
692.344	25.69
692.373	2.69
692.402	-25.31
692.432	-6.31
692.461	-3.31
692.49	6.69
692.519	1.69
692.548	13.69
692.578	12.69
692.607	9.69
692.636	-9.31
692.665	7.69
692.694	4.69
692.724	-6.31
692.753	12.69
692.782	12.69
692.811	-5.31
692.84	3.69
692.87	6.69
692.899	9.69
692.928	22.69
692.957	1.69
692.986	-0.31
693.016	12.69
693.045	20.69
693.074	9.69
693.103	8.69
693.132	8.69
693.161	25.69
693.191	-7.31
693.22	3.69
693.249	-10.31
693.278	15.69
693.307	20.69
693.336	4.69
693.365	-18.31
693.395	-4.31
693.424	5.69
693.453	13.69
693.482	5.69
693.511	12.69
693.54	-2.31
693.569	3.69
693.598	-8.31
693.628	22.69
693.657	19.69
693.686	16.69
693.715	20.69
693.744	2.69
693.773	9.69
693.802	15.69
693.831	12.69
693.86	20.69
693.889	-6.31
693.919	5.69
693.948	3.69
693.977	-2.31
694.006	3.69
694.035	0.69
694.064	-3.31
694.093	-1.31
694.122	3.69
694.151	-12.31
694.18	5.69
694.209	30.69
694.238	1.69
694.267	8.69
694.296	-4.31
694.325	20.69
694.354	7.69
694.383	0.69
694.412	-2.31
694.441	-0.31
694.471	-3.31
694.5	-4.31
694.529	13.69
694.558	6.69
694.587	20.69
694.616	9.69
694.645	9.69
694.674	-1.31
694.703	5.69
694.732	1.69
694.761	17.69
694.79	5.69
694.819	-20.31
694.848	-3.31
694.877	9.69
694.906	23.69
694.935	20.69
694.963	16.69
694.992	2.69
695.021	9.69
695.05	22.69
695.079	5.69
695.108	-3.31
695.137	19.69
695.166	6.69
695.195	-9.31
695.224	4.69
695.253	6.69
695.282	33.69
695.311	1.69
695.34	2.69
695.369	4.69
695.398	4.69
695.427	7.69
695.456	10.69
695.485	4.69
695.513	11.69
695.542	6.69
695.571	2.69
695.6	25.69
695.629	1.69
695.658	23.69
695.687	21.69
695.716	5.69
695.745	19.69
695.774	-4.31
695.802	-15.31
695.831	15.69
695.86	16.69
695.889	22.69
695.918	12.69
695.947	4.69
695.976	-5.31
696.005	-6.31
696.033	2.69
696.062	18.69
696.091	0.69
696.12	12.69
696.149	3.69
696.178	2.69
696.207	2.69
696.235	-6.31
696.264	4.69
696.293	-4.31
696.322	20.69
696.351	11.69
696.38	1.69
696.408	10.69
696.437	4.69
696.466	18.69
696.495	5.69
696.524	26.69
696.553	20.69
696.581	16.69
696.61	1.69
696.639	9.69
696.668	15.69
696.697	-5.31
696.725	32.69
696.754	7.69
696.783	1.69
696.812	1.69
696.84	11.69
696.869	17.69
696.898	-0.31
696.927	12.69
696.956	22.69
696.984	-0.31
697.013	4.69
697.042	14.69
697.071	7.69
697.099	6.69
697.128	-2.31
697.157	3.69
697.186	10.69
697.214	10.69
697.243	2.69
697.272	1.69
697.301	3.69
697.329	8.69
697.358	12.69
697.387	17.69
697.415	0.69
697.444	3.69
697.473	25.69
697.502	6.69
697.53	11.69
697.559	18.69
697.588	13.69
697.616	3.69
697.645	4.69
697.674	8.69
697.703	5.69
697.731	25.69
697.76	3.69
697.789	9.69
697.817	10.69
697.846	18.69
697.875	1.69
697.903	20.69
697.932	14.69
697.961	4.69
697.989	4.69
698.018	9.69
698.047	-0.31
698.075	-0.31
698.104	-5.31
698.133	10.69
698.161	6.69
698.19	-5.31
698.218	-10.31
698.247	-2.31
698.276	-1.31
698.304	9.69
698.333	5.69
698.362	-14.31
698.39	12.69
698.419	11.69
698.447	12.69
698.476	18.69
698.505	9.69
698.533	12.69
698.562	1.69
698.591	-6.31
698.619	-7.31
698.648	-4.31
698.676	6.69
698.705	6.69
698.733	1.69
698.762	19.69
698.791	16.69
698.819	13.69
698.848	1.69
698.876	12.69
698.905	4.69
698.933	3.69
698.962	9.69
698.991	16.69
699.019	11.69
699.048	6.69
699.076	9.69
699.105	-11.31
699.133	-1.31
699.162	22.69
699.19	37.69
699.219	20.69
699.248	-4.31
699.276	2.69
699.305	-5.31
699.333	6.69
699.362	-1.31
699.39	16.69
699.419	-2.31
699.447	2.69
699.476	19.69
699.504	-0.31
699.533	15.69
699.561	-5.31
699.59	21.69
699.618	1.69
699.647	2.69
699.675	9.69
699.704	10.69
699.732	20.69
699.761	10.69
699.789	7.69
699.818	2.69
699.846	0.69
699.874	2.69
699.903	-3.31
699.931	4.69
699.96	1.69
699.988	5.69
700.017	0.69
700.045	17.69
700.074	6.69
700.102	1.69
700.13	-7.31
700.159	11.69
700.187	13.69
700.216	-3.31
700.244	-10.31
700.273	13.69
700.301	15.69
700.329	12.69
700.358	24.69
700.386	-6.31
700.415	4.69
700.443	17.69
700.472	13.69
700.5	12.69
700.528	9.69
700.557	14.69
700.585	1.69
700.614	-5.31
700.642	21.69
700.67	22.69
700.699	10.69
700.727	-3.31
700.755	3.69
700.784	-2.31
700.812	6.69
700.841	13.69
700.869	0.69
700.897	-8.31
700.926	6.69
700.954	16.69
700.982	6.69
701.011	12.69
701.039	15.69
701.067	14.69
701.096	2.69
701.124	-10.31
701.152	-3.31
701.181	14.69
701.209	-2.31
701.237	5.69
701.266	-8.31
701.294	-17.31
701.322	4.69
701.351	9.69
701.379	-0.31
701.407	8.69
701.435	24.69
701.464	25.69
701.492	38.69
701.52	-0.31
701.549	22.69
701.577	9.69
701.605	3.69
701.634	15.69
701.662	17.69
701.69	-17.31
701.718	-3.31
701.747	21.69
701.775	-2.31
701.803	-19.31
701.831	8.69
701.86	7.69
701.888	12.69
701.916	2.69
701.944	24.69
701.973	0.69
702.001	-1.31
702.029	-14.31
702.057	-9.31
702.086	0.69
702.114	-9.31
702.142	-1.31
702.17	-8.31
702.199	-7.31
702.227	-4.31
702.255	8.69
702.283	0.69
702.311	26.69
702.34	9.69
702.368	7.69
702.396	6.69
702.424	0.69
702.452	12.69
702.481	5.69
702.509	0.69
702.537	5.69
702.565	-0.31
702.593	-8.31
702.621	-3.31
702.65	22.69
702.678	21.69
702.706	16.69
702.734	-5.31
702.762	13.69
702.79	-0.31
702.819	-4.31
702.847	11.69
702.875	-2.31
702.903	8.69
702.931	-13.31
702.959	0.69
702.988	12.69
703.016	-3.31
703.044	-4.31
703.072	-2.31
703.1	-3.31
703.128	13.69
703.156	2.69
703.184	10.69
703.212	16.69
703.241	4.69
703.269	21.69
703.297	3.69
703.325	4.69
703.353	6.69
703.381	-18.31
703.409	1.69
703.437	-8.31
703.465	-7.31
703.493	3.69
703.522	10.69
703.55	-1.31
703.578	4.69
703.606	1.69
703.634	1.69
703.662	-1.31
703.69	-1.31
703.718	1.69
703.746	17.69
703.774	-22.31
703.802	20.69
703.83	-10.31
703.858	-8.31
703.886	-10.31
703.914	9.69
703.942	10.69
703.97	10.69
703.998	1.69
704.027	27.69
704.055	16.69
704.083	13.69
704.111	6.69
704.139	1.69
704.167	-5.31
704.195	9.69
704.223	1.69
704.251	5.69
704.279	22.69
704.307	3.69
704.335	-5.31
704.363	-0.31
704.391	-12.31
704.419	-1.31
704.447	-13.31
704.475	1.69
704.503	-0.31
704.531	8.69
704.558	0.69
704.586	1.69
704.614	6.69
704.642	3.69
704.67	-21.31
704.698	-6.31
704.726	-2.31
704.754	-10.31
704.782	-1.31
704.81	1.69
704.838	16.69
704.866	10.69
704.894	-7.31
704.922	-10.31
704.95	0.69
704.978	1.69
705.006	7.69
705.034	3.69
705.061	-26.31
705.089	5.69
705.117	-4.31
705.145	0.69
705.173	13.69
705.201	6.69
705.229	4.69
705.257	-2.31
705.285	-6.31
705.313	-11.31
705.34	4.69
705.368	-3.31
705.396	13.69
705.424	-1.31
705.452	-8.31
705.48	-4.31
705.508	-11.31
705.536	4.69
705.563	6.69
705.591	12.69
705.619	24.69
705.647	-2.31
705.675	11.69
705.703	11.69
705.731	-10.31
705.758	11.69
705.786	11.69
705.814	33.69
705.842	20.69
705.87	7.69
705.898	9.69
705.925	4.69
705.953	3.69
705.981	-16.31
706.009	5.69
706.037	1.69
706.065	0.69
706.092	-9.31
706.12	9.69
706.148	-5.31
706.176	2.69
706.204	4.69
706.231	-11.31
706.259	-16.31
706.287	-13.31
706.315	-1.31
706.342	-8.31
706.37	11.69
706.398	-4.31
706.426	-6.31
706.454	-2.31
706.481	8.69
706.509	-0.31
706.537	-5.31
706.565	-4.31
706.592	2.69
706.62	2.69
706.648	6.69
706.676	-9.31
706.703	4.69
706.731	-5.31
706.759	-5.31
706.787	2.69
706.814	0.69
706.842	-8.31
706.87	9.69
706.897	2.69
706.925	-1.31
706.953	14.69
706.981	9.69
707.008	5.69
707.036	18.69
707.064	-0.31
707.091	-20.31
707.119	25.69
707.147	1.69
707.174	1.69
707.202	24.69
707.23	-3.31
707.258	11.69
707.285	-12.31
707.313	-6.31
707.341	-2.31
707.368	-1.31
707.396	-3.31
707.424	3.69
707.451	9.69
707.479	-3.31
707.507	-4.31
707.534	-1.31
707.562	4.69
707.59	-10.31
707.617	-12.31
707.645	4.69
707.672	3.69
707.7	-3.31
707.728	15.69
707.755	5.69
707.783	-2.31
707.811	2.69
707.838	-10.31
707.866	7.69
707.893	-10.31
707.921	-13.31
707.949	6.69
707.976	2.69
708.004	6.69
708.031	-12.31
708.059	-3.31
708.087	12.69
708.114	6.69
708.142	-3.31
708.169	-0.31
708.197	-7.31
708.225	-2.31
708.252	-11.31
708.28	-7.31
708.307	-1.31
708.335	10.69
708.362	13.69
708.39	-6.31
708.418	4.69
708.445	-11.31
708.473	-22.31
708.5	-12.31
708.528	18.69
708.555	0.69
708.583	0.69
708.61	-1.31
708.638	12.69
708.665	-13.31
708.693	-4.31
708.72	-1.31
708.748	-4.31
708.776	-2.31
708.803	20.69
708.831	4.69
708.858	2.69
708.886	-2.31
708.913	3.69
708.941	6.69
708.968	22.69
708.996	-10.31
709.023	3.69
709.051	-6.31
709.078	-6.31
709.105	-2.31
709.133	-6.31
709.16	10.69
709.188	12.69
709.215	-2.31
709.243	12.69
709.27	7.69
709.298	-17.31
709.325	1.69
709.353	-2.31
709.38	14.69
709.408	22.69
709.435	-3.31
709.462	-6.31
709.49	-0.31
709.517	-11.31
709.545	-6.31
709.572	-2.31
709.6	0.69
709.627	2.69
709.655	8.69
709.682	5.69
709.709	-3.31
709.737	12.69
709.764	1.69
709.792	19.69
709.819	-1.31
709.846	0.69
709.874	6.69
709.901	19.69
709.929	12.69
709.956	4.69
709.983	4.69
710.011	-7.31
710.038	-11.31
710.066	8.69
710.093	4.69
710.12	6.69
710.148	-13.31
710.175	2.69
710.202	-1.31
710.23	12.69
710.257	13.69
710.284	-5.31
710.312	6.69
710.339	-2.31
710.366	3.69
710.394	-9.31
710.421	3.69
710.448	0.69
710.476	-14.31
710.503	1.69
710.53	11.69
710.558	11.69
710.585	15.69
710.612	-0.31
710.64	12.69
710.667	0.69
710.694	-14.31
710.722	-7.31
710.749	10.69
710.776	7.69
710.804	17.69
710.831	4.69
710.858	1.69
710.885	4.69
710.913	1.69
710.94	28.69
710.967	1.69
710.995	-2.31
711.022	-3.31
711.049	10.69
711.076	-7.31
711.104	2.69
711.131	-13.31
711.158	1.69
711.185	7.69
711.213	2.69
711.24	-5.31
711.267	-10.31
711.294	-5.31
711.322	8.69
711.349	1.69
711.376	-3.31
711.403	9.69
711.431	2.69
711.458	-1.31
711.485	-5.31
711.512	-1.31
711.54	-3.31
711.567	2.69
711.594	-3.31
711.621	3.69
711.648	-1.31
711.676	0.69
711.703	9.69
711.73	-14.31
711.757	4.69
711.784	-3.31
711.812	-19.31
711.839	-21.31
711.866	-5.31
711.893	-12.31
711.92	19.69
711.947	2.69
711.975	14.69
712.002	-1.31
712.029	7.69
712.056	5.69
712.083	13.69
712.11	4.69
712.138	8.69
712.165	14.69
712.192	6.69
712.219	-11.31
712.246	20.69
712.273	9.69
712.3	8.69
712.328	4.69
712.355	6.69
712.382	-9.31
712.409	3.69
712.436	-3.31
712.463	17.69
712.49	10.69
712.517	4.69
712.544	0.69
712.572	2.69
712.599	-17.31
712.626	-2.31
712.653	1.69
712.68	-5.31
712.707	13.69
712.734	13.69
712.761	0.69
712.788	11.69
712.815	-6.31
712.842	-2.31
712.87	-8.31
712.897	-1.31
712.924	-20.31
712.951	13.69
712.978	32.69
713.005	18.69
713.032	4.69
713.059	-5.31
713.086	-1.31
713.113	3.69
713.14	-6.31
713.167	10.69
713.194	20.69
713.221	1.69
713.248	-3.31
713.275	0.69
713.302	-7.31
713.329	1.69
713.356	15.69
713.383	-2.31
713.41	6.69
713.437	-9.31
713.464	-1.31
713.491	14.69
713.518	4.69
713.545	0.69
713.572	2.69
713.599	4.69
713.626	7.69
713.653	-8.31
713.68	-12.31
713.707	-3.31
713.734	1.69
713.761	-3.31
713.788	-4.31
713.815	-4.31
713.842	-4.31
713.869	-1.31
713.896	-6.31
713.923	2.69
713.95	-6.31
713.977	-4.31
714.004	9.69
714.031	8.69
714.058	-2.31
714.085	-11.31
714.112	5.69
714.139	-3.31
714.165	1.69
714.192	-1.31
714.219	-5.31
714.246	-5.31
714.273	-2.31
714.3	-17.31
714.327	-2.31
714.354	3.69
714.381	0.69
714.408	12.69
714.435	-2.31
714.461	1.69
714.488	2.69
714.515	5.69
714.542	-10.31
714.569	6.69
714.596	-7.31
714.623	-22.31
714.65	-16.31
714.677	11.69
714.703	12.69
714.73	5.69
714.757	2.69
714.784	12.69
714.811	-7.31
714.838	2.69
714.865	-1.31
714.891	9.69
714.918	-6.31
714.945	-5.31
714.972	6.69
714.999	11.69
715.026	-3.31
715.052	10.69
715.079	-12.31
715.106	5.69
715.133	14.69
715.16	1.69
715.187	8.69
715.213	12.69
715.24	-2.31
715.267	10.69
715.294	6.69
715.321	-4.31
715.347	4.69
715.374	-5.31
715.401	-2.31
715.428	-2.31
715.455	-0.31
715.481	-9.31
715.508	5.69
715.535	-1.31
715.562	17.69
715.588	-5.31
715.615	0.69
715.642	4.69
715.669	13.69
715.695	-10.31
715.722	-10.31
715.749	9.69
715.776	17.69
715.802	6.69
715.829	2.69
715.856	-13.31
715.883	8.69
715.909	-3.31
715.936	10.69
715.963	-4.31
715.99	2.69
716.016	-4.31
716.043	4.69
716.07	-2.31
716.096	-3.31
716.123	-6.31
716.15	21.69
716.177	8.69
716.203	19.69
716.23	11.69
716.257	1.69
716.283	12.69
716.31	1.69
716.337	8.69
716.363	-3.31
716.39	3.69
716.417	5.69
716.443	6.69
716.47	6.69
716.497	16.69
716.523	22.69
716.55	10.69
716.577	30.69
716.603	-14.31
716.63	3.69
716.657	16.69
716.683	-0.31
716.71	-1.31
716.737	4.69
716.763	21.69
716.79	8.69
716.817	3.69
716.843	5.69
716.87	-5.31
716.897	4.69
716.923	2.69
716.95	-9.31
716.976	-7.31
717.003	-10.31
717.03	11.69
717.056	8.69
717.083	5.69
717.109	5.69
717.136	3.69
717.163	-18.31
717.189	11.69
717.216	3.69
717.242	2.69
717.269	1.69
717.296	5.69
717.322	25.69
717.349	19.69
717.375	-4.31
717.402	-7.31
717.428	-3.31
717.455	8.69
717.481	20.69
717.508	7.69
717.535	-2.31
717.561	4.69
717.588	-7.31
717.614	-6.31
717.641	5.69
717.667	5.69
717.694	9.69
717.72	-12.31
717.747	-7.31
717.773	-2.31
717.8	14.69
717.826	4.69
717.853	18.69
717.88	7.69
717.906	0.69
717.933	2.69
717.959	12.69
717.986	3.69
718.012	-5.31
718.039	7.69
718.065	12.69
718.092	8.69
718.118	-5.31
718.144	-0.31
718.171	19.69
718.197	16.69
718.224	9.69
718.25	10.69
718.277	3.69
718.303	1.69
718.33	-1.31
718.356	-5.31
718.383	6.69
718.409	11.69
718.436	0.69
718.462	-5.31
718.489	3.69
718.515	13.69
718.541	13.69
718.568	7.69
718.594	4.69
718.621	6.69
718.647	11.69
718.674	8.69
718.7	9.69
718.726	2.69
718.753	-5.31
718.779	1.69
718.806	7.69
718.832	10.69
718.858	13.69
718.885	-3.31
718.911	22.69
718.938	3.69
718.964	-7.31
718.99	-3.31
719.017	-6.31
719.043	1.69
719.07	17.69
719.096	-8.31
719.122	9.69
719.149	19.69
719.175	9.69
719.201	7.69
719.228	8.69
719.254	8.69
719.281	0.69
719.307	-2.31
719.333	5.69
719.36	15.69
719.386	-4.31
719.412	8.69
719.439	-3.31
719.465	7.69
719.491	-5.31
719.518	10.69
719.544	1.69
719.57	5.69
719.597	-5.31
719.623	-11.31
719.649	1.69
719.675	5.69
719.702	14.69
719.728	28.69
719.754	-3.31
719.781	-3.31
719.807	5.69
719.833	6.69
719.86	1.69
719.886	8.69
719.912	17.69
719.938	8.69
719.965	4.69
719.991	2.69
720.017	-4.31
720.044	7.69
720.07	10.69
720.096	12.69
720.122	-11.31
720.149	-12.31
720.175	31.69
720.201	0.69
720.227	12.69
720.254	12.69
720.28	8.69
720.306	-8.31
720.332	-0.31
720.359	4.69
720.385	13.69
720.411	2.69
720.437	11.69
720.463	5.69
720.49	9.69
720.516	9.69
720.542	-5.31
720.568	-11.31
720.595	-6.31
720.621	-1.31
720.647	2.69
720.673	20.69
720.699	4.69
720.725	23.69
720.752	5.69
720.778	0.69
720.804	5.69
720.83	8.69
720.856	-2.31
720.883	-10.31
720.909	2.69
720.935	17.69
720.961	6.69
720.987	5.69
721.013	10.69
721.04	-5.31
721.066	10.69
721.092	-3.31
721.118	13.69
721.144	3.69
721.17	-11.31
721.196	-5.31
721.223	-4.31
721.249	4.69
721.275	7.69
721.301	12.69
721.327	18.69
721.353	1.69
721.379	-1.31
721.405	14.69
721.432	13.69
721.458	3.69
721.484	-2.31
721.51	-28.31
721.536	11.69
721.562	22.69
721.588	27.69
721.614	-2.31
721.64	0.69
721.666	2.69
721.693	-8.31
721.719	0.69
721.745	2.69
721.771	-4.31
721.797	-3.31
721.823	-9.31
721.849	3.69
721.875	4.69
721.901	8.69
721.927	4.69
721.953	5.69
721.979	22.69
722.005	12.69
722.031	-2.31
722.057	-5.31
722.083	3.69
722.109	2.69
722.135	1.69
722.161	3.69
722.187	1.69
722.214	-5.31
722.24	11.69
722.266	3.69
722.292	12.69
722.318	14.69
722.344	4.69
722.37	0.69
722.396	1.69
722.422	3.69
722.448	7.69
722.474	-0.31
722.5	20.69
722.526	1.69
722.552	0.69
722.578	11.69
722.603	10.69
722.629	5.69
722.655	10.69
722.681	-5.31
722.707	-8.31
722.733	-2.31
722.759	-20.31
722.785	14.69
722.811	0.69
722.837	-4.31
722.863	10.69
722.889	2.69
722.915	-3.31
722.941	3.69
722.967	-1.31
722.993	5.69
723.019	2.69
723.045	7.69
723.071	5.69
723.097	-1.31
723.122	-1.31
723.148	-3.31
723.174	1.69
723.2	-7.31
723.226	-4.31
723.252	9.69
723.278	2.69
723.304	11.69
723.33	-2.31
723.356	0.69
723.381	-13.31
723.407	-11.31
723.433	15.69
723.459	7.69
723.485	1.69
723.511	4.69
723.537	10.69
723.563	11.69
723.588	2.69
723.614	5.69
723.64	-8.31
723.666	12.69
723.692	12.69
723.718	7.69
723.744	4.69
723.769	-4.31
723.795	-12.31
723.821	-3.31
723.847	1.69
723.873	9.69
723.899	20.69
723.924	3.69
723.95	2.69
723.976	-6.31
724.002	7.69
724.028	10.69
724.053	6.69
724.079	7.69
724.105	1.69
724.131	-7.31
724.157	-0.31
724.182	8.69
724.208	0.69
724.234	-1.31
724.26	5.69
724.286	16.69
724.311	1.69
724.337	-4.31
724.363	-4.31
724.389	18.69
724.415	-7.31
724.44	14.69
724.466	10.69
724.492	9.69
724.518	10.69
724.543	0.69
724.569	7.69
724.595	-1.31
724.621	-2.31
724.646	-2.31
724.672	1.69
724.698	0.69
724.723	2.69
724.749	7.69
724.775	-0.31
724.801	-9.31
724.826	-5.31
724.852	3.69
724.878	-2.31
724.904	-11.31
724.929	7.69
724.955	-17.31
724.981	-1.31
725.006	1.69
725.032	11.69
725.058	10.69
725.083	-6.31
725.109	-4.31
725.135	8.69
725.161	-4.31
725.186	8.69
725.212	9.69
725.238	13.69
725.263	2.69
725.289	-0.31
725.315	-20.31
725.34	-4.31
725.366	3.69
725.392	-24.31
725.417	-10.31
725.443	9.69
725.468	17.69
725.494	9.69
725.52	20.69
725.545	12.69
725.571	7.69
725.597	-1.31
725.622	-9.31
725.648	0.69
725.674	30.69
725.699	4.69
725.725	20.69
725.75	8.69
725.776	-4.31
725.802	1.69
725.827	-7.31
725.853	1.69
725.878	4.69
725.904	0.69
725.93	-12.31
725.955	-16.31
725.981	-5.31
726.006	-4.31
726.032	10.69
726.057	2.69
726.083	-2.31
726.109	-13.31
726.134	2.69
726.16	3.69
726.185	-5.31
726.211	-11.31
726.236	9.69
726.262	1.69
726.288	11.69
726.313	5.69
726.339	5.69
726.364	-1.31
726.39	9.69
726.415	1.69
726.441	-5.31
726.466	4.69
726.492	10.69
726.517	14.69
726.543	-5.31
726.568	-3.31
726.594	-2.31
726.619	9.69
726.645	-2.31
726.67	1.69
726.696	13.69
726.721	-3.31
726.747	1.69
726.772	14.69
726.798	-6.31
726.823	0.69
726.849	-8.31
726.874	1.69
726.9	18.69
726.925	7.69
726.951	0.69
726.976	10.69
727.002	-1.31
727.027	-1.31
727.053	13.69
727.078	9.69
727.104	11.69
727.129	-17.31
727.155	-0.31
727.18	8.69
727.205	0.69
727.231	3.69
727.256	7.69
727.282	10.69
727.307	19.69
727.333	-8.31
727.358	-1.31
727.383	-12.31
727.409	5.69
727.434	13.69
727.46	-14.31
727.485	0.69
727.511	5.69
727.536	-18.31
727.561	-7.31
727.587	-7.31
727.612	-6.31
727.637	-5.31
727.663	-1.31
727.688	17.69
727.714	-7.31
727.739	-13.31
727.764	0.69
727.79	-8.31
727.815	10.69
727.841	8.69
727.866	-2.31
727.891	7.69
727.917	-22.31
727.942	-3.31
727.967	0.69
727.993	-13.31
728.018	-5.31
728.043	-14.31
728.069	1.69
728.094	8.69
728.119	-2.31
728.145	19.69
728.17	1.69
728.195	16.69
728.221	4.69
728.246	1.69
728.271	-10.31
728.297	7.69
728.322	17.69
728.347	-1.31
728.373	5.69
728.398	14.69
728.423	-5.31
728.448	7.69
728.474	1.69
728.499	8.69
728.524	-4.31
728.55	-9.31
728.575	4.69
728.6	2.69
728.625	-11.31
728.651	8.69
728.676	-7.31
728.701	-5.31
728.727	4.69
728.752	-0.31
728.777	-7.31
728.802	-1.31
728.828	6.69
728.853	6.69
728.878	-9.31
728.903	-4.31
728.929	-9.31
728.954	-7.31
728.979	1.69
729.004	-1.31
729.03	-5.31
729.055	1.69
729.08	-26.31
729.105	-6.31
729.13	8.69
729.156	8.69
729.181	-5.31
729.206	-20.31
729.231	-4.31
729.256	5.69
729.282	-3.31
729.307	-6.31
729.332	1.69
729.357	-12.31
729.382	-9.31
729.408	11.69
729.433	4.69
729.458	-3.31
729.483	1.69
729.508	7.69
729.533	3.69
729.559	6.69
729.584	-4.31
729.609	11.69
729.634	6.69
729.659	-13.31
729.684	-8.31
729.71	16.69
729.735	-2.31
729.76	-3.31
729.785	-11.31
729.81	-2.31
729.835	1.69
729.86	-21.31
729.886	15.69
729.911	5.69
729.936	6.69
729.961	13.69
729.986	-0.31
730.011	6.69
730.036	6.69
730.061	8.69
730.086	19.69
730.112	-10.31
730.137	18.69
730.162	-2.31
730.187	-4.31
730.212	2.69
730.237	4.69
730.262	-9.31
730.287	12.69
730.312	9.69
730.337	-3.31
730.362	20.69
730.387	1.69
730.413	-15.31
730.438	3.69
730.463	-1.31
730.488	0.69
730.513	11.69
730.538	-5.31
730.563	27.69
730.588	13.69
730.613	9.69
730.638	-5.31
730.663	-7.31
730.688	6.69
730.713	-2.31
730.738	-4.31
730.763	-9.31
730.788	-18.31
730.813	5.69
730.838	3.69
730.863	-11.31
730.888	-11.31
730.913	6.69
730.938	-7.31
730.963	-5.31
730.988	-2.31
731.013	20.69
731.038	-3.31
731.063	-0.31
731.088	11.69
731.113	-2.31
731.138	-6.31
731.163	-8.31
731.188	-17.31
731.213	1.69
731.238	12.69
731.263	1.69
731.288	-2.31
731.313	-4.31
731.338	5.69
731.363	10.69
731.388	-3.31
731.413	-1.31
731.438	10.69
731.463	2.69
731.487	1.69
731.512	0.69
731.537	-14.31
731.562	-3.31
731.587	1.69
731.612	-4.31
731.637	-7.31
731.662	-14.31
731.687	-4.31
731.712	-9.31
731.737	5.69
731.762	6.69
731.786	-3.31
731.811	2.69
731.836	5.69
731.861	-3.31
731.886	-4.31
731.911	3.69
731.936	23.69
731.961	-2.31
731.986	-5.31
732.01	6.69
732.035	9.69
732.06	5.69
732.085	-13.31
732.11	0.69
732.135	-14.31
732.16	-7.31
732.184	-5.31
732.209	-1.31
732.234	15.69
732.259	5.69
732.284	20.69
732.309	-2.31
732.334	4.69
732.358	-7.31
732.383	-20.31
732.408	2.69
732.433	-1.31
732.458	-2.31
732.482	2.69
732.507	-0.31
732.532	0.69
732.557	9.69
732.582	5.69
732.607	6.69
732.631	-13.31
732.656	-5.31
732.681	9.69
732.706	6.69
732.73	13.69
732.755	-6.31
732.78	4.69
732.805	-4.31
732.83	-3.31
732.854	9.69
732.879	26.69
732.904	13.69
732.929	11.69
732.953	8.69
732.978	1.69
733.003	4.69
733.028	-5.31
733.052	-12.31
733.077	-7.31
733.102	8.69
733.127	2.69
733.151	0.69
733.176	6.69
733.201	-5.31
733.226	-6.31
733.25	2.69
733.275	0.69
733.3	4.69
733.324	8.69
733.349	17.69
733.374	0.69
733.399	2.69
733.423	-5.31
733.448	-3.31
733.473	2.69
733.497	8.69
733.522	-3.31
733.547	17.69
733.571	13.69
733.596	10.69
733.621	8.69
733.646	4.69
733.67	22.69
733.695	-7.31
733.72	5.69
733.744	7.69
733.769	-1.31
733.794	17.69
733.818	2.69
733.843	3.69
733.867	-5.31
733.892	0.69
733.917	-12.31
733.941	-4.31
733.966	-3.31
733.991	5.69
734.015	10.69
734.04	-3.31
734.065	25.69
734.089	22.69
734.114	-3.31
734.138	6.69
734.163	-6.31
734.188	5.69
734.212	6.69
734.237	8.69
734.261	9.69
734.286	12.69
734.311	-3.31
734.335	9.69
734.36	-3.31
734.384	0.69
734.409	-0.31
734.434	5.69
734.458	3.69
734.483	-0.31
734.507	-4.31
734.532	-5.31
734.556	-3.31
734.581	-4.31
734.606	-7.31
734.63	2.69
734.655	10.69
734.679	11.69
734.704	4.69
734.728	-3.31
734.753	-10.31
734.777	-14.31
734.802	-3.31
734.826	-3.31
734.851	21.69
734.876	11.69
734.9	2.69
734.925	9.69
734.949	18.69
734.974	17.69
734.998	1.69
735.023	-10.31
735.047	-18.31
735.072	20.69
735.096	2.69
735.121	3.69
735.145	8.69
735.17	5.69
735.194	9.69
735.219	12.69
735.243	21.69
735.268	10.69
735.292	14.69
735.317	18.69
735.341	12.69
735.365	-5.31
735.39	5.69
735.414	12.69
735.439	7.69
735.463	-3.31
735.488	1.69
735.512	12.69
735.537	-4.31
735.561	3.69
735.586	12.69
735.61	12.69
735.634	1.69
735.659	12.69
735.683	7.69
735.708	-6.31
735.732	-10.31
735.757	-8.31
735.781	5.69
735.805	-0.31
735.83	0.69
735.854	7.69
735.879	3.69
735.903	26.69
735.927	-0.31
735.952	16.69
735.976	4.69
736.001	15.69
736.025	0.69
736.049	1.69
736.074	-5.31
736.098	3.69
736.123	6.69
736.147	-3.31
736.171	1.69
736.196	2.69
736.22	-3.31
736.244	11.69
736.269	8.69
736.293	1.69
736.317	5.69
736.342	19.69
736.366	9.69
736.39	26.69
736.415	5.69
736.439	17.69
736.463	19.69
736.488	5.69
736.512	3.69
736.536	16.69
736.561	15.69
736.585	-10.31
736.609	18.69
736.634	8.69
736.658	-1.31
736.682	-9.31
736.707	-6.31
736.731	-4.31
736.755	2.69
736.78	2.69
736.804	16.69
736.828	1.69
736.852	-8.31
736.877	1.69
736.901	10.69
736.925	7.69
736.949	-3.31
736.974	-11.31
736.998	-10.31
737.022	18.69
737.047	5.69
737.071	-0.31
737.095	-3.31
737.119	23.69
737.144	11.69
737.168	1.69
737.192	-6.31
737.216	8.69
737.241	-6.31
737.265	-6.31
737.289	5.69
737.313	5.69
737.337	8.69
737.362	1.69
737.386	6.69
737.41	-3.31
737.434	0.69
737.459	10.69
737.483	5.69
737.507	5.69
737.531	8.69
737.555	6.69
737.58	3.69
737.604	14.69
737.628	-3.31
737.652	-9.31
737.676	3.69
737.701	-2.31
737.725	2.69
737.749	15.69
737.773	-11.31
737.797	-4.31
737.821	-9.31
737.846	-1.31
737.87	25.69
737.894	-7.31
737.918	-3.31
737.942	7.69
737.966	14.69
737.99	1.69
738.015	3.69
738.039	15.69
738.063	-0.31
738.087	2.69
738.111	-0.31
738.135	22.69
738.159	15.69
738.184	4.69
738.208	12.69
738.232	9.69
738.256	14.69
738.28	16.69
738.304	-1.31
738.328	-15.31
738.352	1.69
738.376	1.69
738.4	-2.31
738.425	-7.31
738.449	-1.31
738.473	17.69
738.497	9.69
738.521	-14.31
738.545	5.69
738.569	7.69
738.593	17.69
738.617	0.69
738.641	16.69
738.665	11.69
738.689	-0.31
738.713	6.69
738.737	-2.31
738.762	25.69
738.786	8.69
738.81	-14.31
738.834	1.69
738.858	1.69
738.882	2.69
738.906	0.69
738.93	8.69
738.954	11.69
738.978	14.69
739.002	0.69
739.026	2.69
739.05	2.69
739.074	-1.31
739.098	16.69
739.122	14.69
739.146	7.69
739.17	20.69
739.194	9.69
739.218	-7.31
739.242	0.69
739.266	1.69
739.29	3.69
739.314	12.69
739.338	9.69
739.362	6.69
739.386	1.69
739.41	-14.31
739.434	0.69
739.458	20.69
739.482	10.69
739.506	11.69
739.53	-2.31
739.554	4.69
739.577	-6.31
739.601	12.69
739.625	-15.31
739.649	-4.31
739.673	-5.31
739.697	2.69
739.721	-1.31
739.745	4.69
739.769	12.69
739.793	14.69
739.817	24.69
739.841	-18.31
739.865	-5.31
739.889	-6.31
739.912	13.69
739.936	-7.31
739.96	5.69
739.984	23.69
740.008	-0.31
740.032	8.69
740.056	-3.31
740.08	0.69
740.104	-7.31
740.127	6.69
740.151	7.69
740.175	32.69
740.199	15.69
740.223	55.69
740.247	20.69
740.271	2.69
740.295	-2.31
740.318	-8.31
740.342	-3.31
740.366	-6.31
740.39	7.69
740.414	5.69
740.438	-22.31
740.461	10.69
740.485	6.69
740.509	-6.31
740.533	8.69
740.557	5.69
740.581	0.69
740.604	-7.31
740.628	-7.31
740.652	14.69
740.676	9.69
740.7	17.69
740.723	-5.31
740.747	-11.31
740.771	-16.31
740.795	-14.31
740.819	16.69
740.842	-3.31
740.866	9.69
740.89	13.69
740.914	1.69
740.938	-7.31
740.961	14.69
740.985	11.69
741.009	0.69
741.033	8.69
741.056	4.69
741.08	9.69
741.104	-14.31
741.128	5.69
741.151	2.69
741.175	-8.31
741.199	-1.31
741.223	8.69
741.246	-11.31
741.27	5.69
741.294	19.69
741.318	-2.31
741.341	-3.31
741.365	-1.31
741.389	8.69
741.413	4.69
741.436	23.69
741.46	6.69
741.484	26.69
741.507	19.69
741.531	22.69
741.555	10.69
741.579	-12.31
741.602	-4.31
741.626	2.69
741.65	0.69
741.673	12.69
741.697	15.69
741.721	5.69
741.744	-12.31
741.768	-4.31
741.792	-1.31
741.815	-0.31
741.839	24.69
741.863	16.69
741.886	9.69
741.91	6.69
741.934	10.69
741.957	-23.31
741.981	2.69
742.005	-2.31
742.028	-12.31
742.052	0.69
742.075	11.69
742.099	17.69
742.123	9.69
742.146	-0.31
742.17	10.69
742.194	1.69
742.217	-0.31
742.241	4.69
742.264	-5.31
742.288	8.69
742.312	4.69
742.335	-4.31
742.359	-6.31
742.382	9.69
742.406	4.69
742.43	3.69
742.453	10.69
742.477	1.69
742.5	-2.31
742.524	3.69
742.548	-1.31
742.571	1.69
742.595	-9.31
742.618	-7.31
742.642	3.69
742.665	1.69
742.689	0.69
742.712	7.69
742.736	1.69
742.76	7.69
742.783	16.69
742.807	25.69
742.83	32.69
742.854	1.69
742.877	-3.31
742.901	9.69
742.924	-10.31
742.948	9.69
742.971	7.69
742.995	15.69
743.018	-0.31
743.042	0.69
743.065	-2.31
743.089	-7.31
743.112	5.69
743.136	-4.31
743.159	-3.31
743.183	-2.31
743.206	-2.31
743.23	-0.31
743.253	7.69
743.277	2.69
743.3	-2.31
743.324	-3.31
743.347	-3.31
743.371	8.69
743.394	-2.31
743.418	28.69
743.441	4.69
743.465	-3.31
743.488	7.69
743.512	0.69
743.535	6.69
743.558	-5.31
743.582	8.69
743.605	0.69
743.629	5.69
743.652	3.69
743.676	-6.31
743.699	2.69
743.723	17.69
743.746	8.69
743.769	-3.31
743.793	12.69
743.816	-2.31
743.84	7.69
743.863	6.69
743.886	6.69
743.91	7.69
743.933	13.69
743.957	17.69
743.98	5.69
744.003	4.69
744.027	13.69
744.05	8.69
744.074	0.69
744.097	-9.31
744.12	-17.31
744.144	-6.31
744.167	12.69
744.19	4.69
744.214	-5.31
744.237	-13.31
744.26	13.69
744.284	12.69
744.307	3.69
744.331	2.69
744.354	-9.31
744.377	-2.31
744.401	-1.31
744.424	11.69
744.447	-9.31
744.471	3.69
