Data from HighRes_H2_15_09_11_07_2024_HR4C61891__80__15-11-04-402.txt Node

Date: Thu Nov 07 15:11:04 EST 2024
User: crc00042
Spectrometer: HR4C6189
Trigger mode: 4
Integration Time (sec): 1.000000E-1
Scans to average: 1
Electric dark correction enabled: true
Nonlinearity correction enabled: false
Boxcar width: 0
XAxis mode: Wavelengths
Number of Pixels in Spectrum: 3648
>>>>>Begin Spectral Data<<<<<
639.567	-43.92
639.602	-43.92
639.636	-43.92
639.67	-58.92
639.704	-21.92
639.738	-1.92
639.773	8.08
639.807	-6.92
639.841	2.08
639.875	10.08
639.909	-5.92
639.943	-5.92
639.978	0.08
640.012	1.08
640.046	18.08
640.08	-0.92
640.114	0.08
640.148	-17.92
640.182	-20.92
640.217	-4.92
640.251	18.08
640.285	14.08
640.319	-4.92
640.353	-4.92
640.387	9.08
640.421	3.08
640.455	-13.92
640.49	3.08
640.524	0.08
640.558	6.08
640.592	13.08
640.626	5.08
640.66	1.08
640.694	-25.92
640.728	-3.92
640.762	-7.92
640.796	8.08
640.83	23.08
640.865	-19.92
640.899	-4.92
640.933	3.08
640.967	10.08
641.001	0.08
641.035	2.08
641.069	-4.92
641.103	-1.92
641.137	-9.92
641.171	-14.92
641.205	5.08
641.239	13.08
641.273	14.08
641.307	12.08
641.341	-1.92
641.375	-3.92
641.409	-12.92
641.443	-3.92
641.477	11.08
641.511	7.08
641.545	-16.92
641.579	1.08
641.614	15.08
641.648	-2.92
641.682	-12.92
641.716	2.08
641.75	17.08
641.784	-0.92
641.818	-27.92
641.852	-7.92
641.886	-3.92
641.919	16.08
641.953	3.08
641.987	-3.92
642.021	6.08
642.055	-0.92
642.089	-2.92
642.123	-3.92
642.157	-9.92
642.191	-14.92
642.225	-0.92
642.259	-0.92
642.293	13.08
642.327	8.08
642.361	-3.92
642.395	13.08
642.429	11.08
642.463	-6.92
642.497	10.08
642.531	-14.92
642.565	-18.92
642.599	-7.92
642.633	-12.92
642.666	15.08
642.7	19.08
642.734	17.08
642.768	-5.92
642.802	23.08
642.836	18.08
642.87	6.08
642.904	5.08
642.938	21.08
642.972	-4.92
643.005	-3.92
643.039	15.08
643.073	5.08
643.107	6.08
643.141	0.08
643.175	2.08
643.209	2.08
643.243	6.08
643.276	4.08
643.31	3.08
643.344	6.08
643.378	1.08
643.412	15.08
643.446	8.08
643.48	11.08
643.513	10.08
643.547	-16.92
643.581	-14.92
643.615	6.08
643.649	13.08
643.683	-0.92
643.716	-7.92
643.75	6.08
643.784	-4.92
643.818	17.08
643.852	-0.92
643.886	-13.92
643.919	3.08
643.953	-3.92
643.987	0.08
644.021	11.08
644.055	9.08
644.088	-7.92
644.122	-15.92
644.156	1.08
644.19	-3.92
644.224	5.08
644.257	7.08
644.291	15.08
644.325	-0.92
644.359	2.08
644.392	24.08
644.426	13.08
644.46	-0.92
644.494	3.08
644.527	-6.92
644.561	-10.92
644.595	-4.92
644.629	3.08
644.662	2.08
644.696	8.08
644.73	11.08
644.764	6.08
644.797	-16.92
644.831	1.08
644.865	5.08
644.899	6.08
644.932	21.08
644.966	3.08
645	11.08
645.033	29.08
645.067	1.08
645.101	2.08
645.135	0.08
645.168	-11.92
645.202	1.08
645.236	-0.92
645.269	21.08
645.303	2.08
645.337	-4.92
645.37	-5.92
645.404	-1.92
645.438	2.08
645.471	-9.92
645.505	6.08
645.539	13.08
645.572	-0.92
645.606	-7.92
645.64	-10.92
645.673	7.08
645.707	31.08
645.741	3.08
645.774	0.08
645.808	16.08
645.842	-0.92
645.875	10.08
645.909	-11.92
645.943	-8.92
645.976	-1.92
646.01	3.08
646.043	4.08
646.077	10.08
646.111	9.08
646.144	19.08
646.178	9.08
646.212	-12.92
646.245	-12.92
646.279	4.08
646.312	22.08
646.346	14.08
646.38	8.08
646.413	3.08
646.447	11.08
646.48	11.08
646.514	0.08
646.547	-6.92
646.581	-3.92
646.615	-5.92
646.648	-10.92
646.682	-0.92
646.715	-2.92
646.749	10.08
646.782	0.08
646.816	-1.92
646.85	9.08
646.883	-3.92
646.917	9.08
646.95	-6.92
646.984	-7.92
647.017	-1.92
647.051	0.08
647.084	23.08
647.118	6.08
647.151	3.08
647.185	3.08
647.218	-19.92
647.252	5.08
647.285	1.08
647.319	-20.92
647.353	2.08
647.386	11.08
647.42	5.08
647.453	5.08
647.487	-8.92
647.52	-16.92
647.553	-2.92
647.587	-10.92
647.62	-6.92
647.654	-10.92
647.687	-6.92
647.721	-18.92
647.754	-4.92
647.788	6.08
647.821	-3.92
647.855	-2.92
647.888	10.08
647.922	17.08
647.955	8.08
647.989	6.08
648.022	0.08
648.055	-0.92
648.089	0.08
648.122	11.08
648.156	-5.92
648.189	3.08
648.223	9.08
648.256	7.08
648.29	7.08
648.323	-7.92
648.356	4.08
648.39	-7.92
648.423	11.08
648.457	-10.92
648.49	-11.92
648.523	1.08
648.557	-1.92
648.59	0.08
648.624	-7.92
648.657	14.08
648.69	6.08
648.724	-4.92
648.757	9.08
648.791	12.08
648.824	16.08
648.857	23.08
648.891	-1.92
648.924	15.08
648.957	19.08
648.991	-9.92
649.024	9.08
649.057	6.08
649.091	-3.92
649.124	9.08
649.158	17.08
649.191	8.08
649.224	8.08
649.258	-1.92
649.291	-0.92
649.324	0.08
649.358	10.08
649.391	12.08
649.424	15.08
649.458	6.08
649.491	-10.92
649.524	-14.92
649.557	-8.92
649.591	-6.92
649.624	20.08
649.657	-3.92
649.691	2.08
649.724	3.08
649.757	3.08
649.791	-16.92
649.824	17.08
649.857	4.08
649.89	13.08
649.924	-18.92
649.957	11.08
649.99	0.08
650.023	14.08
650.057	9.08
650.09	14.08
650.123	2.08
650.157	16.08
650.19	9.08
650.223	-10.92
650.256	2.08
650.29	-21.92
650.323	-6.92
650.356	-8.92
650.389	4.08
650.423	-2.92
650.456	13.08
650.489	7.08
650.522	25.08
650.555	19.08
650.589	9.08
650.622	0.08
650.655	24.08
650.688	6.08
650.721	-13.92
650.755	-5.92
650.788	8.08
650.821	5.08
650.854	-11.92
650.887	8.08
650.921	-8.92
650.954	-8.92
650.987	-19.92
651.02	-6.92
651.053	1.08
651.087	0.08
651.12	21.08
651.153	16.08
651.186	5.08
651.219	-12.92
651.252	0.08
651.286	14.08
651.319	-5.92
651.352	0.08
651.385	-2.92
651.418	-0.92
651.451	11.08
651.484	10.08
651.518	-7.92
651.551	7.08
651.584	-13.92
651.617	14.08
651.65	7.08
651.683	9.08
651.716	-8.92
651.749	-1.92
651.783	-10.92
651.816	5.08
651.849	22.08
651.882	-5.92
651.915	-3.92
651.948	3.08
651.981	-6.92
652.014	-5.92
652.047	0.08
652.08	-5.92
652.114	-15.92
652.147	-13.92
652.18	-4.92
652.213	8.08
652.246	-1.92
652.279	0.08
652.312	16.08
652.345	3.08
652.378	1.08
652.411	15.08
652.444	16.08
652.477	0.08
652.51	-2.92
652.543	-17.92
652.576	-2.92
652.609	2.08
652.642	-2.92
652.675	12.08
652.709	1.08
652.742	15.08
652.775	3.08
652.808	7.08
652.841	7.08
652.874	5.08
652.907	-3.92
652.94	-1.92
652.973	-8.92
653.006	-7.92
653.039	9.08
653.072	7.08
653.105	-9.92
653.138	-22.92
653.171	20.08
653.204	0.08
653.237	7.08
653.27	-4.92
653.303	-5.92
653.336	13.08
653.368	5.08
653.401	-6.92
653.434	1.08
653.467	16.08
653.5	-16.92
653.533	-21.92
653.566	-13.92
653.599	6.08
653.632	-6.92
653.665	7.08
653.698	-12.92
653.731	2.08
653.764	14.08
653.797	-0.92
653.83	6.08
653.863	-0.92
653.896	5.08
653.929	8.08
653.961	1.08
653.994	-11.92
654.027	-9.92
654.06	4.08
654.093	2.08
654.126	7.08
654.159	-13.92
654.192	-11.92
654.225	7.08
654.258	-3.92
654.29	7.08
654.323	-2.92
654.356	-0.92
654.389	3.08
654.422	-4.92
654.455	-1.92
654.488	3.08
654.521	-2.92
654.553	-10.92
654.586	13.08
654.619	-4.92
654.652	-4.92
654.685	12.08
654.718	-3.92
654.751	4.08
654.783	2.08
654.816	8.08
654.849	2.08
654.882	0.08
654.915	-2.92
654.948	6.08
654.98	1.08
655.013	9.08
655.046	1.08
655.079	-12.92
655.112	7.08
655.144	-8.92
655.177	2.08
655.21	27.08
655.243	24.08
655.276	-0.92
655.308	-3.92
655.341	1.08
655.374	0.08
655.407	1.08
655.44	4.08
655.472	37.08
655.505	10.08
655.538	7.08
655.571	17.08
655.603	13.08
655.636	-9.92
655.669	5.08
655.702	5.08
655.734	6.08
655.767	11.08
655.8	23.08
655.833	31.08
655.865	28.08
655.898	38.08
655.931	43.08
655.964	29.08
655.996	56.08
656.029	80.08
656.062	74.08
656.095	59.08
656.127	74.08
656.16	108.08
656.193	105.08
656.225	174.08
656.258	271.08
656.291	497.08
656.324	1096.08
656.356	3346.08
656.389	7425.08
656.422	5913.08
656.454	2039.08
656.487	687.08
656.52	249.08
656.552	123.08
656.585	79.08
656.618	59.08
656.65	48.08
656.683	22.08
656.716	11.08
656.748	23.08
656.781	-8.92
656.814	-4.92
656.846	12.08
656.879	-7.92
656.912	5.08
656.944	2.08
656.977	-0.92
657.01	3.08
657.042	9.08
657.075	2.08
657.108	-12.92
657.14	-5.92
657.173	2.08
657.205	34.08
657.238	-0.92
657.271	5.08
657.303	-12.92
657.336	-3.92
657.369	16.08
657.401	-4.92
657.434	-10.92
657.466	8.08
657.499	2.08
657.532	-1.92
657.564	11.08
657.597	7.08
657.629	1.08
657.662	-4.92
657.694	7.08
657.727	-10.92
657.76	3.08
657.792	-1.92
657.825	2.08
657.857	3.08
657.89	6.08
657.922	-3.92
657.955	0.08
657.987	3.08
658.02	10.08
658.053	6.08
658.085	-1.92
658.118	6.08
658.15	5.08
658.183	8.08
658.215	3.08
658.248	-12.92
658.28	2.08
658.313	14.08
658.345	18.08
658.378	11.08
658.41	-0.92
658.443	0.08
658.475	-5.92
658.508	3.08
658.54	0.08
658.573	-0.92
658.605	2.08
658.638	-9.92
658.67	-0.92
658.703	12.08
658.735	-16.92
658.768	0.08
658.8	-18.92
658.833	11.08
658.865	-1.92
658.898	21.08
658.93	-4.92
658.963	1.08
658.995	-12.92
659.028	12.08
659.06	-11.92
659.092	-4.92
659.125	-9.92
659.157	2.08
659.19	-2.92
659.222	-8.92
659.255	2.08
659.287	-0.92
659.32	-4.92
659.352	0.08
659.384	-3.92
659.417	-3.92
659.449	-0.92
659.482	7.08
659.514	3.08
659.546	-9.92
659.579	0.08
659.611	17.08
659.644	3.08
659.676	-7.92
659.708	-10.92
659.741	-16.92
659.773	4.08
659.806	-1.92
659.838	-10.92
659.87	0.08
659.903	-9.92
659.935	-3.92
659.967	19.08
660	3.08
660.032	-15.92
660.065	28.08
660.097	8.08
660.129	-7.92
660.162	-3.92
660.194	6.08
660.226	3.08
660.259	-1.92
660.291	-0.92
660.323	-9.92
660.356	8.08
660.388	-8.92
660.42	-9.92
660.453	-0.92
660.485	-0.92
660.517	-6.92
660.55	10.08
660.582	-5.92
660.614	15.08
660.647	-6.92
660.679	-29.92
660.711	-12.92
660.743	-13.92
660.776	-2.92
660.808	3.08
660.84	-5.92
660.873	-9.92
660.905	-13.92
660.937	3.08
660.969	4.08
661.002	2.08
661.034	16.08
661.066	-12.92
661.099	8.08
661.131	23.08
661.163	-3.92
661.195	5.08
661.228	22.08
661.26	-3.92
661.292	-3.92
661.324	6.08
661.357	-0.92
661.389	11.08
661.421	13.08
661.453	3.08
661.485	-5.92
661.518	4.08
661.55	-15.92
661.582	-18.92
661.614	-9.92
661.647	2.08
661.679	4.08
661.711	6.08
661.743	-9.92
661.775	11.08
661.808	13.08
661.84	-12.92
661.872	1.08
661.904	-0.92
661.936	-0.92
661.969	-20.92
662.001	-2.92
662.033	10.08
662.065	4.08
662.097	22.08
662.129	12.08
662.162	-18.92
662.194	-2.92
662.226	0.08
662.258	14.08
662.29	-0.92
662.322	-2.92
662.355	-14.92
662.387	4.08
662.419	7.08
662.451	19.08
662.483	9.08
662.515	-2.92
662.547	2.08
662.58	-0.92
662.612	-7.92
662.644	-12.92
662.676	-0.92
662.708	8.08
662.74	-0.92
662.772	1.08
662.804	-0.92
662.836	0.08
662.869	5.08
662.901	0.08
662.933	-2.92
662.965	18.08
662.997	20.08
663.029	0.08
663.061	-1.92
663.093	3.08
663.125	3.08
663.157	8.08
663.189	7.08
663.221	21.08
663.254	1.08
663.286	3.08
663.318	-0.92
663.35	-2.92
663.382	5.08
663.414	-1.92
663.446	3.08
663.478	-3.92
663.51	10.08
663.542	3.08
663.574	6.08
663.606	4.08
663.638	-8.92
663.67	-9.92
663.702	-0.92
663.734	-9.92
663.766	-4.92
663.798	-0.92
663.83	-8.92
663.862	2.08
663.894	4.08
663.926	6.08
663.958	6.08
663.99	-15.92
664.022	-0.92
664.054	9.08
664.086	12.08
664.118	6.08
664.15	-7.92
664.182	6.08
664.214	-21.92
664.246	16.08
664.278	-4.92
664.31	19.08
664.342	0.08
664.374	3.08
664.406	-0.92
664.438	-2.92
664.47	28.08
664.502	-8.92
664.534	1.08
664.566	-4.92
664.598	2.08
664.63	3.08
664.662	8.08
664.693	-12.92
664.725	-17.92
664.757	-5.92
664.789	-19.92
664.821	-3.92
664.853	4.08
664.885	3.08
664.917	-11.92
664.949	11.08
664.981	13.08
665.013	6.08
665.045	-5.92
665.076	3.08
665.108	-8.92
665.14	-8.92
665.172	4.08
665.204	-0.92
665.236	-21.92
665.268	4.08
665.3	-4.92
665.331	2.08
665.363	13.08
665.395	-0.92
665.427	-29.92
665.459	3.08
665.491	-4.92
665.523	5.08
665.555	11.08
665.586	-0.92
665.618	9.08
665.65	-23.92
665.682	7.08
665.714	20.08
665.746	-6.92
665.777	-0.92
665.809	-3.92
665.841	11.08
665.873	2.08
665.905	-11.92
665.937	15.08
665.968	-5.92
666	-10.92
666.032	3.08
666.064	-7.92
666.096	-2.92
666.127	13.08
666.159	18.08
666.191	13.08
666.223	3.08
666.255	12.08
666.286	8.08
666.318	-3.92
666.35	17.08
666.382	4.08
666.413	-0.92
666.445	-12.92
666.477	-25.92
666.509	-3.92
666.54	-4.92
666.572	-1.92
666.604	-5.92
666.636	-1.92
666.667	20.08
666.699	11.08
666.731	19.08
666.763	6.08
666.794	1.08
666.826	-0.92
666.858	-5.92
666.89	3.08
666.921	15.08
666.953	0.08
666.985	2.08
667.017	17.08
667.048	15.08
667.08	-9.92
667.112	-11.92
667.143	7.08
667.175	28.08
667.207	10.08
667.238	3.08
667.27	6.08
667.302	-1.92
667.334	6.08
667.365	7.08
667.397	-0.92
667.429	-11.92
667.46	19.08
667.492	11.08
667.524	-1.92
667.555	-31.92
667.587	2.08
667.619	-2.92
667.65	-11.92
667.682	15.08
667.714	12.08
667.745	-7.92
667.777	2.08
667.808	9.08
667.84	2.08
667.872	-8.92
667.903	13.08
667.935	1.08
667.967	-5.92
667.998	-5.92
668.03	6.08
668.061	7.08
668.093	-12.92
668.125	7.08
668.156	12.08
668.188	2.08
668.22	-7.92
668.251	-4.92
668.283	2.08
668.314	16.08
668.346	-8.92
668.377	-15.92
668.409	-20.92
668.441	3.08
668.472	2.08
668.504	11.08
668.535	7.08
668.567	6.08
668.599	8.08
668.63	-4.92
668.662	-6.92
668.693	11.08
668.725	2.08
668.756	7.08
668.788	8.08
668.819	1.08
668.851	3.08
668.882	6.08
668.914	-8.92
668.946	1.08
668.977	-13.92
669.009	0.08
669.04	-23.92
669.072	-6.92
669.103	20.08
669.135	3.08
669.166	-0.92
669.198	19.08
669.229	6.08
669.261	-12.92
669.292	13.08
669.324	13.08
669.355	7.08
669.387	-20.92
669.418	10.08
669.45	-7.92
669.481	8.08
669.513	-2.92
669.544	4.08
669.576	1.08
669.607	10.08
669.639	12.08
669.67	-7.92
669.701	0.08
669.733	-28.92
669.764	1.08
669.796	0.08
669.827	-16.92
669.859	-12.92
669.89	-0.92
669.922	7.08
669.953	2.08
669.985	5.08
670.016	11.08
670.047	10.08
670.079	-6.92
670.11	16.08
670.142	-0.92
670.173	-0.92
670.204	5.08
670.236	4.08
670.267	-9.92
670.299	3.08
670.33	-9.92
670.362	6.08
670.393	-22.92
670.424	18.08
670.456	-4.92
670.487	7.08
670.518	-3.92
670.55	6.08
670.581	-5.92
670.613	8.08
670.644	-19.92
670.675	-12.92
670.707	3.08
670.738	-2.92
670.769	-1.92
670.801	-5.92
670.832	0.08
670.864	-13.92
670.895	-2.92
670.926	1.08
670.958	1.08
670.989	1.08
671.02	-9.92
671.052	0.08
671.083	-3.92
671.114	-7.92
671.146	15.08
671.177	13.08
671.208	-12.92
671.24	-9.92
671.271	-33.92
671.302	-0.92
671.333	-11.92
671.365	-13.92
671.396	-0.92
671.427	-1.92
671.459	8.08
671.49	13.08
671.521	6.08
671.553	-7.92
671.584	0.08
671.615	-15.92
671.646	5.08
671.678	-14.92
671.709	0.08
671.74	-15.92
671.771	-16.92
671.803	-3.92
671.834	1.08
671.865	-9.92
671.896	-7.92
671.928	12.08
671.959	-2.92
671.99	-5.92
672.021	4.08
672.053	-12.92
672.084	3.08
672.115	12.08
672.146	-1.92
672.178	-29.92
672.209	-10.92
672.24	-13.92
672.271	26.08
672.303	8.08
672.334	1.08
672.365	-10.92
672.396	-11.92
672.427	5.08
672.459	21.08
672.49	25.08
672.521	7.08
672.552	3.08
672.583	8.08
672.615	-8.92
672.646	8.08
672.677	-7.92
672.708	-10.92
672.739	7.08
672.77	12.08
672.802	-4.92
672.833	1.08
672.864	-4.92
672.895	13.08
672.926	-1.92
672.957	-32.92
672.989	-11.92
673.02	1.08
673.051	-15.92
673.082	7.08
673.113	-2.92
673.144	16.08
673.175	1.08
673.206	-8.92
673.238	7.08
673.269	12.08
673.3	4.08
673.331	7.08
673.362	-10.92
673.393	-7.92
673.424	1.08
673.455	28.08
673.487	5.08
673.518	17.08
673.549	-4.92
673.58	-13.92
673.611	1.08
673.642	8.08
673.673	-25.92
673.704	1.08
673.735	-0.92
673.766	-13.92
673.797	-4.92
673.828	-4.92
673.86	-21.92
673.891	-5.92
673.922	-5.92
673.953	-12.92
673.984	4.08
674.015	13.08
674.046	8.08
674.077	-6.92
674.108	-5.92
674.139	-2.92
674.17	-7.92
674.201	0.08
674.232	-4.92
674.263	-16.92
674.294	-2.92
674.325	-10.92
674.356	27.08
674.387	3.08
674.418	6.08
674.449	-11.92
674.48	-10.92
674.511	-11.92
674.542	12.08
674.573	-9.92
674.604	4.08
674.635	-4.92
674.666	13.08
674.697	1.08
674.728	-15.92
674.759	1.08
674.79	-18.92
674.821	-12.92
674.852	5.08
674.883	-3.92
674.914	-16.92
674.945	-12.92
674.976	1.08
675.007	4.08
675.038	-16.92
675.069	-24.92
675.1	-12.92
675.131	-5.92
675.162	-1.92
675.193	5.08
675.224	15.08
675.254	10.08
675.285	-1.92
675.316	7.08
675.347	2.08
675.378	1.08
675.409	-8.92
675.44	-11.92
675.471	-7.92
675.502	-4.92
675.533	-14.92
675.564	-6.92
675.595	-3.92
675.625	5.08
675.656	22.08
675.687	-1.92
675.718	-10.92
675.749	10.08
675.78	-2.92
675.811	2.08
675.842	11.08
675.873	-0.92
675.903	-3.92
675.934	3.08
675.965	-12.92
675.996	-7.92
676.027	8.08
676.058	-6.92
676.089	-1.92
676.119	5.08
676.15	7.08
676.181	9.08
676.212	0.08
676.243	5.08
676.274	-1.92
676.304	17.08
676.335	-16.92
676.366	7.08
676.397	-21.92
676.428	14.08
676.459	4.08
676.489	18.08
676.52	0.08
676.551	-1.92
676.582	-3.92
676.613	14.08
676.643	-15.92
676.674	20.08
676.705	7.08
676.736	-3.92
676.767	9.08
676.797	8.08
676.828	11.08
676.859	1.08
676.89	-16.92
676.92	1.08
676.951	7.08
676.982	3.08
677.013	-12.92
677.044	0.08
677.074	2.08
677.105	-3.92
677.136	1.08
677.167	1.08
677.197	12.08
677.228	11.08
677.259	8.08
677.289	2.08
677.32	-15.92
677.351	-13.92
677.382	-18.92
677.412	-20.92
677.443	6.08
677.474	1.08
677.505	-0.92
677.535	2.08
677.566	-31.92
677.597	-9.92
677.627	0.08
677.658	-1.92
677.689	-0.92
677.72	10.08
677.75	-1.92
677.781	12.08
677.812	7.08
677.842	2.08
677.873	-5.92
677.904	6.08
677.934	15.08
677.965	8.08
677.996	-28.92
678.026	2.08
678.057	-1.92
678.088	-24.92
678.118	-1.92
678.149	-0.92
678.18	1.08
678.21	1.08
678.241	-2.92
678.272	-0.92
678.302	-3.92
678.333	-5.92
678.363	-0.92
678.394	-6.92
678.425	-10.92
678.455	-7.92
678.486	-1.92
678.517	-0.92
678.547	-6.92
678.578	-1.92
678.608	-13.92
678.639	7.08
678.67	3.08
678.7	-0.92
678.731	0.08
678.761	3.08
678.792	0.08
678.823	7.08
678.853	1.08
678.884	2.08
678.914	7.08
678.945	-1.92
678.975	-9.92
679.006	2.08
679.037	-5.92
679.067	27.08
679.098	9.08
679.128	-6.92
679.159	1.08
679.189	6.08
679.22	2.08
679.25	13.08
679.281	9.08
679.312	2.08
679.342	-6.92
679.373	13.08
679.403	0.08
679.434	7.08
679.464	2.08
679.495	-15.92
679.525	1.08
679.556	-9.92
679.586	8.08
679.617	1.08
679.647	-17.92
679.678	2.08
679.708	-0.92
679.739	4.08
679.769	-7.92
679.8	-0.92
679.83	4.08
679.861	15.08
679.891	6.08
679.922	-11.92
679.952	-12.92
679.983	0.08
680.013	12.08
680.044	2.08
680.074	1.08
680.105	12.08
680.135	21.08
680.165	3.08
680.196	4.08
680.226	-3.92
680.257	10.08
680.287	3.08
680.318	-6.92
680.348	-7.92
680.379	9.08
680.409	2.08
680.439	-4.92
680.47	-0.92
680.5	-0.92
680.531	-3.92
680.561	10.08
680.592	9.08
680.622	10.08
680.652	-4.92
680.683	28.08
680.713	1.08
680.744	-4.92
680.774	-8.92
680.804	10.08
680.835	4.08
680.865	-7.92
680.896	17.08
680.926	7.08
680.956	-11.92
680.987	5.08
681.017	13.08
681.047	31.08
681.078	2.08
681.108	7.08
681.139	4.08
681.169	-1.92
681.199	3.08
681.23	9.08
681.26	-1.92
681.29	9.08
681.321	-17.92
681.351	-3.92
681.381	-13.92
681.412	11.08
681.442	-11.92
681.472	9.08
681.503	4.08
681.533	11.08
681.563	17.08
681.594	9.08
681.624	2.08
681.654	-7.92
681.685	-12.92
681.715	-17.92
681.745	4.08
681.775	-4.92
681.806	0.08
681.836	4.08
681.866	-9.92
681.897	-2.92
681.927	-7.92
681.957	0.08
681.987	15.08
682.018	-10.92
682.048	11.08
682.078	13.08
682.109	16.08
682.139	11.08
682.169	-6.92
682.199	3.08
682.23	-8.92
682.26	8.08
682.29	6.08
682.32	-18.92
682.351	-0.92
682.381	7.08
682.411	-5.92
682.441	-4.92
682.472	-15.92
682.502	4.08
682.532	2.08
682.562	-11.92
682.592	2.08
682.623	17.08
682.653	10.08
682.683	-0.92
682.713	-1.92
682.743	5.08
682.774	-11.92
682.804	-0.92
682.834	18.08
682.864	-4.92
682.894	0.08
682.925	-7.92
682.955	-2.92
682.985	-13.92
683.015	4.08
683.045	10.08
683.076	-10.92
683.106	6.08
683.136	-5.92
683.166	-16.92
683.196	-1.92
683.226	-0.92
683.257	-6.92
683.287	-10.92
683.317	-7.92
683.347	-19.92
683.377	-9.92
683.407	0.08
683.437	-3.92
683.468	27.08
683.498	1.08
683.528	13.08
683.558	2.08
683.588	-3.92
683.618	-13.92
683.648	-5.92
683.678	-1.92
683.708	-1.92
683.739	5.08
683.769	-7.92
683.799	-9.92
683.829	7.08
683.859	15.08
683.889	13.08
683.919	4.08
683.949	4.08
683.979	-7.92
684.009	-13.92
684.039	1.08
684.07	-11.92
684.1	14.08
684.13	-0.92
684.16	-0.92
684.19	-6.92
684.22	20.08
684.25	1.08
684.28	-6.92
684.31	20.08
684.34	15.08
684.37	8.08
684.4	-8.92
684.43	6.08
684.46	-1.92
684.49	3.08
684.52	1.08
684.55	8.08
684.58	1.08
684.61	8.08
684.64	1.08
684.67	12.08
684.7	7.08
684.73	14.08
684.76	0.08
684.79	19.08
684.82	4.08
684.85	-8.92
684.88	4.08
684.91	-3.92
684.94	7.08
684.97	-19.92
685	-10.92
685.03	-6.92
685.06	-3.92
685.09	1.08
685.12	4.08
685.15	-3.92
685.18	3.08
685.21	-3.92
685.24	2.08
685.27	-8.92
685.3	-3.92
685.33	15.08
685.36	0.08
685.39	1.08
685.42	2.08
685.45	-0.92
685.48	4.08
685.51	-0.92
685.54	-1.92
685.569	12.08
685.599	1.08
685.629	22.08
685.659	6.08
685.689	3.08
685.719	3.08
685.749	-7.92
685.779	12.08
685.809	4.08
685.839	-4.92
685.869	2.08
685.898	13.08
685.928	-3.92
685.958	-3.92
685.988	11.08
686.018	6.08
686.048	17.08
686.078	19.08
686.108	12.08
686.137	-5.92
686.167	8.08
686.197	4.08
686.227	-15.92
686.257	13.08
686.287	11.08
686.317	12.08
686.346	-16.92
686.376	-22.92
686.406	-10.92
686.436	7.08
686.466	-10.92
686.496	12.08
686.525	10.08
686.555	-3.92
686.585	13.08
686.615	20.08
686.645	8.08
686.675	8.08
686.704	1.08
686.734	0.08
686.764	-0.92
686.794	0.08
686.824	2.08
686.853	8.08
686.883	15.08
686.913	8.08
686.943	-1.92
686.973	-11.92
687.002	-5.92
687.032	3.08
687.062	1.08
687.092	7.08
687.121	-1.92
687.151	7.08
687.181	-13.92
687.211	3.08
687.24	6.08
687.27	-0.92
687.3	-12.92
687.33	9.08
687.359	1.08
687.389	3.08
687.419	9.08
687.449	4.08
687.478	-7.92
687.508	-7.92
687.538	7.08
687.568	4.08
687.597	5.08
687.627	10.08
687.657	9.08
687.686	-1.92
687.716	-3.92
687.746	-12.92
687.776	-5.92
687.805	1.08
687.835	2.08
687.865	2.08
687.894	6.08
687.924	-6.92
687.954	5.08
687.983	3.08
688.013	9.08
688.043	3.08
688.072	5.08
688.102	4.08
688.132	-2.92
688.161	1.08
688.191	-10.92
688.221	10.08
688.25	-8.92
688.28	12.08
688.31	-2.92
688.339	5.08
688.369	-28.92
688.399	-5.92
688.428	5.08
688.458	7.08
688.488	3.08
688.517	8.08
688.547	9.08
688.576	26.08
688.606	6.08
688.636	-7.92
688.665	-0.92
688.695	6.08
688.725	0.08
688.754	14.08
688.784	-0.92
688.813	16.08
688.843	10.08
688.873	6.08
688.902	6.08
688.932	-4.92
688.961	3.08
688.991	4.08
689.02	9.08
689.05	-12.92
689.08	9.08
689.109	1.08
689.139	4.08
689.168	11.08
689.198	6.08
689.227	-11.92
689.257	5.08
689.287	17.08
689.316	-4.92
689.346	1.08
689.375	-20.92
689.405	11.08
689.434	-14.92
689.464	-5.92
689.493	-5.92
689.523	3.08
689.552	-12.92
689.582	2.08
689.611	-6.92
689.641	3.08
689.67	2.08
689.7	5.08
689.73	19.08
689.759	17.08
689.789	6.08
689.818	0.08
689.848	4.08
689.877	7.08
689.906	-3.92
689.936	6.08
689.965	4.08
689.995	-0.92
690.024	-2.92
690.054	-4.92
690.083	-1.92
690.113	9.08
690.142	2.08
690.172	-4.92
690.201	7.08
690.231	5.08
690.26	0.08
690.29	13.08
690.319	2.08
690.348	1.08
690.378	-8.92
690.407	8.08
690.437	-5.92
690.466	-13.92
690.496	4.08
690.525	9.08
690.555	-18.92
690.584	-5.92
690.613	7.08
690.643	7.08
690.672	12.08
690.702	2.08
690.731	-7.92
690.76	8.08
690.79	-7.92
690.819	-2.92
690.849	-0.92
690.878	4.08
690.907	1.08
690.937	11.08
690.966	-0.92
690.996	4.08
691.025	-10.92
691.054	-0.92
691.084	0.08
691.113	4.08
691.142	1.08
691.172	10.08
691.201	8.08
691.23	10.08
691.26	10.08
691.289	-3.92
691.319	-21.92
691.348	-1.92
691.377	26.08
691.407	10.08
691.436	-0.92
691.465	-5.92
691.495	-6.92
691.524	-12.92
691.553	-14.92
691.583	-9.92
691.612	-4.92
691.641	10.08
691.67	12.08
691.7	10.08
691.729	4.08
691.758	-10.92
691.788	-1.92
691.817	3.08
691.846	9.08
691.876	15.08
691.905	1.08
691.934	-2.92
691.963	15.08
691.993	7.08
692.022	6.08
692.051	-16.92
692.081	9.08
692.11	36.08
692.139	-1.92
692.168	11.08
692.198	16.08
692.227	8.08
692.256	-3.92
692.285	3.08
692.315	14.08
692.344	2.08
692.373	3.08
692.402	-6.92
692.432	-0.92
692.461	-0.92
692.49	10.08
692.519	-1.92
692.548	12.08
692.578	3.08
692.607	-7.92
692.636	-8.92
692.665	21.08
692.694	-4.92
692.724	-11.92
692.753	17.08
692.782	-3.92
692.811	-12.92
692.84	3.08
692.87	1.08
692.899	0.08
692.928	7.08
692.957	2.08
692.986	-0.92
693.016	-3.92
693.045	-13.92
693.074	4.08
693.103	-2.92
693.132	6.08
693.161	-0.92
693.191	-3.92
693.22	-9.92
693.249	-0.92
693.278	17.08
693.307	22.08
693.336	4.08
693.365	-13.92
693.395	-18.92
693.424	7.08
693.453	12.08
693.482	8.08
693.511	6.08
693.54	5.08
693.569	3.08
693.598	7.08
693.628	29.08
693.657	0.08
693.686	19.08
693.715	4.08
693.744	18.08
693.773	18.08
693.802	14.08
693.831	1.08
693.86	16.08
693.889	12.08
693.919	4.08
693.948	7.08
693.977	3.08
694.006	-4.92
694.035	-4.92
694.064	-3.92
694.093	6.08
694.122	-10.92
694.151	-9.92
694.18	8.08
694.209	22.08
694.238	13.08
694.267	30.08
694.296	24.08
694.325	7.08
694.354	1.08
694.383	8.08
694.412	-0.92
694.441	-4.92
694.471	-7.92
694.5	-16.92
694.529	3.08
694.558	13.08
694.587	17.08
694.616	2.08
694.645	-2.92
694.674	22.08
694.703	15.08
694.732	4.08
694.761	3.08
694.79	-6.92
694.819	-11.92
694.848	-0.92
694.877	26.08
694.906	25.08
694.935	4.08
694.963	8.08
694.992	-1.92
695.021	2.08
695.05	11.08
695.079	3.08
695.108	3.08
695.137	11.08
695.166	0.08
695.195	-2.92
695.224	1.08
695.253	-2.92
695.282	-0.92
695.311	9.08
695.34	-3.92
695.369	-1.92
695.398	8.08
695.427	17.08
695.456	-11.92
695.485	-10.92
695.513	10.08
695.542	1.08
695.571	7.08
695.6	6.08
695.629	-3.92
695.658	6.08
695.687	5.08
695.716	-4.92
695.745	39.08
695.774	-5.92
695.802	2.08
695.831	18.08
695.86	13.08
695.889	7.08
695.918	15.08
695.947	7.08
695.976	7.08
696.005	4.08
696.033	10.08
696.062	5.08
696.091	1.08
696.12	13.08
696.149	16.08
696.178	7.08
696.207	-4.92
696.235	-22.92
696.264	13.08
696.293	12.08
696.322	8.08
696.351	4.08
696.38	-11.92
696.408	4.08
696.437	9.08
696.466	17.08
696.495	15.08
696.524	23.08
696.553	18.08
696.581	8.08
696.61	6.08
696.639	2.08
696.668	-4.92
696.697	3.08
696.725	9.08
696.754	-8.92
696.783	-4.92
696.812	-15.92
696.84	-1.92
696.869	13.08
696.898	2.08
696.927	-2.92
696.956	9.08
696.984	-5.92
697.013	14.08
697.042	-8.92
697.071	6.08
697.099	18.08
697.128	15.08
697.157	2.08
697.186	5.08
697.214	3.08
697.243	-1.92
697.272	0.08
697.301	0.08
697.329	6.08
697.358	15.08
697.387	7.08
697.415	2.08
697.444	-4.92
697.473	-3.92
697.502	5.08
697.53	15.08
697.559	-16.92
697.588	17.08
697.616	4.08
697.645	0.08
697.674	-3.92
697.703	-2.92
697.731	10.08
697.76	9.08
697.789	-7.92
697.817	1.08
697.846	8.08
697.875	-0.92
697.903	8.08
697.932	0.08
697.961	-1.92
697.989	-4.92
698.018	1.08
698.047	-0.92
698.075	5.08
698.104	-2.92
698.133	0.08
698.161	-6.92
698.19	-11.92
698.218	-8.92
698.247	-0.92
698.276	1.08
698.304	-3.92
698.333	14.08
698.362	1.08
698.39	-1.92
698.419	2.08
698.447	-2.92
698.476	0.08
698.505	-8.92
698.533	7.08
698.562	9.08
698.591	-13.92
698.619	-7.92
698.648	-3.92
698.676	7.08
698.705	3.08
698.733	-9.92
698.762	-0.92
698.791	6.08
698.819	-0.92
698.848	0.08
698.876	12.08
698.905	3.08
698.933	11.08
698.962	9.08
698.991	14.08
699.019	32.08
699.048	6.08
699.076	9.08
699.105	-8.92
699.133	1.08
699.162	6.08
699.19	21.08
699.219	27.08
699.248	0.08
699.276	-4.92
699.305	3.08
699.333	8.08
699.362	-6.92
699.39	4.08
699.419	-6.92
699.447	-0.92
699.476	15.08
699.504	10.08
699.533	-3.92
699.561	-17.92
699.59	-3.92
699.618	8.08
699.647	-9.92
699.675	-13.92
699.704	7.08
699.732	8.08
699.761	5.08
699.789	-7.92
699.818	-3.92
699.846	-5.92
699.874	12.08
699.903	-6.92
699.931	-5.92
699.96	1.08
699.988	-3.92
700.017	4.08
700.045	1.08
700.074	-7.92
700.102	5.08
700.13	-4.92
700.159	8.08
700.187	10.08
700.216	-0.92
700.244	-13.92
700.273	20.08
700.301	18.08
700.329	26.08
700.358	18.08
700.386	-4.92
700.415	4.08
700.443	15.08
700.472	-10.92
700.5	21.08
700.528	9.08
700.557	1.08
700.585	1.08
700.614	-0.92
700.642	7.08
700.67	10.08
700.699	11.08
700.727	-2.92
700.755	10.08
700.784	11.08
700.812	6.08
700.841	-1.92
700.869	0.08
700.897	-12.92
700.926	-2.92
700.954	-0.92
700.982	14.08
701.011	8.08
701.039	12.08
701.067	-13.92
701.096	13.08
701.124	-4.92
701.152	6.08
701.181	-7.92
701.209	-11.92
701.237	0.08
701.266	-14.92
701.294	1.08
701.322	0.08
701.351	7.08
701.379	3.08
701.407	-17.92
701.435	-6.92
701.464	13.08
701.492	16.08
701.52	-5.92
701.549	0.08
701.577	-7.92
701.605	-18.92
701.634	3.08
701.662	6.08
701.69	-10.92
701.718	-7.92
701.747	12.08
701.775	2.08
701.803	-13.92
701.831	8.08
701.86	-0.92
701.888	3.08
701.916	-2.92
701.944	4.08
701.973	1.08
702.001	-24.92
702.029	-1.92
702.057	5.08
702.086	-4.92
702.114	-0.92
702.142	5.08
702.17	-26.92
702.199	-11.92
702.227	5.08
702.255	-7.92
702.283	-4.92
702.311	18.08
702.34	11.08
702.368	-0.92
702.396	-3.92
702.424	-4.92
702.452	-4.92
702.481	-6.92
702.509	2.08
702.537	5.08
702.565	-8.92
702.593	0.08
702.621	9.08
702.65	19.08
702.678	4.08
702.706	5.08
702.734	-5.92
702.762	-0.92
702.79	1.08
702.819	0.08
702.847	8.08
702.875	11.08
702.903	12.08
702.931	-0.92
702.959	-4.92
702.988	10.08
703.016	-4.92
703.044	-8.92
703.072	-7.92
703.1	-17.92
703.128	-2.92
703.156	10.08
703.184	-16.92
703.212	2.08
703.241	2.08
703.269	5.08
703.297	5.08
703.325	8.08
703.353	-9.92
703.381	-6.92
703.409	19.08
703.437	4.08
703.465	-1.92
703.493	-16.92
703.522	7.08
703.55	3.08
703.578	-1.92
703.606	-5.92
703.634	7.08
703.662	-2.92
703.69	-1.92
703.718	-8.92
703.746	17.08
703.774	6.08
703.802	27.08
703.83	12.08
703.858	0.08
703.886	0.08
703.914	-1.92
703.942	16.08
703.97	2.08
703.998	4.08
704.027	21.08
704.055	6.08
704.083	9.08
704.111	-4.92
704.139	4.08
704.167	-8.92
704.195	3.08
704.223	-6.92
704.251	-11.92
704.279	13.08
704.307	-1.92
704.335	-15.92
704.363	-4.92
704.391	-15.92
704.419	-5.92
704.447	-5.92
704.475	5.08
704.503	6.08
704.531	6.08
704.558	4.08
704.586	3.08
704.614	1.08
704.642	4.08
704.67	-10.92
704.698	-7.92
704.726	4.08
704.754	1.08
704.782	9.08
704.81	-1.92
704.838	15.08
704.866	0.08
704.894	-15.92
704.922	-7.92
704.95	10.08
704.978	18.08
705.006	3.08
705.034	20.08
705.061	-12.92
705.089	-0.92
705.117	-13.92
705.145	1.08
705.173	8.08
705.201	3.08
705.229	1.08
705.257	0.08
705.285	-11.92
705.313	-4.92
705.34	-0.92
705.368	-8.92
705.396	18.08
705.424	1.08
705.452	-2.92
705.48	5.08
705.508	-17.92
705.536	-0.92
705.563	-5.92
705.591	9.08
705.619	3.08
705.647	-3.92
705.675	-5.92
705.703	-5.92
705.731	5.08
705.758	1.08
705.786	3.08
705.814	16.08
705.842	-3.92
705.87	0.08
705.898	3.08
705.925	-2.92
705.953	3.08
705.981	-12.92
706.009	-4.92
706.037	2.08
706.065	6.08
706.092	-12.92
706.12	10.08
706.148	-0.92
706.176	-2.92
706.204	15.08
706.231	4.08
706.259	2.08
706.287	-6.92
706.315	-6.92
706.342	-19.92
706.37	-5.92
706.398	-11.92
706.426	-4.92
706.454	-12.92
706.481	22.08
706.509	2.08
706.537	1.08
706.565	1.08
706.592	8.08
706.62	1.08
706.648	-5.92
706.676	-10.92
706.703	-2.92
706.731	-6.92
706.759	-7.92
706.787	11.08
706.814	-0.92
706.842	-13.92
706.87	3.08
706.897	-6.92
706.925	-11.92
706.953	13.08
706.981	5.08
707.008	8.08
707.036	-12.92
707.064	-0.92
707.091	-4.92
707.119	4.08
707.147	-4.92
707.174	-10.92
707.202	-3.92
707.23	-16.92
707.258	-3.92
707.285	-11.92
707.313	-6.92
707.341	-4.92
707.368	-6.92
707.396	7.08
707.424	19.08
707.451	3.08
707.479	-2.92
707.507	-4.92
707.534	-2.92
707.562	3.08
707.59	-21.92
707.617	-22.92
707.645	-7.92
707.672	3.08
707.7	3.08
707.728	2.08
707.755	-1.92
707.783	9.08
707.811	3.08
707.838	0.08
707.866	4.08
707.893	13.08
707.921	-0.92
707.949	3.08
707.976	-6.92
708.004	2.08
708.031	5.08
708.059	-8.92
708.087	-4.92
708.114	-1.92
708.142	-8.92
708.169	-7.92
708.197	-11.92
708.225	-3.92
708.252	4.08
708.28	17.08
708.307	5.08
708.335	4.08
708.362	27.08
708.39	-5.92
708.418	1.08
708.445	-6.92
708.473	2.08
708.5	10.08
708.528	19.08
708.555	-4.92
708.583	-3.92
708.61	-1.92
708.638	18.08
708.665	-8.92
708.693	-4.92
708.72	5.08
708.748	-2.92
708.776	3.08
708.803	9.08
708.831	5.08
708.858	14.08
708.886	2.08
708.913	-7.92
708.941	-6.92
708.968	-0.92
708.996	-7.92
709.023	22.08
709.051	-14.92
709.078	-5.92
709.105	-1.92
709.133	-4.92
709.16	-2.92
709.188	4.08
709.215	-4.92
709.243	-1.92
709.27	-10.92
709.298	-5.92
709.325	8.08
709.353	13.08
709.38	3.08
709.408	8.08
709.435	-5.92
709.462	1.08
709.49	-1.92
709.517	6.08
709.545	-5.92
709.572	-11.92
709.6	5.08
709.627	12.08
709.655	-3.92
709.682	-1.92
709.709	6.08
709.737	0.08
709.764	-3.92
709.792	16.08
709.819	9.08
709.846	-4.92
709.874	-7.92
709.901	2.08
709.929	15.08
709.956	-3.92
709.983	-14.92
710.011	2.08
710.038	6.08
710.066	4.08
710.093	4.08
710.12	0.08
710.148	1.08
710.175	10.08
710.202	6.08
710.23	3.08
710.257	8.08
710.284	-10.92
710.312	6.08
710.339	-18.92
710.366	-4.92
710.394	-2.92
710.421	5.08
710.448	-17.92
710.476	-15.92
710.503	4.08
710.53	7.08
710.558	16.08
710.585	-2.92
710.612	2.08
710.64	-6.92
710.667	2.08
710.694	-7.92
710.722	-7.92
710.749	0.08
710.776	0.08
710.804	13.08
710.831	-7.92
710.858	-3.92
710.885	-3.92
710.913	-1.92
710.94	12.08
710.967	1.08
710.995	-2.92
711.022	-11.92
711.049	-5.92
711.076	-10.92
711.104	-0.92
711.131	-4.92
711.158	8.08
711.185	1.08
711.213	-9.92
711.24	-14.92
711.267	-4.92
711.294	8.08
711.322	0.08
711.349	-0.92
711.376	8.08
711.403	3.08
711.431	-10.92
711.458	-5.92
711.485	-11.92
711.512	7.08
711.54	3.08
711.567	6.08
711.594	4.08
711.621	-3.92
711.648	-12.92
711.676	6.08
711.703	-3.92
711.73	-7.92
711.757	-2.92
711.784	-5.92
711.812	-13.92
711.839	-1.92
711.866	3.08
711.893	-23.92
711.92	-7.92
711.947	3.08
711.975	10.08
712.002	1.08
712.029	18.08
712.056	15.08
712.083	6.08
712.11	-17.92
712.138	2.08
712.165	19.08
712.192	17.08
712.219	-0.92
712.246	4.08
712.273	6.08
712.3	1.08
712.328	-1.92
712.355	7.08
712.382	-2.92
712.409	5.08
712.436	-16.92
712.463	9.08
712.49	11.08
712.517	-7.92
712.544	-4.92
712.572	-8.92
712.599	-4.92
712.626	-6.92
712.653	2.08
712.68	-3.92
712.707	14.08
712.734	29.08
712.761	-4.92
712.788	6.08
712.815	-6.92
712.842	5.08
712.87	3.08
712.897	-4.92
712.924	-18.92
712.951	4.08
712.978	6.08
713.005	8.08
713.032	3.08
713.059	-7.92
713.086	1.08
713.113	-6.92
713.14	-13.92
713.167	-1.92
713.194	15.08
713.221	-2.92
713.248	28.08
713.275	-3.92
713.302	-5.92
713.329	0.08
713.356	6.08
713.383	6.08
713.41	-6.92
713.437	-0.92
713.464	-2.92
713.491	5.08
713.518	-0.92
713.545	-5.92
713.572	4.08
713.599	8.08
713.626	0.08
713.653	10.08
713.68	-3.92
713.707	5.08
713.734	8.08
713.761	1.08
713.788	-10.92
713.815	2.08
713.842	-8.92
713.869	-14.92
713.896	-1.92
713.923	4.08
713.95	-3.92
713.977	-3.92
714.004	-5.92
714.031	-4.92
714.058	-11.92
714.085	3.08
714.112	13.08
714.139	-13.92
714.165	-1.92
714.192	-4.92
714.219	4.08
714.246	5.08
714.273	10.08
714.3	1.08
714.327	0.08
714.354	3.08
714.381	16.08
714.408	6.08
714.435	-0.92
714.461	-10.92
714.488	7.08
714.515	-7.92
714.542	-11.92
714.569	-11.92
714.596	-2.92
714.623	-9.92
714.65	2.08
714.677	-2.92
714.703	1.08
714.73	7.08
714.757	4.08
714.784	-4.92
714.811	-5.92
714.838	12.08
714.865	-3.92
714.891	22.08
714.918	-4.92
714.945	-11.92
714.972	-14.92
714.999	15.08
715.026	-8.92
715.052	7.08
715.079	3.08
715.106	4.08
715.133	16.08
715.16	4.08
715.187	16.08
715.213	15.08
715.24	-1.92
715.267	10.08
715.294	-4.92
715.321	-4.92
715.347	-10.92
715.374	-11.92
715.401	0.08
715.428	-2.92
715.455	-10.92
715.481	-16.92
715.508	14.08
715.535	-9.92
715.562	28.08
715.588	22.08
715.615	-5.92
715.642	-15.92
715.669	13.08
715.695	-4.92
715.722	-6.92
715.749	-7.92
715.776	14.08
715.802	11.08
715.829	5.08
715.856	-12.92
715.883	-7.92
715.909	-14.92
715.936	-5.92
715.963	2.08
715.99	-7.92
716.016	-4.92
716.043	10.08
716.07	1.08
716.096	-1.92
716.123	-14.92
716.15	-15.92
716.177	14.08
716.203	4.08
716.23	15.08
716.257	15.08
716.283	24.08
716.31	-1.92
716.337	0.08
716.363	-8.92
716.39	11.08
716.417	16.08
716.443	-0.92
716.47	2.08
716.497	18.08
716.523	14.08
716.55	-5.92
716.577	3.08
716.603	-13.92
716.63	3.08
716.657	8.08
716.683	-16.92
716.71	-6.92
716.737	-0.92
716.763	11.08
716.79	4.08
716.817	3.08
716.843	11.08
716.87	5.08
716.897	3.08
716.923	12.08
716.95	-11.92
716.976	-9.92
717.003	-10.92
717.03	1.08
717.056	9.08
717.083	0.08
717.109	-13.92
717.136	0.08
717.163	-8.92
717.189	0.08
717.216	-3.92
717.242	-13.92
717.269	5.08
717.296	-1.92
717.322	14.08
717.349	13.08
717.375	12.08
717.402	-7.92
717.428	2.08
717.455	21.08
717.481	-6.92
717.508	23.08
717.535	-1.92
717.561	-2.92
717.588	-8.92
717.614	-0.92
717.641	10.08
717.667	14.08
717.694	2.08
717.72	8.08
717.747	16.08
717.773	-9.92
717.8	8.08
717.826	15.08
717.853	11.08
717.88	9.08
717.906	10.08
717.933	3.08
717.959	5.08
717.986	3.08
718.012	-9.92
718.039	15.08
718.065	11.08
718.092	7.08
718.118	-8.92
718.144	-4.92
718.171	20.08
718.197	17.08
718.224	8.08
718.25	7.08
718.277	5.08
718.303	11.08
718.33	4.08
718.356	-3.92
718.383	-4.92
718.409	7.08
718.436	1.08
718.462	-6.92
718.489	-1.92
718.515	2.08
718.541	13.08
718.568	8.08
718.594	6.08
718.621	11.08
718.647	4.08
718.674	10.08
718.7	10.08
718.726	-11.92
718.753	4.08
718.779	9.08
718.806	-11.92
718.832	5.08
718.858	9.08
718.885	-7.92
718.911	3.08
718.938	10.08
718.964	-16.92
718.99	-2.92
719.017	-3.92
719.043	3.08
719.07	11.08
719.096	6.08
719.122	19.08
719.149	-0.92
719.175	18.08
719.201	9.08
719.228	7.08
719.254	7.08
719.281	-11.92
719.307	-10.92
719.333	-4.92
719.36	7.08
719.386	-6.92
719.412	7.08
719.439	-28.92
719.465	1.08
719.491	1.08
719.518	5.08
719.544	3.08
719.57	10.08
719.597	-3.92
719.623	-12.92
719.649	3.08
719.675	-5.92
719.702	-7.92
719.728	-13.92
719.754	-3.92
719.781	1.08
719.807	-1.92
719.833	2.08
719.86	3.08
719.886	-3.92
719.912	3.08
719.938	-0.92
719.965	-7.92
719.991	8.08
720.017	3.08
720.044	7.08
720.07	5.08
720.096	12.08
720.122	-1.92
720.149	3.08
720.175	19.08
720.201	5.08
720.227	1.08
720.254	2.08
720.28	6.08
720.306	-3.92
720.332	1.08
720.359	1.08
720.385	11.08
720.411	3.08
720.437	10.08
720.463	4.08
720.49	16.08
720.516	7.08
720.542	-9.92
720.568	-8.92
720.595	19.08
720.621	3.08
720.647	-1.92
720.673	2.08
720.699	-1.92
720.725	4.08
720.752	11.08
720.778	11.08
720.804	6.08
720.83	6.08
720.856	3.08
720.883	0.08
720.909	-5.92
720.935	7.08
720.961	11.08
720.987	11.08
721.013	-3.92
721.04	2.08
721.066	-5.92
721.092	12.08
721.118	-0.92
721.144	3.08
721.17	-1.92
721.196	8.08
721.223	3.08
721.249	-13.92
721.275	16.08
721.301	6.08
721.327	10.08
721.353	12.08
721.379	-1.92
721.405	7.08
721.432	7.08
721.458	-8.92
721.484	10.08
721.51	-3.92
721.536	2.08
721.562	1.08
721.588	2.08
721.614	-10.92
721.64	-4.92
721.666	-9.92
721.693	-1.92
721.719	-6.92
721.745	5.08
721.771	3.08
721.797	7.08
721.823	14.08
721.849	11.08
721.875	-6.92
721.901	6.08
721.927	-1.92
721.953	6.08
721.979	10.08
722.005	20.08
722.031	-7.92
722.057	-2.92
722.083	10.08
722.109	7.08
722.135	-2.92
722.161	21.08
722.187	10.08
722.214	-2.92
722.24	6.08
722.266	-4.92
722.292	-0.92
722.318	4.08
722.344	-4.92
722.37	3.08
722.396	11.08
722.422	0.08
722.448	0.08
722.474	-10.92
722.5	-5.92
722.526	6.08
722.552	4.08
722.578	-11.92
722.603	9.08
722.629	-6.92
722.655	-3.92
722.681	2.08
722.707	13.08
722.733	-7.92
722.759	-7.92
722.785	0.08
722.811	-0.92
722.837	-3.92
722.863	1.08
722.889	5.08
722.915	-12.92
722.941	-4.92
722.967	5.08
722.993	6.08
723.019	6.08
723.045	14.08
723.071	-0.92
723.097	2.08
723.122	-4.92
723.148	-4.92
723.174	-6.92
723.2	11.08
723.226	5.08
723.252	15.08
723.278	-10.92
723.304	-9.92
723.33	-0.92
723.356	-7.92
723.381	-0.92
723.407	-9.92
723.433	-2.92
723.459	-5.92
723.485	-8.92
723.511	7.08
723.537	-12.92
723.563	-2.92
723.588	-9.92
723.614	8.08
723.64	6.08
723.666	1.08
723.692	0.08
723.718	1.08
723.744	6.08
723.769	1.08
723.795	7.08
723.821	11.08
723.847	-0.92
723.873	7.08
723.899	12.08
723.924	-1.92
723.95	2.08
723.976	-12.92
724.002	1.08
724.028	3.08
724.053	-2.92
724.079	0.08
724.105	1.08
724.131	-12.92
724.157	7.08
724.182	0.08
724.208	2.08
724.234	-5.92
724.26	0.08
724.286	9.08
724.311	10.08
724.337	-8.92
724.363	-1.92
724.389	8.08
724.415	0.08
724.44	23.08
724.466	-6.92
724.492	-5.92
724.518	-3.92
724.543	-1.92
724.569	3.08
724.595	11.08
724.621	9.08
724.646	-4.92
724.672	-6.92
724.698	-11.92
724.723	-5.92
724.749	-2.92
724.775	15.08
724.801	-7.92
724.826	-11.92
724.852	-13.92
724.878	-1.92
724.904	-13.92
724.929	-5.92
724.955	-23.92
724.981	1.08
725.006	-4.92
725.032	2.08
725.058	3.08
725.083	0.08
725.109	-2.92
725.135	7.08
725.161	2.08
725.186	2.08
725.212	14.08
725.238	8.08
725.263	-11.92
725.289	-15.92
725.315	-7.92
725.34	-14.92
725.366	11.08
725.392	-7.92
725.417	-10.92
725.443	6.08
725.468	3.08
725.494	6.08
725.52	15.08
725.545	-0.92
725.571	-10.92
725.597	2.08
725.622	1.08
725.648	-11.92
725.674	-1.92
725.699	-1.92
725.725	-0.92
725.75	21.08
725.776	-20.92
725.802	5.08
725.827	-0.92
725.853	-8.92
725.878	11.08
725.904	-4.92
725.93	3.08
725.955	-2.92
725.981	0.08
726.006	-6.92
726.032	15.08
726.057	-6.92
726.083	-3.92
726.109	8.08
726.134	-2.92
726.16	3.08
726.185	4.08
726.211	-5.92
726.236	5.08
726.262	-13.92
726.288	-4.92
726.313	0.08
726.339	21.08
726.364	10.08
726.39	9.08
726.415	1.08
726.441	-2.92
726.466	-6.92
726.492	6.08
726.517	2.08
726.543	4.08
726.568	-5.92
726.594	7.08
726.619	-0.92
726.645	-6.92
726.67	-11.92
726.696	14.08
726.721	7.08
726.747	-12.92
726.772	-13.92
726.798	4.08
726.823	11.08
726.849	-8.92
726.874	12.08
726.9	33.08
726.925	-4.92
726.951	-1.92
726.976	0.08
727.002	-5.92
727.027	7.08
727.053	-5.92
727.078	-9.92
727.104	-13.92
727.129	-23.92
727.155	-3.92
727.18	-8.92
727.205	7.08
727.231	-3.92
727.256	9.08
727.282	-0.92
727.307	11.08
727.333	-3.92
727.358	-4.92
727.383	-11.92
727.409	-3.92
727.434	8.08
727.46	-1.92
727.485	-10.92
727.511	9.08
727.536	-12.92
727.561	4.08
727.587	-7.92
727.612	7.08
727.637	-12.92
727.663	-7.92
727.688	2.08
727.714	-18.92
727.739	-16.92
727.764	3.08
727.79	5.08
727.815	4.08
727.841	8.08
727.866	0.08
727.891	-1.92
727.917	-9.92
727.942	-4.92
727.967	17.08
727.993	-8.92
728.018	3.08
728.043	12.08
728.069	9.08
728.094	7.08
728.119	-5.92
728.145	5.08
728.17	-1.92
728.195	-9.92
728.221	-1.92
728.246	-12.92
728.271	-19.92
728.297	2.08
728.322	-6.92
728.347	9.08
728.373	17.08
728.398	1.08
728.423	-3.92
728.448	-3.92
728.474	-16.92
728.499	-2.92
728.524	-9.92
728.55	-8.92
728.575	-1.92
728.6	1.08
728.625	-2.92
728.651	5.08
728.676	-1.92
728.701	4.08
728.727	-12.92
728.752	-20.92
728.777	2.08
728.802	3.08
728.828	7.08
728.853	-1.92
728.878	15.08
728.903	-5.92
728.929	0.08
728.954	17.08
728.979	11.08
729.004	-0.92
729.03	0.08
729.055	18.08
729.08	-8.92
729.105	-18.92
729.13	-8.92
729.156	-3.92
729.181	-10.92
729.206	-25.92
729.231	-7.92
729.256	8.08
729.282	-4.92
729.307	-16.92
729.332	-7.92
729.357	-8.92
729.382	3.08
729.408	6.08
729.433	-20.92
729.458	-6.92
729.483	4.08
729.508	7.08
729.533	-4.92
729.559	5.08
729.584	0.08
729.609	0.08
729.634	-4.92
729.659	7.08
729.684	-18.92
729.71	13.08
729.735	-0.92
729.76	-10.92
729.785	5.08
729.81	-0.92
729.835	-1.92
729.86	-11.92
729.886	7.08
729.911	5.08
729.936	-4.92
729.961	-0.92
729.986	-6.92
730.011	-5.92
730.036	-3.92
730.061	1.08
730.086	11.08
730.112	6.08
730.137	9.08
730.162	8.08
730.187	-17.92
730.212	3.08
730.237	-11.92
730.262	-17.92
730.287	-1.92
730.312	5.08
730.337	-6.92
730.362	20.08
730.387	-4.92
730.413	-3.92
730.438	-16.92
730.463	-14.92
730.488	-4.92
730.513	-3.92
730.538	-5.92
730.563	14.08
730.588	5.08
730.613	16.08
730.638	0.08
730.663	6.08
730.688	15.08
730.713	5.08
730.738	3.08
730.763	-4.92
730.788	-5.92
730.813	7.08
730.838	5.08
730.863	11.08
730.888	-0.92
730.913	-17.92
730.938	-11.92
730.963	-3.92
730.988	-1.92
731.013	24.08
731.038	-1.92
731.063	-11.92
731.088	-0.92
731.113	-8.92
731.138	-6.92
731.163	-13.92
731.188	-1.92
731.213	2.08
731.238	3.08
731.263	-1.92
731.288	-0.92
731.313	-4.92
731.338	-4.92
731.363	-0.92
731.388	-11.92
731.413	-6.92
731.438	18.08
731.463	18.08
731.487	23.08
731.512	-8.92
731.537	-6.92
731.562	7.08
731.587	-9.92
731.612	3.08
731.637	-8.92
731.662	-2.92
731.687	11.08
731.712	-10.92
731.737	5.08
731.762	-5.92
731.786	-3.92
731.811	1.08
731.836	-7.92
731.861	-1.92
731.886	-16.92
731.911	-6.92
731.936	13.08
731.961	-3.92
731.986	5.08
732.01	10.08
732.035	16.08
732.06	15.08
732.085	1.08
732.11	13.08
732.135	-11.92
732.16	-6.92
732.184	7.08
732.209	-3.92
732.234	3.08
732.259	-10.92
732.284	20.08
732.309	3.08
732.334	14.08
732.358	-7.92
732.383	-5.92
732.408	-9.92
732.433	3.08
732.458	5.08
732.482	5.08
732.507	6.08
732.532	0.08
732.557	6.08
732.582	5.08
732.607	-1.92
732.631	-14.92
732.656	-1.92
732.681	-6.92
732.706	-8.92
732.73	-0.92
732.755	0.08
732.78	1.08
732.805	-0.92
732.83	1.08
732.854	-4.92
732.879	13.08
732.904	3.08
732.929	4.08
732.953	7.08
732.978	-4.92
733.003	-1.92
733.028	-7.92
733.052	-11.92
733.077	-8.92
733.102	5.08
733.127	4.08
733.151	-7.92
733.176	-0.92
733.201	-9.92
733.226	-14.92
733.25	-1.92
733.275	-5.92
733.3	4.08
733.324	3.08
733.349	12.08
733.374	15.08
733.399	-1.92
733.423	4.08
733.448	2.08
733.473	-12.92
733.497	-1.92
733.522	-13.92
733.547	6.08
733.571	21.08
733.596	-6.92
733.621	-12.92
733.646	15.08
733.67	0.08
733.695	-11.92
733.72	15.08
733.744	-7.92
733.769	-12.92
733.794	19.08
733.818	5.08
733.843	4.08
733.867	-5.92
733.892	4.08
733.917	8.08
733.941	10.08
733.966	-0.92
733.991	-2.92
734.015	16.08
734.04	10.08
734.065	4.08
734.089	-6.92
734.114	5.08
734.138	5.08
734.163	-6.92
734.188	14.08
734.212	8.08
734.237	4.08
734.261	0.08
734.286	-1.92
734.311	6.08
734.335	-4.92
734.36	-1.92
734.384	2.08
734.409	12.08
734.434	-6.92
734.458	-4.92
734.483	-6.92
734.507	2.08
734.532	3.08
734.556	7.08
734.581	5.08
734.606	2.08
734.63	-3.92
734.655	-5.92
734.679	-12.92
734.704	17.08
734.728	-1.92
734.753	0.08
734.777	8.08
734.802	-9.92
734.826	12.08
734.851	18.08
734.876	8.08
734.9	6.08
734.925	16.08
734.949	4.08
734.974	3.08
734.998	0.08
735.023	-7.92
735.047	-11.92
735.072	-5.92
735.096	6.08
735.121	5.08
735.145	21.08
735.17	16.08
735.194	7.08
735.219	-7.92
735.243	8.08
735.268	6.08
735.292	8.08
735.317	6.08
735.341	-8.92
735.365	-23.92
735.39	15.08
735.414	-0.92
735.439	-7.92
735.463	-10.92
735.488	5.08
735.512	11.08
735.537	-1.92
735.561	-8.92
735.586	-5.92
735.61	5.08
735.634	-0.92
735.659	-1.92
735.683	5.08
735.708	6.08
735.732	-21.92
735.757	-5.92
735.781	8.08
735.805	7.08
735.83	-14.92
735.854	-6.92
735.879	0.08
735.903	14.08
735.927	2.08
735.952	9.08
735.976	-7.92
736.001	-13.92
736.025	-1.92
736.049	-5.92
736.074	0.08
736.098	-1.92
736.123	2.08
736.147	21.08
736.171	10.08
736.196	14.08
736.22	-3.92
736.244	-5.92
736.269	-6.92
736.293	-5.92
736.317	-0.92
736.342	3.08
736.366	7.08
736.39	-4.92
736.415	-5.92
736.439	4.08
736.463	7.08
736.488	11.08
736.512	2.08
736.536	12.08
736.561	11.08
736.585	-4.92
736.609	12.08
736.634	9.08
736.658	14.08
736.682	0.08
736.707	25.08
736.731	-12.92
736.755	-4.92
736.78	15.08
736.804	11.08
736.828	-7.92
736.852	5.08
736.877	-1.92
736.901	7.08
736.925	11.08
736.949	18.08
736.974	-4.92
736.998	-1.92
737.022	3.08
737.047	-4.92
737.071	-4.92
737.095	11.08
737.119	19.08
737.144	18.08
737.168	-7.92
737.192	8.08
737.216	13.08
737.241	2.08
737.265	22.08
737.289	-1.92
737.313	-4.92
737.337	10.08
737.362	7.08
737.386	13.08
737.41	-7.92
737.434	13.08
737.459	16.08
737.483	19.08
737.507	10.08
737.531	8.08
737.555	10.08
737.58	21.08
737.604	4.08
737.628	-15.92
737.652	-13.92
737.676	-0.92
737.701	-4.92
737.725	1.08
737.749	-4.92
737.773	9.08
737.797	-1.92
737.821	22.08
737.846	4.08
737.87	17.08
737.894	-5.92
737.918	2.08
737.942	1.08
737.966	27.08
737.99	26.08
738.015	4.08
738.039	9.08
738.063	-1.92
738.087	31.08
738.111	6.08
738.135	8.08
738.159	-9.92
738.184	-0.92
738.208	3.08
738.232	3.08
738.256	4.08
738.28	10.08
738.304	5.08
738.328	-7.92
738.352	-1.92
738.376	4.08
738.4	5.08
738.425	4.08
738.449	-12.92
738.473	18.08
738.497	-3.92
738.521	-5.92
738.545	6.08
738.569	1.08
738.593	14.08
738.617	3.08
738.641	3.08
738.665	-1.92
738.689	1.08
738.713	-1.92
738.737	15.08
738.762	15.08
738.786	5.08
738.81	-11.92
738.834	-2.92
738.858	-0.92
738.882	7.08
738.906	-6.92
738.93	6.08
738.954	2.08
738.978	4.08
739.002	-7.92
739.026	14.08
739.05	6.08
739.074	-2.92
739.098	20.08
739.122	6.08
739.146	3.08
739.17	16.08
739.194	-8.92
739.218	-7.92
739.242	5.08
739.266	-0.92
739.29	19.08
739.314	2.08
739.338	-2.92
739.362	-2.92
739.386	4.08
739.41	-4.92
739.434	-0.92
739.458	2.08
739.482	0.08
739.506	1.08
739.53	-12.92
739.554	4.08
739.577	-5.92
739.601	4.08
739.625	-7.92
739.649	5.08
739.673	-22.92
739.697	4.08
739.721	-4.92
739.745	0.08
739.769	7.08
739.793	1.08
739.817	8.08
739.841	5.08
739.865	-4.92
739.889	-10.92
739.912	4.08
739.936	-19.92
739.96	4.08
739.984	-1.92
740.008	1.08
740.032	-13.92
740.056	3.08
740.08	1.08
740.104	-6.92
740.127	16.08
740.151	11.08
740.175	1.08
740.199	-9.92
740.223	45.08
740.247	1.08
740.271	-7.92
740.295	5.08
740.318	-15.92
740.342	-1.92
740.366	-5.92
740.39	3.08
740.414	-0.92
740.438	-8.92
740.461	10.08
740.485	7.08
740.509	-7.92
740.533	1.08
740.557	-5.92
740.581	4.08
740.604	-11.92
740.628	-12.92
740.652	11.08
740.676	-3.92
740.7	16.08
740.723	4.08
740.747	-0.92
740.771	-2.92
740.795	-3.92
740.819	14.08
740.842	3.08
740.866	4.08
740.89	4.08
740.914	-12.92
740.938	-16.92
740.961	8.08
740.985	10.08
741.009	-13.92
741.033	20.08
741.056	6.08
741.08	-4.92
741.104	-4.92
741.128	-0.92
741.151	10.08
741.175	8.08
741.199	14.08
741.223	15.08
741.246	5.08
741.27	7.08
741.294	15.08
741.318	-5.92
741.341	-10.92
741.365	3.08
741.389	-1.92
741.413	-1.92
741.436	-1.92
741.46	-4.92
741.484	16.08
741.507	1.08
741.531	16.08
741.555	15.08
741.579	9.08
741.602	8.08
741.626	15.08
741.65	6.08
741.673	4.08
741.697	7.08
741.721	11.08
741.744	-8.92
741.768	-0.92
741.792	1.08
741.815	-0.92
741.839	4.08
741.863	27.08
741.886	35.08
741.91	19.08
741.934	1.08
741.957	-11.92
741.981	9.08
742.005	12.08
742.028	-9.92
742.052	-3.92
742.075	12.08
742.099	10.08
742.123	8.08
742.146	4.08
742.17	-13.92
742.194	-25.92
742.217	-17.92
742.241	9.08
742.264	-15.92
742.288	24.08
742.312	7.08
742.335	5.08
742.359	4.08
742.382	17.08
742.406	3.08
742.43	-1.92
742.453	8.08
742.477	-0.92
742.5	3.08
742.524	-3.92
742.548	-0.92
742.571	8.08
742.595	2.08
742.618	8.08
742.642	-1.92
742.665	14.08
742.689	-1.92
742.712	1.08
742.736	3.08
742.76	7.08
742.783	1.08
742.807	3.08
742.83	4.08
742.854	-8.92
742.877	-3.92
742.901	2.08
742.924	-4.92
742.948	9.08
742.971	1.08
742.995	1.08
743.018	-1.92
743.042	-8.92
743.065	13.08
743.089	-3.92
743.112	4.08
743.136	10.08
743.159	-3.92
743.183	-5.92
743.206	8.08
743.23	0.08
743.253	2.08
743.277	-9.92
743.3	-18.92
743.324	-16.92
743.347	-1.92
743.371	25.08
743.394	17.08
743.418	13.08
743.441	14.08
743.465	0.08
743.488	12.08
743.512	-8.92
743.535	-8.92
743.558	-11.92
743.582	4.08
743.605	-4.92
743.629	2.08
743.652	12.08
743.676	1.08
743.699	6.08
743.723	19.08
743.746	4.08
743.769	-1.92
743.793	-4.92
743.816	-7.92
743.84	16.08
743.863	-0.92
743.886	0.08
743.91	7.08
743.933	-4.92
743.957	8.08
743.98	-5.92
744.003	-2.92
744.027	-3.92
744.05	-1.92
744.074	2.08
744.097	-3.92
744.12	2.08
744.144	-7.92
744.167	4.08
744.19	-9.92
744.214	-12.92
744.237	-3.92
744.26	10.08
744.284	-3.92
744.307	-9.92
744.331	1.08
744.354	0.08
744.377	-1.92
744.401	9.08
744.424	2.08
744.447	-17.92
744.471	-3.92
