Data from HighRes_H2_15_09_11_07_2024_HR4C61891__95__15-11-05-901.txt Node

Date: Thu Nov 07 15:11:05 EST 2024
User: crc00042
Spectrometer: HR4C6189
Trigger mode: 4
Integration Time (sec): 1.000000E-1
Scans to average: 1
Electric dark correction enabled: true
Nonlinearity correction enabled: false
Boxcar width: 0
XAxis mode: Wavelengths
Number of Pixels in Spectrum: 3648
>>>>>Begin Spectral Data<<<<<
639.567	-65.92
639.602	-65.92
639.636	-65.92
639.67	-36.92
639.704	-11.92
639.738	-14.92
639.773	15.08
639.807	-18.92
639.841	1.08
639.875	-0.92
639.909	7.08
639.943	9.08
639.978	2.08
640.012	3.08
640.046	11.08
640.08	5.08
640.114	0.08
640.148	-18.92
640.182	-4.92
640.217	-5.92
640.251	3.08
640.285	8.08
640.319	1.08
640.353	8.08
640.387	-0.92
640.421	4.08
640.455	0.08
640.49	-4.92
640.524	-2.92
640.558	0.08
640.592	4.08
640.626	-6.92
640.66	8.08
640.694	-1.92
640.728	-3.92
640.762	14.08
640.796	14.08
640.83	11.08
640.865	-10.92
640.899	-6.92
640.933	15.08
640.967	13.08
641.001	11.08
641.035	8.08
641.069	-1.92
641.103	-0.92
641.137	-9.92
641.171	-8.92
641.205	15.08
641.239	0.08
641.273	7.08
641.307	3.08
641.341	13.08
641.375	9.08
641.409	4.08
641.443	16.08
641.477	19.08
641.511	15.08
641.545	11.08
641.579	5.08
641.614	6.08
641.648	12.08
641.682	-9.92
641.716	2.08
641.75	15.08
641.784	2.08
641.818	3.08
641.852	-4.92
641.886	-2.92
641.919	13.08
641.953	3.08
641.987	-12.92
642.021	8.08
642.055	5.08
642.089	25.08
642.123	-6.92
642.157	16.08
642.191	12.08
642.225	24.08
642.259	-2.92
642.293	11.08
642.327	11.08
642.361	5.08
642.395	13.08
642.429	18.08
642.463	12.08
642.497	11.08
642.531	8.08
642.565	10.08
642.599	12.08
642.633	-5.92
642.666	17.08
642.7	14.08
642.734	16.08
642.768	-6.92
642.802	10.08
642.836	7.08
642.87	1.08
642.904	1.08
642.938	23.08
642.972	11.08
643.005	12.08
643.039	18.08
643.073	15.08
643.107	12.08
643.141	13.08
643.175	11.08
643.209	4.08
643.243	4.08
643.276	31.08
643.31	10.08
643.344	4.08
643.378	3.08
643.412	25.08
643.446	4.08
643.48	0.08
643.513	-4.92
643.547	-7.92
643.581	-15.92
643.615	13.08
643.649	9.08
643.683	10.08
643.716	30.08
643.75	5.08
643.784	-13.92
643.818	8.08
643.852	5.08
643.886	-0.92
643.919	15.08
643.953	5.08
643.987	11.08
644.021	8.08
644.055	22.08
644.088	-7.92
644.122	0.08
644.156	-2.92
644.19	13.08
644.224	6.08
644.257	3.08
644.291	9.08
644.325	0.08
644.359	6.08
644.392	27.08
644.426	0.08
644.46	8.08
644.494	2.08
644.527	-3.92
644.561	8.08
644.595	8.08
644.629	-0.92
644.662	-7.92
644.696	18.08
644.73	12.08
644.764	9.08
644.797	15.08
644.831	-3.92
644.865	26.08
644.899	8.08
644.932	26.08
644.966	2.08
645	20.08
645.033	27.08
645.067	-7.92
645.101	4.08
645.135	0.08
645.168	7.08
645.202	7.08
645.236	7.08
645.269	11.08
645.303	-2.92
645.337	-12.92
645.37	23.08
645.404	16.08
645.438	10.08
645.471	-1.92
645.505	9.08
645.539	9.08
645.572	10.08
645.606	1.08
645.64	2.08
645.673	17.08
645.707	23.08
645.741	13.08
645.774	-1.92
645.808	9.08
645.842	-10.92
645.875	-4.92
645.909	-5.92
645.943	5.08
645.976	17.08
646.01	25.08
646.043	11.08
646.077	31.08
646.111	18.08
646.144	15.08
646.178	8.08
646.212	-2.92
646.245	-3.92
646.279	4.08
646.312	15.08
646.346	17.08
646.38	21.08
646.413	13.08
646.447	7.08
646.48	8.08
646.514	9.08
646.547	-6.92
646.581	7.08
646.615	6.08
646.648	2.08
646.682	3.08
646.715	7.08
646.749	2.08
646.782	2.08
646.816	9.08
646.85	19.08
646.883	1.08
646.917	1.08
646.95	19.08
646.984	9.08
647.017	5.08
647.051	7.08
647.084	9.08
647.118	4.08
647.151	2.08
647.185	7.08
647.218	-2.92
647.252	11.08
647.285	-1.92
647.319	-11.92
647.353	7.08
647.386	25.08
647.42	-8.92
647.453	-1.92
647.487	17.08
647.52	5.08
647.553	9.08
647.587	-8.92
647.62	19.08
647.654	12.08
647.687	19.08
647.721	0.08
647.754	0.08
647.788	5.08
647.821	9.08
647.855	20.08
647.888	21.08
647.922	21.08
647.955	29.08
647.989	11.08
648.022	16.08
648.055	2.08
648.089	6.08
648.122	24.08
648.156	6.08
648.189	3.08
648.223	12.08
648.256	27.08
648.29	11.08
648.323	9.08
648.356	14.08
648.39	10.08
648.423	28.08
648.457	-4.92
648.49	29.08
648.523	9.08
648.557	8.08
648.59	9.08
648.624	3.08
648.657	-4.92
648.69	16.08
648.724	7.08
648.757	28.08
648.791	19.08
648.824	16.08
648.857	20.08
648.891	23.08
648.924	7.08
648.957	15.08
648.991	-8.92
649.024	25.08
649.057	17.08
649.091	12.08
649.124	18.08
649.158	20.08
649.191	31.08
649.224	-0.92
649.258	1.08
649.291	15.08
649.324	27.08
649.358	15.08
649.391	12.08
649.424	-8.92
649.458	3.08
649.491	7.08
649.524	-4.92
649.557	-6.92
649.591	13.08
649.624	30.08
649.657	-9.92
649.691	4.08
649.724	2.08
649.757	2.08
649.791	3.08
649.824	20.08
649.857	14.08
649.89	9.08
649.924	-10.92
649.957	-12.92
649.99	-21.92
650.023	-8.92
650.057	7.08
650.09	8.08
650.123	10.08
650.157	19.08
650.19	21.08
650.223	-1.92
650.256	3.08
650.29	-4.92
650.323	5.08
650.356	10.08
650.389	0.08
650.423	-7.92
650.456	-3.92
650.489	2.08
650.522	12.08
650.555	23.08
650.589	27.08
650.622	5.08
650.655	17.08
650.688	10.08
650.721	12.08
650.755	5.08
650.788	11.08
650.821	-0.92
650.854	3.08
650.887	8.08
650.921	-1.92
650.954	3.08
650.987	4.08
651.02	2.08
651.053	15.08
651.087	4.08
651.12	14.08
651.153	8.08
651.186	8.08
651.219	9.08
651.252	3.08
651.286	13.08
651.319	-6.92
651.352	5.08
651.385	1.08
651.418	13.08
651.451	18.08
651.484	12.08
651.518	-15.92
651.551	15.08
651.584	-6.92
651.617	15.08
651.65	18.08
651.683	18.08
651.716	0.08
651.749	1.08
651.783	4.08
651.816	29.08
651.849	9.08
651.882	-3.92
651.915	11.08
651.948	24.08
651.981	18.08
652.014	-16.92
652.047	2.08
652.08	-11.92
652.114	-3.92
652.147	-1.92
652.18	0.08
652.213	25.08
652.246	17.08
652.279	-7.92
652.312	4.08
652.345	0.08
652.378	-4.92
652.411	13.08
652.444	16.08
652.477	0.08
652.51	7.08
652.543	11.08
652.576	7.08
652.609	-4.92
652.642	9.08
652.675	14.08
652.709	-0.92
652.742	15.08
652.775	5.08
652.808	11.08
652.841	-4.92
652.874	25.08
652.907	18.08
652.94	-4.92
652.973	-17.92
653.006	3.08
653.039	-4.92
653.072	-2.92
653.105	-2.92
653.138	0.08
653.171	10.08
653.204	-1.92
653.237	3.08
653.27	-18.92
653.303	4.08
653.336	10.08
653.368	0.08
653.401	12.08
653.434	-25.92
653.467	-11.92
653.5	-17.92
653.533	-6.92
653.566	9.08
653.599	3.08
653.632	8.08
653.665	8.08
653.698	-8.92
653.731	-4.92
653.764	3.08
653.797	9.08
653.83	10.08
653.863	-1.92
653.896	5.08
653.929	10.08
653.961	4.08
653.994	9.08
654.027	1.08
654.06	8.08
654.093	11.08
654.126	10.08
654.159	-3.92
654.192	14.08
654.225	-0.92
654.258	-18.92
654.29	-4.92
654.323	8.08
654.356	-6.92
654.389	10.08
654.422	-4.92
654.455	5.08
654.488	18.08
654.521	-15.92
654.553	-20.92
654.586	19.08
654.619	-0.92
654.652	-7.92
654.685	4.08
654.718	4.08
654.751	17.08
654.783	-4.92
654.816	21.08
654.849	15.08
654.882	7.08
654.915	-0.92
654.948	-5.92
654.98	-8.92
655.013	2.08
655.046	14.08
655.079	-6.92
655.112	-3.92
655.144	-13.92
655.177	19.08
655.21	13.08
655.243	23.08
655.276	17.08
655.308	0.08
655.341	-0.92
655.374	18.08
655.407	9.08
655.44	11.08
655.472	6.08
655.505	6.08
655.538	-3.92
655.571	10.08
655.603	11.08
655.636	17.08
655.669	10.08
655.702	18.08
655.734	8.08
655.767	7.08
655.8	17.08
655.833	17.08
655.865	25.08
655.898	35.08
655.931	34.08
655.964	68.08
655.996	49.08
656.029	50.08
656.062	72.08
656.095	67.08
656.127	68.08
656.16	96.08
656.193	129.08
656.225	175.08
656.258	290.08
656.291	503.08
656.324	1105.08
656.356	3391.08
656.389	7507.08
656.422	5974.08
656.454	2053.08
656.487	683.08
656.52	261.08
656.552	120.08
656.585	97.08
656.618	59.08
656.65	58.08
656.683	25.08
656.716	7.08
656.748	23.08
656.781	17.08
656.814	4.08
656.846	25.08
656.879	8.08
656.912	10.08
656.944	-11.92
656.977	7.08
657.01	6.08
657.042	6.08
657.075	25.08
657.108	24.08
657.14	16.08
657.173	28.08
657.205	25.08
657.238	12.08
657.271	-1.92
657.303	-15.92
657.336	22.08
657.369	8.08
657.401	4.08
657.434	-1.92
657.466	16.08
657.499	13.08
657.532	-9.92
657.564	-3.92
657.597	0.08
657.629	14.08
657.662	4.08
657.694	17.08
657.727	-1.92
657.76	2.08
657.792	-5.92
657.825	-7.92
657.857	-6.92
657.89	0.08
657.922	13.08
657.955	8.08
657.987	11.08
658.02	32.08
658.053	13.08
658.085	5.08
658.118	5.08
658.15	7.08
658.183	13.08
658.215	-5.92
658.248	-3.92
658.28	4.08
658.313	5.08
658.345	32.08
658.378	1.08
658.41	2.08
658.443	13.08
658.475	16.08
658.508	-4.92
658.54	15.08
658.573	-13.92
658.605	12.08
658.638	-6.92
658.67	3.08
658.703	-3.92
658.735	-17.92
658.768	5.08
658.8	-6.92
658.833	28.08
658.865	4.08
658.898	9.08
658.93	-8.92
658.963	6.08
658.995	5.08
659.028	12.08
659.06	-5.92
659.092	6.08
659.125	10.08
659.157	5.08
659.19	-17.92
659.222	1.08
659.255	15.08
659.287	6.08
659.32	12.08
659.352	20.08
659.384	12.08
659.417	5.08
659.449	10.08
659.482	6.08
659.514	-8.92
659.546	0.08
659.579	-4.92
659.611	12.08
659.644	11.08
659.676	-10.92
659.708	-1.92
659.741	-6.92
659.773	11.08
659.806	-5.92
659.838	1.08
659.87	10.08
659.903	13.08
659.935	5.08
659.967	10.08
660	15.08
660.032	-6.92
660.065	11.08
660.097	2.08
660.129	-2.92
660.162	-15.92
660.194	11.08
660.226	-7.92
660.259	11.08
660.291	-4.92
660.323	10.08
660.356	1.08
660.388	17.08
660.42	4.08
660.453	11.08
660.485	8.08
660.517	23.08
660.55	16.08
660.582	11.08
660.614	15.08
660.647	3.08
660.679	-17.92
660.711	-2.92
660.743	-6.92
660.776	0.08
660.808	-5.92
660.84	3.08
660.873	11.08
660.905	9.08
660.937	7.08
660.969	12.08
661.002	-9.92
661.034	7.08
661.066	5.08
661.099	13.08
661.131	6.08
661.163	9.08
661.195	1.08
661.228	-4.92
661.26	-3.92
661.292	11.08
661.324	28.08
661.357	21.08
661.389	6.08
661.421	14.08
661.453	-9.92
661.485	25.08
661.518	7.08
661.55	-9.92
661.582	3.08
661.614	-6.92
661.647	1.08
661.679	10.08
661.711	12.08
661.743	1.08
661.775	10.08
661.808	28.08
661.84	6.08
661.872	14.08
661.904	3.08
661.936	9.08
661.969	-5.92
662.001	-4.92
662.033	9.08
662.065	2.08
662.097	25.08
662.129	12.08
662.162	10.08
662.194	11.08
662.226	16.08
662.258	11.08
662.29	2.08
662.322	-12.92
662.355	-24.92
662.387	23.08
662.419	16.08
662.451	11.08
662.483	17.08
662.515	4.08
662.547	11.08
662.58	-0.92
662.612	4.08
662.644	-12.92
662.676	-2.92
662.708	36.08
662.74	11.08
662.772	4.08
662.804	3.08
662.836	-0.92
662.869	-8.92
662.901	7.08
662.933	14.08
662.965	13.08
662.997	8.08
663.029	-7.92
663.061	-1.92
663.093	8.08
663.125	7.08
663.157	17.08
663.189	6.08
663.221	1.08
663.254	7.08
663.286	-1.92
663.318	-6.92
663.35	-10.92
663.382	-6.92
663.414	-0.92
663.446	-0.92
663.478	1.08
663.51	13.08
663.542	-5.92
663.574	6.08
663.606	8.08
663.638	-3.92
663.67	16.08
663.702	12.08
663.734	7.08
663.766	11.08
663.798	-1.92
663.83	7.08
663.862	12.08
663.894	28.08
663.926	11.08
663.958	22.08
663.99	3.08
664.022	7.08
664.054	14.08
664.086	-1.92
664.118	1.08
664.15	1.08
664.182	26.08
664.214	15.08
664.246	26.08
664.278	17.08
664.31	28.08
664.342	25.08
664.374	4.08
664.406	3.08
664.438	12.08
664.47	8.08
664.502	0.08
664.534	12.08
664.566	-4.92
664.598	-1.92
664.63	-11.92
664.662	6.08
664.693	-5.92
664.725	-11.92
664.757	-4.92
664.789	-4.92
664.821	6.08
664.853	15.08
664.885	6.08
664.917	7.08
664.949	24.08
664.981	21.08
665.013	7.08
665.045	7.08
665.076	9.08
665.108	4.08
665.14	8.08
665.172	-8.92
665.204	9.08
665.236	10.08
665.268	30.08
665.3	6.08
665.331	-7.92
665.363	2.08
665.395	8.08
665.427	12.08
665.459	13.08
665.491	7.08
665.523	-5.92
665.555	-3.92
665.586	6.08
665.618	-0.92
665.65	-6.92
665.682	1.08
665.714	0.08
665.746	-5.92
665.777	-1.92
665.809	0.08
665.841	14.08
665.873	2.08
665.905	8.08
665.937	11.08
665.968	8.08
666	7.08
666.032	-8.92
666.064	-1.92
666.096	5.08
666.127	13.08
666.159	23.08
666.191	14.08
666.223	13.08
666.255	18.08
666.286	6.08
666.318	7.08
666.35	2.08
666.382	4.08
666.413	-3.92
666.445	5.08
666.477	-12.92
666.509	-10.92
666.54	-5.92
666.572	-3.92
666.604	6.08
666.636	4.08
666.667	15.08
666.699	25.08
666.731	13.08
666.763	1.08
666.794	4.08
666.826	1.08
666.858	-12.92
666.89	35.08
666.921	22.08
666.953	-1.92
666.985	14.08
667.017	8.08
667.048	-8.92
667.08	9.08
667.112	3.08
667.143	-0.92
667.175	12.08
667.207	14.08
667.238	7.08
667.27	8.08
667.302	8.08
667.334	-8.92
667.365	16.08
667.397	19.08
667.429	3.08
667.46	13.08
667.492	11.08
667.524	0.08
667.555	-9.92
667.587	-8.92
667.619	-6.92
667.65	-1.92
667.682	3.08
667.714	5.08
667.745	11.08
667.777	7.08
667.808	16.08
667.84	5.08
667.872	-0.92
667.903	15.08
667.935	5.08
667.967	-16.92
667.998	6.08
668.03	7.08
668.061	-5.92
668.093	11.08
668.125	23.08
668.156	13.08
668.188	0.08
668.22	4.08
668.251	2.08
668.283	14.08
668.314	12.08
668.346	14.08
668.377	3.08
668.409	-13.92
668.441	6.08
668.472	8.08
668.504	12.08
668.535	11.08
668.567	0.08
668.599	-1.92
668.63	4.08
668.662	4.08
668.693	31.08
668.725	8.08
668.756	5.08
668.788	4.08
668.819	-2.92
668.851	23.08
668.882	4.08
668.914	-8.92
668.946	0.08
668.977	-12.92
669.009	-1.92
669.04	-0.92
669.072	-15.92
669.103	-3.92
669.135	5.08
669.166	16.08
669.198	2.08
669.229	7.08
669.261	4.08
669.292	-5.92
669.324	18.08
669.355	21.08
669.387	10.08
669.418	16.08
669.45	0.08
669.481	2.08
669.513	-0.92
669.544	10.08
669.576	14.08
669.607	9.08
669.639	19.08
669.67	-1.92
669.701	16.08
669.733	-6.92
669.764	-1.92
669.796	8.08
669.827	3.08
669.859	-0.92
669.89	10.08
669.922	9.08
669.953	11.08
669.985	6.08
670.016	8.08
670.047	11.08
670.079	-5.92
670.11	11.08
670.142	14.08
670.173	7.08
670.204	-6.92
670.236	14.08
670.267	-5.92
670.299	-13.92
670.33	-7.92
670.362	-4.92
670.393	-19.92
670.424	9.08
670.456	-4.92
670.487	-5.92
670.518	7.08
670.55	-0.92
670.581	-10.92
670.613	1.08
670.644	-5.92
670.675	-16.92
670.707	-6.92
670.738	-2.92
670.769	-4.92
670.801	15.08
670.832	13.08
670.864	-13.92
670.895	-1.92
670.926	0.08
670.958	-1.92
670.989	-1.92
671.02	-9.92
671.052	-5.92
671.083	2.08
671.114	-4.92
671.146	9.08
671.177	-0.92
671.208	2.08
671.24	6.08
671.271	9.08
671.302	6.08
671.333	7.08
671.365	6.08
671.396	-0.92
671.427	-5.92
671.459	4.08
671.49	15.08
671.521	6.08
671.553	-8.92
671.584	11.08
671.615	6.08
671.646	7.08
671.678	4.08
671.709	-12.92
671.74	-5.92
671.771	-12.92
671.803	-1.92
671.834	5.08
671.865	1.08
671.896	8.08
671.928	8.08
671.959	-8.92
671.99	11.08
672.021	-11.92
672.053	1.08
672.084	19.08
672.115	4.08
672.146	-2.92
672.178	-24.92
672.209	-8.92
672.24	10.08
672.271	16.08
672.303	6.08
672.334	14.08
672.365	-2.92
672.396	1.08
672.427	-2.92
672.459	8.08
672.49	19.08
672.521	-3.92
672.552	11.08
672.583	1.08
672.615	9.08
672.646	14.08
672.677	3.08
672.708	1.08
672.739	10.08
672.77	19.08
672.802	11.08
672.833	-16.92
672.864	5.08
672.895	-10.92
672.926	-6.92
672.957	-2.92
672.989	11.08
673.02	12.08
673.051	-8.92
673.082	11.08
673.113	-14.92
673.144	23.08
673.175	15.08
673.206	6.08
673.238	2.08
673.269	7.08
673.3	-6.92
673.331	0.08
673.362	3.08
673.393	-9.92
673.424	13.08
673.455	7.08
673.487	-11.92
673.518	9.08
673.549	-1.92
673.58	-6.92
673.611	8.08
673.642	2.08
673.673	-3.92
673.704	10.08
673.735	15.08
673.766	7.08
673.797	-7.92
673.828	-1.92
673.86	-6.92
673.891	-0.92
673.922	-7.92
673.953	-0.92
673.984	-8.92
674.015	13.08
674.046	3.08
674.077	14.08
674.108	-1.92
674.139	4.08
674.17	-6.92
674.201	3.08
674.232	-6.92
674.263	-9.92
674.294	1.08
674.325	0.08
674.356	-10.92
674.387	13.08
674.418	11.08
674.449	7.08
674.48	4.08
674.511	2.08
674.542	10.08
674.573	0.08
674.604	19.08
674.635	4.08
674.666	7.08
674.697	-0.92
674.728	10.08
674.759	15.08
674.79	-14.92
674.821	-1.92
674.852	-10.92
674.883	-13.92
674.914	-6.92
674.945	0.08
674.976	7.08
675.007	-0.92
675.038	-10.92
675.069	-16.92
675.1	4.08
675.131	-0.92
675.162	-2.92
675.193	-15.92
675.224	1.08
675.254	7.08
675.285	19.08
675.316	20.08
675.347	13.08
675.378	-3.92
675.409	-1.92
675.44	1.08
675.471	12.08
675.502	-12.92
675.533	-14.92
675.564	11.08
675.595	18.08
675.625	30.08
675.656	10.08
675.687	1.08
675.718	-10.92
675.749	-6.92
675.78	14.08
675.811	2.08
675.842	16.08
675.873	2.08
675.903	-16.92
675.934	4.08
675.965	-1.92
675.996	0.08
676.027	2.08
676.058	8.08
676.089	-8.92
676.119	10.08
676.15	3.08
676.181	-11.92
676.212	9.08
676.243	8.08
676.274	0.08
676.304	16.08
676.335	-0.92
676.366	-4.92
676.397	-4.92
676.428	5.08
676.459	12.08
676.489	8.08
676.52	8.08
676.551	11.08
676.582	8.08
676.613	17.08
676.643	5.08
676.674	-10.92
676.705	2.08
676.736	4.08
676.767	24.08
676.797	27.08
676.828	22.08
676.859	14.08
676.89	4.08
676.92	-1.92
676.951	21.08
676.982	22.08
677.013	-2.92
677.044	3.08
677.074	3.08
677.105	-11.92
677.136	6.08
677.167	6.08
677.197	32.08
677.228	1.08
677.259	-15.92
677.289	7.08
677.32	-4.92
677.351	-4.92
677.382	-5.92
677.412	5.08
677.443	0.08
677.474	11.08
677.505	-0.92
677.535	9.08
677.566	0.08
677.597	-10.92
677.627	5.08
677.658	-0.92
677.689	13.08
677.72	3.08
677.75	7.08
677.781	11.08
677.812	11.08
677.842	12.08
677.873	1.08
677.904	8.08
677.934	4.08
677.965	-17.92
677.996	-18.92
678.026	-3.92
678.057	-1.92
678.088	-2.92
678.118	0.08
678.149	-15.92
678.18	-13.92
678.21	9.08
678.241	11.08
678.272	7.08
678.302	0.08
678.333	12.08
678.363	-1.92
678.394	7.08
678.425	3.08
678.455	4.08
678.486	16.08
678.517	-3.92
678.547	10.08
678.578	11.08
678.608	-16.92
678.639	15.08
678.67	6.08
678.7	3.08
678.731	14.08
678.761	18.08
678.792	7.08
678.823	16.08
678.853	6.08
678.884	12.08
678.914	8.08
678.945	9.08
678.975	10.08
679.006	16.08
679.037	0.08
679.067	32.08
679.098	29.08
679.128	-12.92
679.159	-5.92
679.189	16.08
679.22	2.08
679.25	-6.92
679.281	-8.92
679.312	0.08
679.342	-2.92
679.373	19.08
679.403	4.08
679.434	17.08
679.464	12.08
679.495	12.08
679.525	6.08
679.556	3.08
679.586	14.08
679.617	6.08
679.647	8.08
679.678	-4.92
679.708	4.08
679.739	23.08
679.769	1.08
679.8	8.08
679.83	-0.92
679.861	3.08
679.891	-1.92
679.922	-19.92
679.952	-15.92
679.983	7.08
680.013	14.08
680.044	-11.92
680.074	9.08
680.105	16.08
680.135	7.08
680.165	4.08
680.196	6.08
680.226	0.08
680.257	5.08
680.287	-7.92
680.318	-2.92
680.348	-10.92
680.379	1.08
680.409	11.08
680.439	1.08
680.47	6.08
680.5	4.08
680.531	5.08
680.561	12.08
680.592	5.08
680.622	26.08
680.652	0.08
680.683	6.08
680.713	-7.92
680.744	-7.92
680.774	-15.92
680.804	12.08
680.835	11.08
680.865	-13.92
680.896	6.08
680.926	20.08
680.956	10.08
680.987	9.08
681.017	-1.92
681.047	8.08
681.078	9.08
681.108	2.08
681.139	13.08
681.169	10.08
681.199	10.08
681.23	9.08
681.26	19.08
681.29	14.08
681.321	-1.92
681.351	-1.92
681.381	-12.92
681.412	-0.92
681.442	-2.92
681.472	25.08
681.503	15.08
681.533	10.08
681.563	9.08
681.594	6.08
681.624	19.08
681.654	-29.92
681.685	13.08
681.715	6.08
681.745	-4.92
681.775	2.08
681.806	-19.92
681.836	5.08
681.866	-14.92
681.897	5.08
681.927	6.08
681.957	-16.92
681.987	4.08
682.018	-0.92
682.048	4.08
682.078	0.08
682.109	22.08
682.139	9.08
682.169	24.08
682.199	10.08
682.23	-1.92
682.26	0.08
682.29	-1.92
682.32	11.08
682.351	-7.92
682.381	5.08
682.411	3.08
682.441	-9.92
682.472	-13.92
682.502	-7.92
682.532	3.08
682.562	4.08
682.592	16.08
682.623	18.08
682.653	-1.92
682.683	-16.92
682.713	11.08
682.743	3.08
682.774	-17.92
682.804	17.08
682.834	12.08
682.864	-9.92
682.894	5.08
682.925	7.08
682.955	-1.92
682.985	2.08
683.015	19.08
683.045	3.08
683.076	-4.92
683.106	-8.92
683.136	-4.92
683.166	-4.92
683.196	-4.92
683.226	4.08
683.257	-3.92
683.287	1.08
683.317	-4.92
683.347	3.08
683.377	0.08
683.407	21.08
683.437	18.08
683.468	-0.92
683.498	-2.92
683.528	2.08
683.558	-0.92
683.588	2.08
683.618	0.08
683.648	2.08
683.678	9.08
683.708	11.08
683.739	-0.92
683.769	0.08
683.799	-10.92
683.829	4.08
683.859	11.08
683.889	26.08
683.919	12.08
683.949	12.08
683.979	4.08
684.009	-1.92
684.039	12.08
684.07	11.08
684.1	14.08
684.13	2.08
684.16	-0.92
684.19	4.08
684.22	-1.92
684.25	8.08
684.28	3.08
684.31	23.08
684.34	14.08
684.37	2.08
684.4	4.08
684.43	8.08
684.46	13.08
684.49	7.08
684.52	15.08
684.55	23.08
684.58	9.08
684.61	0.08
684.64	8.08
684.67	7.08
684.7	4.08
684.73	11.08
684.76	3.08
684.79	23.08
684.82	11.08
684.85	2.08
684.88	16.08
684.91	4.08
684.94	6.08
684.97	7.08
685	-3.92
685.03	-2.92
685.06	3.08
685.09	10.08
685.12	14.08
685.15	-2.92
685.18	13.08
685.21	19.08
685.24	24.08
685.27	21.08
685.3	-3.92
685.33	11.08
685.36	8.08
685.39	-10.92
685.42	-5.92
685.45	9.08
685.48	4.08
685.51	-4.92
685.54	29.08
685.569	7.08
685.599	10.08
685.629	3.08
685.659	4.08
685.689	2.08
685.719	6.08
685.749	1.08
685.779	3.08
685.809	12.08
685.839	3.08
685.869	13.08
685.898	19.08
685.928	3.08
685.958	5.08
685.988	32.08
686.018	12.08
686.048	2.08
686.078	18.08
686.108	13.08
686.137	-2.92
686.167	8.08
686.197	-7.92
686.227	8.08
686.257	20.08
686.287	21.08
686.317	5.08
686.346	-10.92
686.376	0.08
686.406	6.08
686.436	15.08
686.466	7.08
686.496	14.08
686.525	-0.92
686.555	-0.92
686.585	7.08
686.615	28.08
686.645	16.08
686.675	-3.92
686.704	10.08
686.734	7.08
686.764	0.08
686.794	10.08
686.824	4.08
686.853	13.08
686.883	21.08
686.913	19.08
686.943	9.08
686.973	3.08
687.002	8.08
687.032	8.08
687.062	-15.92
687.092	5.08
687.121	-13.92
687.151	4.08
687.181	-8.92
687.211	13.08
687.24	4.08
687.27	10.08
687.3	0.08
687.33	7.08
687.359	-2.92
687.389	7.08
687.419	13.08
687.449	14.08
687.478	-1.92
687.508	-9.92
687.538	-1.92
687.568	9.08
687.597	2.08
687.627	6.08
687.657	2.08
687.686	4.08
687.716	11.08
687.746	-7.92
687.776	9.08
687.805	18.08
687.835	6.08
687.865	21.08
687.894	26.08
687.924	1.08
687.954	8.08
687.983	-0.92
688.013	19.08
688.043	10.08
688.072	7.08
688.102	27.08
688.132	7.08
688.161	-10.92
688.191	12.08
688.221	12.08
688.25	0.08
688.28	9.08
688.31	10.08
688.339	-2.92
688.369	-12.92
688.399	9.08
688.428	0.08
688.458	5.08
688.488	7.08
688.517	16.08
688.547	7.08
688.576	31.08
688.606	20.08
688.636	12.08
688.665	10.08
688.695	6.08
688.725	11.08
688.754	8.08
688.784	4.08
688.813	8.08
688.843	9.08
688.873	1.08
688.902	0.08
688.932	14.08
688.961	6.08
688.991	20.08
689.02	4.08
689.05	-10.92
689.08	17.08
689.109	9.08
689.139	-2.92
689.168	0.08
689.198	0.08
689.227	4.08
689.257	15.08
689.287	8.08
689.316	19.08
689.346	-16.92
689.375	1.08
689.405	20.08
689.434	9.08
689.464	11.08
689.493	-17.92
689.523	-5.92
689.552	-6.92
689.582	10.08
689.611	10.08
689.641	6.08
689.67	6.08
689.7	21.08
689.73	21.08
689.759	10.08
689.789	20.08
689.818	3.08
689.848	-0.92
689.877	7.08
689.906	-3.92
689.936	1.08
689.965	4.08
689.995	10.08
690.024	19.08
690.054	2.08
690.083	10.08
690.113	16.08
690.142	6.08
690.172	19.08
690.201	1.08
690.231	11.08
690.26	17.08
690.29	16.08
690.319	27.08
690.348	5.08
690.378	-1.92
690.407	13.08
690.437	17.08
690.466	0.08
690.496	12.08
690.525	14.08
690.555	-10.92
690.584	16.08
690.613	11.08
690.643	8.08
690.672	7.08
690.702	4.08
690.731	7.08
690.76	8.08
690.79	2.08
690.819	-0.92
690.849	18.08
690.878	14.08
690.907	15.08
690.937	30.08
690.966	13.08
690.996	-3.92
691.025	11.08
691.054	-0.92
691.084	7.08
691.113	21.08
691.142	22.08
691.172	20.08
691.201	9.08
691.23	16.08
691.26	5.08
691.289	11.08
691.319	-0.92
691.348	9.08
691.377	18.08
691.407	1.08
691.436	6.08
691.465	13.08
691.495	-0.92
691.524	0.08
691.553	3.08
691.583	-4.92
691.612	12.08
691.641	11.08
691.67	6.08
691.7	12.08
691.729	0.08
691.758	-0.92
691.788	4.08
691.817	4.08
691.846	-4.92
691.876	6.08
691.905	3.08
691.934	11.08
691.963	18.08
691.993	8.08
692.022	-9.92
692.051	-11.92
692.081	18.08
692.11	15.08
692.139	2.08
692.168	4.08
692.198	0.08
692.227	6.08
692.256	12.08
692.285	6.08
692.315	0.08
692.344	17.08
692.373	7.08
692.402	-14.92
692.432	6.08
692.461	0.08
692.49	17.08
692.519	4.08
692.548	26.08
692.578	17.08
692.607	5.08
692.636	-0.92
692.665	24.08
692.694	3.08
692.724	5.08
692.753	10.08
692.782	5.08
692.811	-0.92
692.84	7.08
692.87	-3.92
692.899	-13.92
692.928	19.08
692.957	4.08
692.986	16.08
693.016	19.08
693.045	23.08
693.074	20.08
693.103	4.08
693.132	-0.92
693.161	24.08
693.191	4.08
693.22	-12.92
693.249	7.08
693.278	-10.92
693.307	14.08
693.336	-1.92
693.365	8.08
693.395	11.08
693.424	20.08
693.453	28.08
693.482	-4.92
693.511	-3.92
693.54	2.08
693.569	-6.92
693.598	7.08
693.628	16.08
693.657	21.08
693.686	28.08
693.715	21.08
693.744	6.08
693.773	20.08
693.802	19.08
693.831	3.08
693.86	8.08
693.889	-8.92
693.919	13.08
693.948	9.08
693.977	7.08
694.006	0.08
694.035	0.08
694.064	-3.92
694.093	-8.92
694.122	4.08
694.151	18.08
694.18	11.08
694.209	19.08
694.238	17.08
694.267	21.08
694.296	7.08
694.325	13.08
694.354	21.08
694.383	7.08
694.412	-13.92
694.441	-5.92
694.471	-6.92
694.5	0.08
694.529	5.08
694.558	13.08
694.587	7.08
694.616	-5.92
694.645	-9.92
694.674	11.08
694.703	2.08
694.732	2.08
694.761	6.08
694.79	11.08
694.819	-2.92
694.848	2.08
694.877	11.08
694.906	17.08
694.935	12.08
694.963	25.08
694.992	8.08
695.021	8.08
695.05	12.08
695.079	16.08
695.108	-5.92
695.137	12.08
695.166	-0.92
695.195	15.08
695.224	11.08
695.253	7.08
695.282	14.08
695.311	22.08
695.34	12.08
695.369	20.08
695.398	13.08
695.427	21.08
695.456	3.08
695.485	12.08
695.513	-1.92
695.542	11.08
695.571	7.08
695.6	7.08
695.629	2.08
695.658	11.08
695.687	1.08
695.716	7.08
695.745	28.08
695.774	-7.92
695.802	3.08
695.831	-6.92
695.86	6.08
695.889	12.08
695.918	15.08
695.947	17.08
695.976	1.08
696.005	5.08
696.033	10.08
696.062	8.08
696.091	1.08
696.12	-2.92
696.149	18.08
696.178	8.08
696.207	20.08
696.235	5.08
696.264	6.08
696.293	2.08
696.322	9.08
696.351	16.08
696.38	11.08
696.408	4.08
696.437	6.08
696.466	2.08
696.495	23.08
696.524	4.08
696.553	6.08
696.581	12.08
696.61	4.08
696.639	5.08
696.668	6.08
696.697	-1.92
696.725	2.08
696.754	20.08
696.783	8.08
696.812	6.08
696.84	2.08
696.869	19.08
696.898	3.08
696.927	-1.92
696.956	13.08
696.984	-1.92
697.013	-0.92
697.042	-3.92
697.071	15.08
697.099	16.08
697.128	12.08
697.157	18.08
697.186	-4.92
697.214	-9.92
697.243	-0.92
697.272	4.08
697.301	3.08
697.329	6.08
697.358	-3.92
697.387	10.08
697.415	9.08
697.444	7.08
697.473	16.08
697.502	-0.92
697.53	9.08
697.559	7.08
697.588	21.08
697.616	-10.92
697.645	-0.92
697.674	13.08
697.703	2.08
697.731	19.08
697.76	10.08
697.789	6.08
697.817	-5.92
697.846	19.08
697.875	4.08
697.903	20.08
697.932	11.08
697.961	5.08
697.989	8.08
698.018	9.08
698.047	2.08
698.075	14.08
698.104	-5.92
698.133	-2.92
698.161	-7.92
698.19	8.08
698.218	-5.92
698.247	13.08
698.276	13.08
698.304	14.08
698.333	19.08
698.362	11.08
698.39	14.08
698.419	25.08
698.447	3.08
698.476	5.08
698.505	20.08
698.533	16.08
698.562	8.08
698.591	-11.92
698.619	-14.92
698.648	14.08
698.676	7.08
698.705	-5.92
698.733	5.08
698.762	6.08
698.791	-3.92
698.819	-7.92
698.848	8.08
698.876	11.08
698.905	15.08
698.933	17.08
698.962	10.08
698.991	12.08
699.019	17.08
699.048	3.08
699.076	14.08
699.105	0.08
699.133	5.08
699.162	4.08
699.19	17.08
699.219	11.08
699.248	4.08
699.276	-5.92
699.305	-8.92
699.333	-4.92
699.362	4.08
699.39	14.08
699.419	2.08
699.447	5.08
699.476	7.08
699.504	-1.92
699.533	-4.92
699.561	-6.92
699.59	7.08
699.618	4.08
699.647	2.08
699.675	15.08
699.704	15.08
699.732	-10.92
699.761	8.08
699.789	17.08
699.818	15.08
699.846	1.08
699.874	12.08
699.903	8.08
699.931	-1.92
699.96	3.08
699.988	-0.92
700.017	0.08
700.045	7.08
700.074	-9.92
700.102	5.08
700.13	-1.92
700.159	2.08
700.187	4.08
700.216	4.08
700.244	-0.92
700.273	3.08
700.301	4.08
700.329	11.08
700.358	6.08
700.386	10.08
700.415	4.08
700.443	1.08
700.472	9.08
700.5	-1.92
700.528	13.08
700.557	17.08
700.585	-3.92
700.614	-1.92
700.642	22.08
700.67	31.08
700.699	16.08
700.727	13.08
700.755	11.08
700.784	11.08
700.812	2.08
700.841	5.08
700.869	2.08
700.897	-8.92
700.926	-0.92
700.954	12.08
700.982	9.08
701.011	4.08
701.039	11.08
701.067	7.08
701.096	12.08
701.124	-5.92
701.152	5.08
701.181	1.08
701.209	-18.92
701.237	8.08
701.266	-6.92
701.294	-17.92
701.322	-0.92
701.351	19.08
701.379	12.08
701.407	-1.92
701.435	5.08
701.464	4.08
701.492	26.08
701.52	-2.92
701.549	12.08
701.577	-5.92
701.605	-27.92
701.634	6.08
701.662	7.08
701.69	-8.92
701.718	-13.92
701.747	14.08
701.775	4.08
701.803	5.08
701.831	12.08
701.86	5.08
701.888	7.08
701.916	14.08
701.944	15.08
701.973	4.08
702.001	-0.92
702.029	-19.92
702.057	-5.92
702.086	2.08
702.114	-0.92
702.142	10.08
702.17	-0.92
702.199	-0.92
702.227	0.08
702.255	8.08
702.283	0.08
702.311	1.08
702.34	-7.92
702.368	-4.92
702.396	2.08
702.424	3.08
702.452	12.08
702.481	4.08
702.509	-1.92
702.537	13.08
702.565	6.08
702.593	-9.92
702.621	-0.92
702.65	3.08
702.678	8.08
702.706	3.08
702.734	-1.92
702.762	11.08
702.79	6.08
702.819	4.08
702.847	11.08
702.875	16.08
702.903	19.08
702.931	8.08
702.959	15.08
702.988	12.08
703.016	-9.92
703.044	-6.92
703.072	-8.92
703.1	4.08
703.128	-4.92
703.156	8.08
703.184	3.08
703.212	29.08
703.241	8.08
703.269	2.08
703.297	24.08
703.325	14.08
703.353	-1.92
703.381	-7.92
703.409	12.08
703.437	8.08
703.465	8.08
703.493	-1.92
703.522	-4.92
703.55	15.08
703.578	-1.92
703.606	-5.92
703.634	-0.92
703.662	1.08
703.69	6.08
703.718	10.08
703.746	24.08
703.774	0.08
703.802	14.08
703.83	2.08
703.858	12.08
703.886	-8.92
703.914	11.08
703.942	10.08
703.97	-2.92
703.998	-8.92
704.027	5.08
704.055	20.08
704.083	-2.92
704.111	-18.92
704.139	7.08
704.167	3.08
704.195	2.08
704.223	-1.92
704.251	-0.92
704.279	-2.92
704.307	5.08
704.335	-14.92
704.363	6.08
704.391	1.08
704.419	-0.92
704.447	0.08
704.475	0.08
704.503	-1.92
704.531	11.08
704.558	-1.92
704.586	15.08
704.614	12.08
704.642	7.08
704.67	0.08
704.698	7.08
704.726	3.08
704.754	10.08
704.782	3.08
704.81	-0.92
704.838	19.08
704.866	-1.92
704.894	-5.92
704.922	-0.92
704.95	15.08
704.978	27.08
705.006	15.08
705.034	14.08
705.061	-17.92
705.089	-0.92
705.117	-1.92
705.145	0.08
705.173	-7.92
705.201	-4.92
705.229	0.08
705.257	-6.92
705.285	8.08
705.313	16.08
705.34	0.08
705.368	9.08
705.396	-5.92
705.424	4.08
705.452	-4.92
705.48	4.08
705.508	3.08
705.536	2.08
705.563	1.08
705.591	7.08
705.619	-0.92
705.647	-9.92
705.675	16.08
705.703	6.08
705.731	16.08
705.758	8.08
705.786	2.08
705.814	10.08
705.842	10.08
705.87	5.08
705.898	11.08
705.925	2.08
705.953	14.08
705.981	-1.92
706.009	-1.92
706.037	8.08
706.065	7.08
706.092	-18.92
706.12	-9.92
706.148	-8.92
706.176	5.08
706.204	16.08
706.231	-0.92
706.259	-4.92
706.287	-0.92
706.315	12.08
706.342	-4.92
706.37	10.08
706.398	10.08
706.426	1.08
706.454	22.08
706.481	21.08
706.509	4.08
706.537	6.08
706.565	-3.92
706.592	6.08
706.62	3.08
706.648	10.08
706.676	-21.92
706.703	0.08
706.731	-0.92
706.759	-1.92
706.787	16.08
706.814	7.08
706.842	10.08
706.87	0.08
706.897	9.08
706.925	0.08
706.953	24.08
706.981	31.08
707.008	-2.92
707.036	2.08
707.064	3.08
707.091	-0.92
707.119	11.08
707.147	-3.92
707.174	-9.92
707.202	13.08
707.23	-6.92
707.258	9.08
707.285	-10.92
707.313	11.08
707.341	-4.92
707.368	7.08
707.396	2.08
707.424	26.08
707.451	27.08
707.479	3.08
707.507	7.08
707.534	-5.92
707.562	13.08
707.59	-19.92
707.617	-13.92
707.645	8.08
707.672	2.08
707.7	-2.92
707.728	7.08
707.755	3.08
707.783	4.08
707.811	-0.92
707.838	7.08
707.866	-1.92
707.893	2.08
707.921	4.08
707.949	-7.92
707.976	-7.92
708.004	-10.92
708.031	-0.92
708.059	-7.92
708.087	1.08
708.114	-0.92
708.142	1.08
708.169	6.08
708.197	-1.92
708.225	-2.92
708.252	-1.92
708.28	2.08
708.307	11.08
708.335	-7.92
708.362	-3.92
708.39	-0.92
708.418	-0.92
708.445	-19.92
708.473	-12.92
708.5	-1.92
708.528	16.08
708.555	-3.92
708.583	0.08
708.61	-2.92
708.638	0.08
708.665	-0.92
708.693	3.08
708.72	-9.92
708.748	-5.92
708.776	4.08
708.803	23.08
708.831	7.08
708.858	12.08
708.886	7.08
708.913	-0.92
708.941	-2.92
708.968	15.08
708.996	8.08
709.023	31.08
709.051	-8.92
709.078	6.08
709.105	5.08
709.133	8.08
709.16	10.08
709.188	11.08
709.215	-0.92
709.243	8.08
709.27	-11.92
709.298	-0.92
709.325	-3.92
709.353	8.08
709.38	-1.92
709.408	19.08
709.435	5.08
709.462	5.08
709.49	11.08
709.517	-2.92
709.545	3.08
709.572	6.08
709.6	8.08
709.627	3.08
709.655	-2.92
709.682	-1.92
709.709	-1.92
709.737	8.08
709.764	18.08
709.792	21.08
709.819	15.08
709.846	-5.92
709.874	-1.92
709.901	5.08
709.929	23.08
709.956	22.08
709.983	-0.92
710.011	2.08
710.038	6.08
710.066	5.08
710.093	-1.92
710.12	8.08
710.148	-1.92
710.175	-12.92
710.202	-8.92
710.23	-0.92
710.257	0.08
710.284	17.08
710.312	-2.92
710.339	21.08
710.366	8.08
710.394	-4.92
710.421	3.08
710.448	6.08
710.476	-3.92
710.503	0.08
710.53	4.08
710.558	20.08
710.585	19.08
710.612	-2.92
710.64	6.08
710.667	0.08
710.694	13.08
710.722	-3.92
710.749	-1.92
710.776	15.08
710.804	25.08
710.831	2.08
710.858	4.08
710.885	5.08
710.913	9.08
710.94	12.08
710.967	2.08
710.995	16.08
711.022	8.08
711.049	7.08
711.076	-9.92
711.104	5.08
711.131	-1.92
711.158	7.08
711.185	19.08
711.213	-6.92
711.24	2.08
711.267	-9.92
711.294	-0.92
711.322	15.08
711.349	4.08
711.376	9.08
711.403	8.08
711.431	-1.92
711.458	11.08
711.485	19.08
711.512	5.08
711.54	8.08
711.567	8.08
711.594	-10.92
711.621	13.08
711.648	2.08
711.676	-4.92
711.703	2.08
711.73	-4.92
711.757	14.08
711.784	7.08
711.812	4.08
711.839	-0.92
711.866	14.08
711.893	-6.92
711.92	-5.92
711.947	3.08
711.975	7.08
712.002	-3.92
712.029	12.08
712.056	5.08
712.083	17.08
712.11	-3.92
712.138	-10.92
712.165	-3.92
712.192	-9.92
712.219	-5.92
712.246	3.08
712.273	-2.92
712.3	-7.92
712.328	0.08
712.355	7.08
712.382	5.08
712.409	22.08
712.436	-2.92
712.463	-3.92
712.49	3.08
712.517	0.08
712.544	7.08
712.572	12.08
712.599	8.08
712.626	19.08
712.653	-2.92
712.68	3.08
712.707	16.08
712.734	4.08
712.761	2.08
712.788	0.08
712.815	-3.92
712.842	1.08
712.87	10.08
712.897	-15.92
712.924	-25.92
712.951	13.08
712.978	15.08
713.005	27.08
713.032	10.08
713.059	-3.92
713.086	-4.92
713.113	-9.92
713.14	-7.92
713.167	21.08
713.194	9.08
713.221	-19.92
713.248	14.08
713.275	-0.92
713.302	-13.92
713.329	-4.92
713.356	11.08
713.383	19.08
713.41	5.08
713.437	-3.92
713.464	-2.92
713.491	10.08
713.518	7.08
713.545	-8.92
713.572	1.08
713.599	25.08
713.626	0.08
713.653	6.08
713.68	0.08
713.707	-1.92
713.734	10.08
713.761	0.08
713.788	2.08
713.815	24.08
713.842	10.08
713.869	10.08
713.896	3.08
713.923	2.08
713.95	-5.92
713.977	-17.92
714.004	-1.92
714.031	-2.92
714.058	15.08
714.085	10.08
714.112	36.08
714.139	11.08
714.165	-1.92
714.192	7.08
714.219	11.08
714.246	12.08
714.273	6.08
714.3	3.08
714.327	21.08
714.354	6.08
714.381	-4.92
714.408	5.08
714.435	8.08
714.461	6.08
714.488	12.08
714.515	19.08
714.542	-3.92
714.569	1.08
714.596	2.08
714.623	9.08
714.65	8.08
714.677	10.08
714.703	5.08
714.73	11.08
714.757	9.08
714.784	8.08
714.811	9.08
714.838	6.08
714.865	1.08
714.891	10.08
714.918	-0.92
714.945	-1.92
714.972	-6.92
714.999	-0.92
715.026	-12.92
715.052	24.08
715.079	7.08
715.106	19.08
715.133	-3.92
715.16	-6.92
715.187	6.08
715.213	-0.92
715.24	-11.92
715.267	2.08
715.294	-1.92
715.321	-17.92
715.347	8.08
715.374	-3.92
715.401	2.08
715.428	3.08
715.455	7.08
715.481	0.08
715.508	12.08
715.535	-1.92
715.562	30.08
715.588	12.08
715.615	-8.92
715.642	-9.92
715.669	7.08
715.695	4.08
715.722	-5.92
715.749	7.08
715.776	12.08
715.802	6.08
715.829	7.08
715.856	-7.92
715.883	15.08
715.909	10.08
715.936	6.08
715.963	1.08
715.99	-1.92
716.016	2.08
716.043	13.08
716.07	2.08
716.096	-6.92
716.123	7.08
716.15	7.08
716.177	15.08
716.203	2.08
716.23	16.08
716.257	7.08
716.283	19.08
716.31	6.08
716.337	9.08
716.363	3.08
716.39	-9.92
716.417	16.08
716.443	10.08
716.47	12.08
716.497	7.08
716.523	12.08
716.55	5.08
716.577	15.08
716.603	-7.92
716.63	2.08
716.657	13.08
716.683	-3.92
716.71	-9.92
716.737	3.08
716.763	-3.92
716.79	15.08
716.817	28.08
716.843	16.08
716.87	-5.92
716.897	1.08
716.923	8.08
716.95	9.08
716.976	3.08
717.003	-2.92
717.03	6.08
717.056	14.08
717.083	0.08
717.109	0.08
717.136	17.08
717.163	8.08
717.189	-2.92
717.216	-5.92
717.242	-5.92
717.269	-13.92
717.296	20.08
717.322	11.08
717.349	21.08
717.375	23.08
717.402	7.08
717.428	14.08
717.455	10.08
717.481	16.08
717.508	13.08
717.535	2.08
717.561	2.08
717.588	-15.92
717.614	10.08
717.641	8.08
717.667	-0.92
717.694	15.08
717.72	13.08
717.747	0.08
717.773	-1.92
717.8	9.08
717.826	-6.92
717.853	16.08
717.88	27.08
717.906	6.08
717.933	8.08
717.959	6.08
717.986	9.08
718.012	4.08
718.039	7.08
718.065	22.08
718.092	8.08
718.118	-3.92
718.144	-11.92
718.171	13.08
718.197	29.08
718.224	14.08
718.25	8.08
718.277	8.08
718.303	10.08
718.33	5.08
718.356	-1.92
718.383	4.08
718.409	2.08
718.436	6.08
718.462	3.08
718.489	-4.92
718.515	22.08
718.541	21.08
718.568	-0.92
718.594	0.08
718.621	6.08
718.647	20.08
718.674	20.08
718.7	6.08
718.726	11.08
718.753	8.08
718.779	10.08
718.806	10.08
718.832	-0.92
718.858	0.08
718.885	7.08
718.911	0.08
718.938	6.08
718.964	0.08
718.99	8.08
719.017	7.08
719.043	10.08
719.07	29.08
719.096	-5.92
719.122	14.08
719.149	0.08
719.175	-1.92
719.201	-4.92
719.228	-3.92
719.254	4.08
719.281	-1.92
719.307	-14.92
719.333	-0.92
719.36	17.08
719.386	4.08
719.412	13.08
719.439	-5.92
719.465	6.08
719.491	-2.92
719.518	13.08
719.544	26.08
719.57	3.08
719.597	6.08
719.623	5.08
719.649	2.08
719.675	-5.92
719.702	5.08
719.728	23.08
719.754	-13.92
719.781	3.08
719.807	3.08
719.833	-5.92
719.86	10.08
719.886	0.08
719.912	22.08
719.938	-0.92
719.965	0.08
719.991	6.08
720.017	4.08
720.044	0.08
720.07	-0.92
720.096	6.08
720.122	11.08
720.149	8.08
720.175	23.08
720.201	8.08
720.227	6.08
720.254	2.08
720.28	0.08
720.306	-1.92
720.332	14.08
720.359	-2.92
720.385	7.08
720.411	-7.92
720.437	18.08
720.463	-1.92
720.49	1.08
720.516	-4.92
720.542	0.08
720.568	4.08
720.595	20.08
720.621	5.08
720.647	8.08
720.673	0.08
720.699	-1.92
720.725	2.08
720.752	-0.92
720.778	14.08
720.804	19.08
720.83	26.08
720.856	11.08
720.883	-17.92
720.909	13.08
720.935	14.08
720.961	20.08
720.987	3.08
721.013	-4.92
721.04	1.08
721.066	4.08
721.092	7.08
721.118	2.08
721.144	0.08
721.17	7.08
721.196	10.08
721.223	4.08
721.249	2.08
721.275	11.08
721.301	5.08
721.327	9.08
721.353	10.08
721.379	4.08
721.405	6.08
721.432	16.08
721.458	11.08
721.484	10.08
721.51	-1.92
721.536	6.08
721.562	3.08
721.588	11.08
721.614	-5.92
721.64	-1.92
721.666	2.08
721.693	7.08
721.719	-4.92
721.745	8.08
721.771	-3.92
721.797	1.08
721.823	-1.92
721.849	10.08
721.875	10.08
721.901	12.08
721.927	6.08
721.953	5.08
721.979	18.08
722.005	17.08
722.031	2.08
722.057	7.08
722.083	15.08
722.109	13.08
722.135	20.08
722.161	15.08
722.187	-5.92
722.214	2.08
722.24	-0.92
722.266	-8.92
722.292	11.08
722.318	15.08
722.344	-0.92
722.37	16.08
722.396	4.08
722.422	0.08
722.448	-8.92
722.474	-14.92
722.5	15.08
722.526	13.08
722.552	10.08
722.578	-3.92
722.603	19.08
722.629	-7.92
722.655	8.08
722.681	7.08
722.707	-9.92
722.733	3.08
722.759	6.08
722.785	6.08
722.811	2.08
722.837	14.08
722.863	13.08
722.889	12.08
722.915	10.08
722.941	3.08
722.967	-0.92
722.993	5.08
723.019	2.08
723.045	22.08
723.071	7.08
723.097	-0.92
723.122	3.08
723.148	2.08
723.174	-5.92
723.2	27.08
723.226	0.08
723.252	-2.92
723.278	-5.92
723.304	-8.92
723.33	10.08
723.356	-0.92
723.381	-3.92
723.407	-4.92
723.433	13.08
723.459	0.08
723.485	14.08
723.511	7.08
723.537	4.08
723.563	-0.92
723.588	6.08
723.614	4.08
723.64	-0.92
723.666	6.08
723.692	24.08
723.718	-1.92
723.744	5.08
723.769	2.08
723.795	4.08
723.821	15.08
723.847	-9.92
723.873	3.08
723.899	-4.92
723.924	-12.92
723.95	-1.92
723.976	-13.92
724.002	10.08
724.028	6.08
724.053	-11.92
724.079	-9.92
724.105	0.08
724.131	5.08
724.157	-0.92
724.182	2.08
724.208	2.08
724.234	13.08
724.26	0.08
724.286	12.08
724.311	-1.92
724.337	-6.92
724.363	-13.92
724.389	15.08
724.415	-2.92
724.44	22.08
724.466	-10.92
724.492	7.08
724.518	13.08
724.543	-4.92
724.569	14.08
724.595	19.08
724.621	-2.92
724.646	-10.92
724.672	1.08
724.698	13.08
724.723	11.08
724.749	-0.92
724.775	9.08
724.801	2.08
724.826	2.08
724.852	10.08
724.878	-2.92
724.904	-22.92
724.929	10.08
724.955	-13.92
724.981	-6.92
725.006	-0.92
725.032	7.08
725.058	14.08
725.083	4.08
725.109	-2.92
725.135	-10.92
725.161	8.08
725.186	6.08
725.212	11.08
725.238	14.08
725.263	-1.92
725.289	-9.92
725.315	-3.92
725.34	-0.92
725.366	2.08
725.392	-4.92
725.417	-2.92
725.443	10.08
725.468	-0.92
725.494	23.08
725.52	10.08
725.545	6.08
725.571	7.08
725.597	5.08
725.622	2.08
725.648	-2.92
725.674	7.08
725.699	15.08
725.725	-2.92
725.75	12.08
725.776	9.08
725.802	6.08
725.827	11.08
725.853	-0.92
725.878	9.08
725.904	7.08
725.93	5.08
725.955	-17.92
725.981	0.08
726.006	0.08
726.032	12.08
726.057	-4.92
726.083	-3.92
726.109	-3.92
726.134	2.08
726.16	5.08
726.185	7.08
726.211	-5.92
726.236	11.08
726.262	10.08
726.288	12.08
726.313	3.08
726.339	2.08
726.364	-0.92
726.39	10.08
726.415	-0.92
726.441	-1.92
726.466	-5.92
726.492	2.08
726.517	6.08
726.543	-2.92
726.568	-4.92
726.594	-2.92
726.619	7.08
726.645	0.08
726.67	16.08
726.696	23.08
726.721	-5.92
726.747	0.08
726.772	7.08
726.798	6.08
726.823	13.08
726.849	4.08
726.874	7.08
726.9	21.08
726.925	16.08
726.951	9.08
726.976	22.08
727.002	11.08
727.027	11.08
727.053	7.08
727.078	4.08
727.104	12.08
727.129	-17.92
727.155	-10.92
727.18	20.08
727.205	11.08
727.231	4.08
727.256	0.08
727.282	-0.92
727.307	24.08
727.333	-3.92
727.358	-5.92
727.383	-0.92
727.409	-7.92
727.434	14.08
727.46	1.08
727.485	-5.92
727.511	2.08
727.536	-1.92
727.561	-1.92
727.587	-3.92
727.612	11.08
727.637	6.08
727.663	-1.92
727.688	17.08
727.714	13.08
727.739	7.08
727.764	11.08
727.79	-0.92
727.815	6.08
727.841	4.08
727.866	3.08
727.891	8.08
727.917	7.08
727.942	-5.92
727.967	-13.92
727.993	-19.92
728.018	-5.92
728.043	10.08
728.069	10.08
728.094	22.08
728.119	-3.92
728.145	15.08
728.17	3.08
728.195	9.08
728.221	2.08
728.246	1.08
728.271	-3.92
728.297	10.08
728.322	-2.92
728.347	2.08
728.373	8.08
728.398	6.08
728.423	-1.92
728.448	18.08
728.474	8.08
728.499	8.08
728.524	-4.92
728.55	-7.92
728.575	-5.92
728.6	-5.92
728.625	-18.92
728.651	14.08
728.676	-5.92
728.701	-13.92
728.727	-3.92
728.752	-8.92
728.777	10.08
728.802	2.08
728.828	11.08
728.853	-0.92
728.878	-2.92
728.903	-15.92
728.929	8.08
728.954	-13.92
728.979	0.08
729.004	-1.92
729.03	-6.92
729.055	16.08
729.08	-1.92
729.105	-4.92
729.13	10.08
729.156	10.08
729.181	-3.92
729.206	-0.92
729.231	3.08
729.256	19.08
729.282	19.08
729.307	-8.92
729.332	-11.92
729.357	-9.92
729.382	4.08
729.408	1.08
729.433	17.08
729.458	6.08
729.483	16.08
729.508	15.08
729.533	10.08
729.559	14.08
729.584	4.08
729.609	9.08
729.634	2.08
729.659	-6.92
729.684	-13.92
729.71	27.08
729.735	7.08
729.76	-6.92
729.785	7.08
729.81	12.08
729.835	3.08
729.86	-10.92
729.886	15.08
729.911	9.08
729.936	7.08
729.961	12.08
729.986	-8.92
730.011	5.08
730.036	5.08
730.061	10.08
730.086	10.08
730.112	12.08
730.137	25.08
730.162	5.08
730.187	3.08
730.212	18.08
730.237	-9.92
730.262	9.08
730.287	1.08
730.312	24.08
730.337	12.08
730.362	16.08
730.387	-0.92
730.413	-6.92
730.438	-2.92
730.463	-8.92
730.488	-3.92
730.513	-4.92
730.538	4.08
730.563	10.08
730.588	16.08
730.613	21.08
730.638	-4.92
730.663	-0.92
730.688	14.08
730.713	10.08
730.738	6.08
730.763	16.08
730.788	-9.92
730.813	0.08
730.838	4.08
730.863	7.08
730.888	-1.92
730.913	-13.92
730.938	-19.92
730.963	11.08
730.988	7.08
731.013	11.08
731.038	-7.92
731.063	7.08
731.088	1.08
731.113	8.08
731.138	20.08
731.163	14.08
731.188	3.08
731.213	3.08
731.238	21.08
731.263	1.08
731.288	-3.92
731.313	3.08
731.338	-18.92
731.363	3.08
731.388	-5.92
731.413	-5.92
731.438	12.08
731.463	10.08
731.487	12.08
731.512	7.08
731.537	5.08
731.562	-0.92
731.587	7.08
731.612	-1.92
731.637	6.08
731.662	-1.92
731.687	9.08
731.712	7.08
731.737	15.08
731.762	16.08
731.786	16.08
731.811	11.08
731.836	7.08
731.861	4.08
731.886	-1.92
731.911	13.08
731.936	19.08
731.961	-9.92
731.986	-2.92
732.01	3.08
732.035	5.08
732.06	13.08
732.085	3.08
732.11	4.08
732.135	-0.92
732.16	0.08
732.184	10.08
732.209	3.08
732.234	13.08
732.259	-5.92
732.284	29.08
732.309	15.08
732.334	8.08
732.358	-14.92
732.383	-17.92
732.408	-1.92
732.433	1.08
732.458	8.08
732.482	22.08
732.507	0.08
732.532	9.08
732.557	19.08
732.582	5.08
732.607	-6.92
732.631	3.08
732.656	-3.92
732.681	5.08
732.706	-5.92
732.73	5.08
732.755	-1.92
732.78	4.08
732.805	10.08
732.83	10.08
732.854	-2.92
732.879	16.08
732.904	4.08
732.929	2.08
732.953	10.08
732.978	3.08
733.003	10.08
733.028	10.08
733.052	11.08
733.077	-5.92
733.102	-6.92
733.127	6.08
733.151	6.08
733.176	9.08
733.201	-9.92
733.226	-1.92
733.25	13.08
733.275	1.08
733.3	16.08
733.324	29.08
733.349	3.08
733.374	7.08
733.399	-3.92
733.423	2.08
733.448	2.08
733.473	13.08
733.497	1.08
733.522	-8.92
733.547	5.08
733.571	5.08
733.596	-15.92
733.621	14.08
733.646	13.08
733.67	7.08
733.695	-9.92
733.72	9.08
733.744	22.08
733.769	9.08
733.794	11.08
733.818	6.08
733.843	-5.92
733.867	-13.92
733.892	-6.92
733.917	-2.92
733.941	10.08
733.966	8.08
733.991	1.08
734.015	-5.92
734.04	11.08
734.065	8.08
734.089	25.08
734.114	-2.92
734.138	21.08
734.163	3.08
734.188	-2.92
734.212	2.08
734.237	23.08
734.261	2.08
734.286	4.08
734.311	3.08
734.335	-1.92
734.36	-3.92
734.384	9.08
734.409	7.08
734.434	-12.92
734.458	6.08
734.483	-3.92
734.507	-5.92
734.532	-2.92
734.556	20.08
734.581	6.08
734.606	7.08
734.63	1.08
734.655	4.08
734.679	10.08
734.704	-7.92
734.728	10.08
734.753	0.08
734.777	4.08
734.802	-4.92
734.826	0.08
734.851	19.08
734.876	21.08
734.9	8.08
734.925	3.08
734.949	10.08
734.974	-8.92
734.998	-1.92
735.023	7.08
735.047	-3.92
735.072	19.08
735.096	3.08
735.121	24.08
735.145	1.08
735.17	6.08
735.194	15.08
735.219	7.08
735.243	14.08
735.268	17.08
735.292	14.08
735.317	8.08
735.341	8.08
735.365	-4.92
735.39	11.08
735.414	22.08
735.439	8.08
735.463	14.08
735.488	8.08
735.512	12.08
735.537	11.08
735.561	9.08
735.586	11.08
735.61	7.08
735.634	-1.92
735.659	2.08
735.683	21.08
735.708	-0.92
735.732	6.08
735.757	7.08
735.781	10.08
735.805	3.08
735.83	-2.92
735.854	-1.92
735.879	9.08
735.903	17.08
735.927	8.08
735.952	18.08
735.976	-0.92
736.001	4.08
736.025	5.08
736.049	8.08
736.074	-5.92
736.098	0.08
736.123	8.08
736.147	-1.92
736.171	-4.92
736.196	-1.92
736.22	-3.92
736.244	15.08
736.269	14.08
736.293	-1.92
736.317	1.08
736.342	7.08
736.366	3.08
736.39	16.08
736.415	9.08
736.439	-15.92
736.463	13.08
736.488	-1.92
736.512	0.08
736.536	15.08
736.561	35.08
736.585	3.08
736.609	8.08
736.634	-10.92
736.658	-0.92
736.682	1.08
736.707	-1.92
736.731	12.08
736.755	17.08
736.78	18.08
736.804	10.08
736.828	13.08
736.852	6.08
736.877	-4.92
736.901	-2.92
736.925	15.08
736.949	3.08
736.974	-0.92
736.998	-1.92
737.022	4.08
737.047	0.08
737.071	2.08
737.095	27.08
737.119	32.08
737.144	20.08
737.168	-8.92
737.192	-3.92
737.216	4.08
737.241	3.08
737.265	15.08
737.289	2.08
737.313	-2.92
737.337	18.08
737.362	6.08
737.386	16.08
737.41	-2.92
737.434	15.08
737.459	7.08
737.483	31.08
737.507	11.08
737.531	6.08
737.555	-1.92
737.58	15.08
737.604	8.08
737.628	-8.92
737.652	-13.92
737.676	0.08
737.701	14.08
737.725	15.08
737.749	14.08
737.773	2.08
737.797	-2.92
737.821	-0.92
737.846	11.08
737.87	29.08
737.894	15.08
737.918	-11.92
737.942	-0.92
737.966	7.08
737.99	8.08
738.015	0.08
738.039	-3.92
738.063	-1.92
738.087	16.08
738.111	4.08
738.135	12.08
738.159	-1.92
738.184	-3.92
738.208	8.08
738.232	-4.92
738.256	25.08
738.28	22.08
738.304	22.08
738.328	6.08
738.352	8.08
738.376	13.08
738.4	14.08
738.425	0.08
738.449	-0.92
738.473	-0.92
738.497	-2.92
738.521	-0.92
738.545	17.08
738.569	4.08
738.593	-0.92
738.617	9.08
738.641	2.08
738.665	-3.92
738.689	0.08
738.713	-4.92
738.737	19.08
738.762	36.08
738.786	11.08
738.81	-6.92
738.834	4.08
738.858	0.08
738.882	8.08
738.906	6.08
738.93	22.08
738.954	9.08
738.978	9.08
739.002	12.08
739.026	12.08
739.05	10.08
739.074	-4.92
739.098	23.08
739.122	16.08
739.146	12.08
739.17	22.08
739.194	21.08
739.218	-12.92
739.242	-0.92
739.266	-2.92
739.29	8.08
739.314	4.08
739.338	4.08
739.362	20.08
739.386	8.08
739.41	2.08
739.434	-8.92
739.458	4.08
739.482	12.08
739.506	14.08
739.53	-3.92
739.554	-5.92
739.577	6.08
739.601	7.08
739.625	-3.92
739.649	-0.92
739.673	-1.92
739.697	15.08
739.721	-5.92
739.745	18.08
739.769	3.08
739.793	27.08
739.817	32.08
739.841	-7.92
739.865	-3.92
739.889	-9.92
739.912	6.08
739.936	-1.92
739.96	12.08
739.984	22.08
740.008	6.08
740.032	1.08
740.056	3.08
740.08	6.08
740.104	-5.92
740.127	6.08
740.151	23.08
740.175	16.08
740.199	20.08
740.223	55.08
740.247	5.08
740.271	-1.92
740.295	4.08
740.318	-5.92
740.342	-9.92
740.366	-0.92
740.39	3.08
740.414	10.08
740.438	8.08
740.461	28.08
740.485	1.08
740.509	-11.92
740.533	-5.92
740.557	-5.92
740.581	9.08
740.604	-4.92
740.628	-6.92
740.652	13.08
740.676	2.08
740.7	20.08
740.723	3.08
740.747	8.08
740.771	10.08
740.795	8.08
740.819	21.08
740.842	0.08
740.866	10.08
740.89	9.08
740.914	4.08
740.938	-27.92
740.961	11.08
740.985	0.08
741.009	1.08
741.033	6.08
741.056	10.08
741.08	-1.92
741.104	-4.92
741.128	3.08
741.151	15.08
741.175	3.08
741.199	7.08
741.223	9.08
741.246	-8.92
741.27	-5.92
741.294	-0.92
741.318	-0.92
741.341	8.08
741.365	7.08
741.389	-2.92
741.413	4.08
741.436	1.08
741.46	12.08
741.484	19.08
741.507	14.08
741.531	14.08
741.555	9.08
741.579	-1.92
741.602	10.08
741.626	15.08
741.65	5.08
741.673	-1.92
741.697	19.08
741.721	7.08
741.744	-6.92
741.768	16.08
741.792	6.08
741.815	9.08
741.839	19.08
741.863	16.08
741.886	8.08
741.91	13.08
741.934	5.08
741.957	-12.92
741.981	15.08
742.005	4.08
742.028	-0.92
742.052	-0.92
742.075	10.08
742.099	14.08
742.123	4.08
742.146	6.08
742.17	0.08
742.194	-18.92
742.217	-4.92
742.241	3.08
742.264	2.08
742.288	16.08
742.312	4.08
742.335	2.08
742.359	-5.92
742.382	12.08
742.406	15.08
742.43	-28.92
742.453	-0.92
742.477	-5.92
742.5	9.08
742.524	27.08
742.548	1.08
742.571	8.08
742.595	3.08
742.618	-5.92
742.642	10.08
742.665	20.08
742.689	2.08
742.712	7.08
742.736	2.08
742.76	11.08
742.783	-3.92
742.807	14.08
742.83	8.08
742.854	-2.92
742.877	-2.92
742.901	-7.92
742.924	-3.92
742.948	20.08
742.971	6.08
742.995	13.08
743.018	-3.92
743.042	1.08
743.065	-9.92
743.089	-5.92
743.112	21.08
743.136	-10.92
743.159	0.08
743.183	-9.92
743.206	8.08
743.23	-1.92
743.253	18.08
743.277	2.08
743.3	-9.92
743.324	4.08
743.347	-0.92
743.371	3.08
743.394	0.08
743.418	25.08
743.441	6.08
743.465	-3.92
743.488	-6.92
743.512	-7.92
743.535	-2.92
743.558	1.08
743.582	6.08
743.605	10.08
743.629	6.08
743.652	3.08
743.676	-1.92
743.699	2.08
743.723	7.08
743.746	3.08
743.769	5.08
743.793	6.08
743.816	-0.92
743.84	27.08
743.863	6.08
743.886	-6.92
743.91	13.08
743.933	10.08
743.957	18.08
743.98	2.08
744.003	-0.92
744.027	3.08
744.05	-1.92
744.074	2.08
744.097	-19.92
744.12	-6.92
744.144	9.08
744.167	2.08
744.19	3.08
744.214	4.08
744.237	-6.92
744.26	8.08
744.284	-2.92
744.307	-13.92
744.331	9.08
744.354	1.08
744.377	-1.92
744.401	-3.92
744.424	3.08
744.447	-1.92
744.471	3.08
