Data from HighRes_H2_15_09_11_07_2024_HR4C61891__72__15-11-03-602.txt Node

Date: Thu Nov 07 15:11:03 EST 2024
User: crc00042
Spectrometer: HR4C6189
Trigger mode: 4
Integration Time (sec): 1.000000E-1
Scans to average: 1
Electric dark correction enabled: true
Nonlinearity correction enabled: false
Boxcar width: 0
XAxis mode: Wavelengths
Number of Pixels in Spectrum: 3648
>>>>>Begin Spectral Data<<<<<
639.567	-49.92
639.602	-49.92
639.636	-49.92
639.67	-44.92
639.704	-10.92
639.738	-13.92
639.773	16.08
639.807	-5.92
639.841	7.08
639.875	0.08
639.909	-1.92
639.943	-11.92
639.978	-9.92
640.012	6.08
640.046	14.08
640.08	20.08
640.114	0.08
640.148	-19.92
640.182	-14.92
640.217	-2.92
640.251	17.08
640.285	7.08
640.319	7.08
640.353	6.08
640.387	2.08
640.421	-6.92
640.455	-3.92
640.49	8.08
640.524	11.08
640.558	-3.92
640.592	12.08
640.626	12.08
640.66	2.08
640.694	6.08
640.728	14.08
640.762	7.08
640.796	19.08
640.83	19.08
640.865	-1.92
640.899	-2.92
640.933	5.08
640.967	-19.92
641.001	-0.92
641.035	7.08
641.069	20.08
641.103	-19.92
641.137	-0.92
641.171	-5.92
641.205	5.08
641.239	-7.92
641.273	17.08
641.307	16.08
641.341	11.08
641.375	-1.92
641.409	-4.92
641.443	2.08
641.477	10.08
641.511	8.08
641.545	12.08
641.579	13.08
641.614	5.08
641.648	7.08
641.682	-11.92
641.716	-1.92
641.75	15.08
641.784	17.08
641.818	-6.92
641.852	3.08
641.886	8.08
641.919	34.08
641.953	16.08
641.987	-14.92
642.021	-5.92
642.055	13.08
642.089	-2.92
642.123	-6.92
642.157	-4.92
642.191	-17.92
642.225	5.08
642.259	8.08
642.293	8.08
642.327	6.08
642.361	8.08
642.395	14.08
642.429	34.08
642.463	5.08
642.497	17.08
642.531	20.08
642.565	3.08
642.599	17.08
642.633	-4.92
642.666	17.08
642.7	11.08
642.734	30.08
642.768	7.08
642.802	4.08
642.836	12.08
642.87	-9.92
642.904	18.08
642.938	15.08
642.972	9.08
643.005	19.08
643.039	14.08
643.073	3.08
643.107	19.08
643.141	13.08
643.175	1.08
643.209	-6.92
643.243	1.08
643.276	7.08
643.31	-11.92
643.344	-8.92
643.378	0.08
643.412	24.08
643.446	7.08
643.48	0.08
643.513	7.08
643.547	3.08
643.581	-9.92
643.615	2.08
643.649	10.08
643.683	-4.92
643.716	13.08
643.75	3.08
643.784	-24.92
643.818	-0.92
643.852	6.08
643.886	12.08
643.919	7.08
643.953	5.08
643.987	-7.92
644.021	11.08
644.055	16.08
644.088	10.08
644.122	-12.92
644.156	-23.92
644.19	-4.92
644.224	-5.92
644.257	10.08
644.291	-4.92
644.325	8.08
644.359	7.08
644.392	15.08
644.426	17.08
644.46	13.08
644.494	3.08
644.527	-5.92
644.561	1.08
644.595	8.08
644.629	8.08
644.662	3.08
644.696	27.08
644.73	1.08
644.764	8.08
644.797	5.08
644.831	0.08
644.865	-0.92
644.899	-0.92
644.932	28.08
644.966	-0.92
645	5.08
645.033	31.08
645.067	-2.92
645.101	19.08
645.135	14.08
645.168	6.08
645.202	-2.92
645.236	-11.92
645.269	6.08
645.303	5.08
645.337	-10.92
645.37	2.08
645.404	11.08
645.438	4.08
645.471	-2.92
645.505	20.08
645.539	2.08
645.572	-7.92
645.606	2.08
645.64	-1.92
645.673	4.08
645.707	14.08
645.741	16.08
645.774	7.08
645.808	18.08
645.842	3.08
645.875	6.08
645.909	-3.92
645.943	-8.92
645.976	1.08
646.01	27.08
646.043	12.08
646.077	20.08
646.111	16.08
646.144	10.08
646.178	15.08
646.212	-29.92
646.245	-10.92
646.279	8.08
646.312	13.08
646.346	21.08
646.38	1.08
646.413	7.08
646.447	3.08
646.48	5.08
646.514	22.08
646.547	9.08
646.581	-10.92
646.615	1.08
646.648	-0.92
646.682	6.08
646.715	-2.92
646.749	10.08
646.782	-8.92
646.816	-12.92
646.85	9.08
646.883	5.08
646.917	-6.92
646.95	-5.92
646.984	-13.92
647.017	-9.92
647.051	-0.92
647.084	14.08
647.118	13.08
647.151	4.08
647.185	-6.92
647.218	-23.92
647.252	7.08
647.285	-0.92
647.319	-4.92
647.353	1.08
647.386	16.08
647.42	2.08
647.453	0.08
647.487	1.08
647.52	-1.92
647.553	2.08
647.587	2.08
647.62	-9.92
647.654	3.08
647.687	-2.92
647.721	3.08
647.754	11.08
647.788	17.08
647.821	-5.92
647.855	9.08
647.888	12.08
647.922	9.08
647.955	8.08
647.989	4.08
648.022	16.08
648.055	10.08
648.089	-5.92
648.122	20.08
648.156	4.08
648.189	13.08
648.223	22.08
648.256	22.08
648.29	-1.92
648.323	0.08
648.356	15.08
648.39	8.08
648.423	8.08
648.457	-4.92
648.49	-1.92
648.523	3.08
648.557	-9.92
648.59	3.08
648.624	7.08
648.657	7.08
648.69	15.08
648.724	11.08
648.757	13.08
648.791	12.08
648.824	21.08
648.857	24.08
648.891	1.08
648.924	1.08
648.957	5.08
648.991	-10.92
649.024	7.08
649.057	-21.92
649.091	-11.92
649.124	10.08
649.158	15.08
649.191	25.08
649.224	18.08
649.258	15.08
649.291	20.08
649.324	6.08
649.358	-0.92
649.391	6.08
649.424	27.08
649.458	0.08
649.491	-6.92
649.524	-11.92
649.557	-6.92
649.591	-22.92
649.624	12.08
649.657	-19.92
649.691	14.08
649.724	20.08
649.757	1.08
649.791	-7.92
649.824	22.08
649.857	0.08
649.89	0.08
649.924	-12.92
649.957	-17.92
649.99	-18.92
650.023	14.08
650.057	-19.92
650.09	5.08
650.123	4.08
650.157	14.08
650.19	13.08
650.223	-6.92
650.256	-11.92
650.29	3.08
650.323	0.08
650.356	7.08
650.389	-5.92
650.423	-4.92
650.456	17.08
650.489	2.08
650.522	4.08
650.555	-6.92
650.589	2.08
650.622	5.08
650.655	10.08
650.688	-9.92
650.721	-12.92
650.755	9.08
650.788	5.08
650.821	10.08
650.854	3.08
650.887	5.08
650.921	-11.92
650.954	-3.92
650.987	3.08
651.02	-4.92
651.053	-4.92
651.087	2.08
651.12	21.08
651.153	4.08
651.186	2.08
651.219	-0.92
651.252	21.08
651.286	17.08
651.319	17.08
651.352	3.08
651.385	3.08
651.418	2.08
651.451	14.08
651.484	15.08
651.518	-10.92
651.551	29.08
651.584	-0.92
651.617	11.08
651.65	1.08
651.683	24.08
651.716	15.08
651.749	-21.92
651.783	1.08
651.816	1.08
651.849	11.08
651.882	-0.92
651.915	-1.92
651.948	7.08
651.981	6.08
652.014	-12.92
652.047	-5.92
652.08	-12.92
652.114	-5.92
652.147	5.08
652.18	20.08
652.213	26.08
652.246	-14.92
652.279	-7.92
652.312	17.08
652.345	4.08
652.378	19.08
652.411	13.08
652.444	3.08
652.477	6.08
652.51	2.08
652.543	-10.92
652.576	16.08
652.609	-2.92
652.642	-1.92
652.675	26.08
652.709	14.08
652.742	-0.92
652.775	-6.92
652.808	13.08
652.841	-1.92
652.874	-7.92
652.907	11.08
652.94	-6.92
652.973	-3.92
653.006	-10.92
653.039	-4.92
653.072	12.08
653.105	0.08
653.138	-20.92
653.171	-4.92
653.204	14.08
653.237	13.08
653.27	2.08
653.303	13.08
653.336	14.08
653.368	-0.92
653.401	5.08
653.434	9.08
653.467	10.08
653.5	-8.92
653.533	-4.92
653.566	6.08
653.599	3.08
653.632	2.08
653.665	2.08
653.698	-12.92
653.731	-10.92
653.764	4.08
653.797	7.08
653.83	1.08
653.863	11.08
653.896	5.08
653.929	12.08
653.961	8.08
653.994	12.08
654.027	-26.92
654.06	4.08
654.093	20.08
654.126	3.08
654.159	2.08
654.192	-1.92
654.225	1.08
654.258	-3.92
654.29	-14.92
654.323	14.08
654.356	5.08
654.389	-2.92
654.422	1.08
654.455	-8.92
654.488	11.08
654.521	2.08
654.553	3.08
654.586	11.08
654.619	7.08
654.652	-4.92
654.685	-0.92
654.718	12.08
654.751	9.08
654.783	1.08
654.816	18.08
654.849	-0.92
654.882	3.08
654.915	7.08
654.948	-0.92
654.98	8.08
655.013	-2.92
655.046	3.08
655.079	9.08
655.112	27.08
655.144	-11.92
655.177	7.08
655.21	13.08
655.243	9.08
655.276	-3.92
655.308	-6.92
655.341	1.08
655.374	26.08
655.407	-12.92
655.44	-16.92
655.472	-7.92
655.505	16.08
655.538	27.08
655.571	9.08
655.603	10.08
655.636	-1.92
655.669	27.08
655.702	16.08
655.734	8.08
655.767	26.08
655.8	36.08
655.833	15.08
655.865	26.08
655.898	39.08
655.931	37.08
655.964	46.08
655.996	51.08
656.029	56.08
656.062	45.08
656.095	59.08
656.127	64.08
656.16	99.08
656.193	127.08
656.225	182.08
656.258	292.08
656.291	497.08
656.324	1145.08
656.356	3406.08
656.389	7729.08
656.422	6138.08
656.454	2119.08
656.487	724.08
656.52	262.08
656.552	119.08
656.585	71.08
656.618	87.08
656.65	50.08
656.683	37.08
656.716	32.08
656.748	5.08
656.781	-0.92
656.814	1.08
656.846	21.08
656.879	6.08
656.912	7.08
656.944	-8.92
656.977	-6.92
657.01	3.08
657.042	-6.92
657.075	19.08
657.108	3.08
657.14	6.08
657.173	20.08
657.205	35.08
657.238	14.08
657.271	7.08
657.303	2.08
657.336	0.08
657.369	3.08
657.401	14.08
657.434	13.08
657.466	6.08
657.499	-6.92
657.532	-9.92
657.564	7.08
657.597	1.08
657.629	5.08
657.662	-0.92
657.694	8.08
657.727	1.08
657.76	1.08
657.792	3.08
657.825	3.08
657.857	0.08
657.89	9.08
657.922	19.08
657.955	-1.92
657.987	5.08
658.02	4.08
658.053	0.08
658.085	4.08
658.118	9.08
658.15	12.08
658.183	13.08
658.215	0.08
658.248	-2.92
658.28	9.08
658.313	16.08
658.345	27.08
658.378	-0.92
658.41	11.08
658.443	16.08
658.475	10.08
658.508	-3.92
658.54	4.08
658.573	4.08
658.605	8.08
658.638	10.08
658.67	15.08
658.703	9.08
658.735	10.08
658.768	11.08
658.8	-0.92
658.833	15.08
658.865	3.08
658.898	22.08
658.93	-5.92
658.963	-0.92
658.995	2.08
659.028	-8.92
659.06	-4.92
659.092	1.08
659.125	-0.92
659.157	16.08
659.19	2.08
659.222	3.08
659.255	-8.92
659.287	13.08
659.32	-4.92
659.352	9.08
659.384	8.08
659.417	22.08
659.449	19.08
659.482	19.08
659.514	-5.92
659.546	-0.92
659.579	-10.92
659.611	6.08
659.644	3.08
659.676	-10.92
659.708	-0.92
659.741	-13.92
659.773	22.08
659.806	-2.92
659.838	5.08
659.87	-0.92
659.903	-5.92
659.935	22.08
659.967	10.08
660	10.08
660.032	-9.92
660.065	20.08
660.097	0.08
660.129	8.08
660.162	-21.92
660.194	5.08
660.226	12.08
660.259	8.08
660.291	7.08
660.323	18.08
660.356	9.08
660.388	4.08
660.42	-17.92
660.453	-2.92
660.485	-0.92
660.517	11.08
660.55	23.08
660.582	0.08
660.614	5.08
660.647	10.08
660.679	-17.92
660.711	10.08
660.743	-0.92
660.776	-7.92
660.808	3.08
660.84	-16.92
660.873	1.08
660.905	-8.92
660.937	1.08
660.969	8.08
661.002	7.08
661.034	5.08
661.066	-6.92
661.099	-0.92
661.131	19.08
661.163	12.08
661.195	7.08
661.228	20.08
661.26	4.08
661.292	3.08
661.324	10.08
661.357	6.08
661.389	-0.92
661.421	6.08
661.453	5.08
661.485	2.08
661.518	-14.92
661.55	-10.92
661.582	-7.92
661.614	-1.92
661.647	11.08
661.679	9.08
661.711	-4.92
661.743	4.08
661.775	12.08
661.808	34.08
661.84	1.08
661.872	9.08
661.904	-4.92
661.936	2.08
661.969	-13.92
662.001	-5.92
662.033	1.08
662.065	3.08
662.097	17.08
662.129	18.08
662.162	-5.92
662.194	15.08
662.226	9.08
662.258	16.08
662.29	2.08
662.322	-0.92
662.355	-13.92
662.387	14.08
662.419	15.08
662.451	24.08
662.483	-10.92
662.515	-4.92
662.547	2.08
662.58	2.08
662.612	-12.92
662.644	-24.92
662.676	16.08
662.708	22.08
662.74	3.08
662.772	2.08
662.804	7.08
662.836	19.08
662.869	1.08
662.901	12.08
662.933	4.08
662.965	16.08
662.997	13.08
663.029	-6.92
663.061	-0.92
663.093	11.08
663.125	-6.92
663.157	-9.92
663.189	10.08
663.221	6.08
663.254	9.08
663.286	8.08
663.318	6.08
663.35	-4.92
663.382	-3.92
663.414	-1.92
663.446	-4.92
663.478	-0.92
663.51	27.08
663.542	-0.92
663.574	-4.92
663.606	7.08
663.638	-8.92
663.67	-10.92
663.702	-11.92
663.734	-17.92
663.766	10.08
663.798	-9.92
663.83	10.08
663.862	6.08
663.894	8.08
663.926	-15.92
663.958	10.08
663.99	2.08
664.022	9.08
664.054	-0.92
664.086	-18.92
664.118	-6.92
664.15	4.08
664.182	11.08
664.214	3.08
664.246	3.08
664.278	14.08
664.31	0.08
664.342	0.08
664.374	-4.92
664.406	10.08
664.438	4.08
664.47	10.08
664.502	-2.92
664.534	-4.92
664.566	-10.92
664.598	14.08
664.63	2.08
664.662	-1.92
664.693	-1.92
664.725	4.08
664.757	-0.92
664.789	-18.92
664.821	8.08
664.853	19.08
664.885	11.08
664.917	-9.92
664.949	13.08
664.981	18.08
665.013	-5.92
665.045	1.08
665.076	-13.92
665.108	-0.92
665.14	3.08
665.172	6.08
665.204	9.08
665.236	-9.92
665.268	15.08
665.3	-14.92
665.331	6.08
665.363	4.08
665.395	5.08
665.427	6.08
665.459	5.08
665.491	-6.92
665.523	2.08
665.555	-1.92
665.586	6.08
665.618	-11.92
665.65	-17.92
665.682	0.08
665.714	12.08
665.746	-10.92
665.777	16.08
665.809	5.08
665.841	10.08
665.873	-0.92
665.905	-4.92
665.937	11.08
665.968	4.08
666	6.08
666.032	13.08
666.064	-4.92
666.096	-2.92
666.127	13.08
666.159	11.08
666.191	8.08
666.223	2.08
666.255	-1.92
666.286	10.08
666.318	5.08
666.35	6.08
666.382	1.08
666.413	5.08
666.445	-1.92
666.477	-10.92
666.509	-4.92
666.54	5.08
666.572	1.08
666.604	0.08
666.636	2.08
666.667	5.08
666.699	11.08
666.731	-5.92
666.763	-11.92
666.794	4.08
666.826	9.08
666.858	-19.92
666.89	22.08
666.921	13.08
666.953	-9.92
666.985	26.08
667.017	34.08
667.048	17.08
667.08	7.08
667.112	-8.92
667.143	-0.92
667.175	15.08
667.207	4.08
667.238	9.08
667.27	12.08
667.302	7.08
667.334	1.08
667.365	17.08
667.397	-6.92
667.429	8.08
667.46	10.08
667.492	-3.92
667.524	-5.92
667.555	-2.92
667.587	-0.92
667.619	-4.92
667.65	-3.92
667.682	10.08
667.714	15.08
667.745	9.08
667.777	19.08
667.808	20.08
667.84	1.08
667.872	22.08
667.903	16.08
667.935	4.08
667.967	1.08
667.998	2.08
668.03	21.08
668.061	14.08
668.093	-13.92
668.125	1.08
668.156	14.08
668.188	10.08
668.22	-12.92
668.251	0.08
668.283	0.08
668.314	6.08
668.346	-5.92
668.377	-9.92
668.409	-2.92
668.441	10.08
668.472	7.08
668.504	5.08
668.535	4.08
668.567	20.08
668.599	9.08
668.63	8.08
668.662	10.08
668.693	22.08
668.725	14.08
668.756	16.08
668.788	6.08
668.819	15.08
668.851	13.08
668.882	-6.92
668.914	-3.92
668.946	-1.92
668.977	6.08
669.009	0.08
669.04	-7.92
669.072	8.08
669.103	6.08
669.135	18.08
669.166	7.08
669.198	6.08
669.229	-4.92
669.261	3.08
669.292	5.08
669.324	14.08
669.355	5.08
669.387	-3.92
669.418	13.08
669.45	10.08
669.481	7.08
669.513	9.08
669.544	-4.92
669.576	7.08
669.607	11.08
669.639	13.08
669.67	-4.92
669.701	5.08
669.733	6.08
669.764	7.08
669.796	7.08
669.827	3.08
669.859	-11.92
669.89	6.08
669.922	11.08
669.953	6.08
669.985	6.08
670.016	13.08
670.047	8.08
670.079	-5.92
670.11	7.08
670.142	3.08
670.173	5.08
670.204	2.08
670.236	-1.92
670.267	-0.92
670.299	13.08
670.33	10.08
670.362	10.08
670.393	-15.92
670.424	11.08
670.456	-12.92
670.487	-10.92
670.518	7.08
670.55	8.08
670.581	-0.92
670.613	4.08
670.644	-7.92
670.675	-5.92
670.707	-2.92
670.738	8.08
670.769	1.08
670.801	-7.92
670.832	12.08
670.864	-20.92
670.895	17.08
670.926	-4.92
670.958	-3.92
670.989	2.08
671.02	1.08
671.052	-11.92
671.083	-16.92
671.114	-17.92
671.146	15.08
671.177	-2.92
671.208	-4.92
671.24	-4.92
671.271	-0.92
671.302	7.08
671.333	-8.92
671.365	-2.92
671.396	1.08
671.427	10.08
671.459	14.08
671.49	14.08
671.521	6.08
671.553	2.08
671.584	11.08
671.615	-18.92
671.646	4.08
671.678	8.08
671.709	-12.92
671.74	-25.92
671.771	3.08
671.803	2.08
671.834	4.08
671.865	2.08
671.896	10.08
671.928	4.08
671.959	5.08
671.99	-1.92
672.021	2.08
672.053	3.08
672.084	19.08
672.115	14.08
672.146	2.08
672.178	-18.92
672.209	6.08
672.24	-6.92
672.271	22.08
672.303	-1.92
672.334	10.08
672.365	-18.92
672.396	6.08
672.427	2.08
672.459	11.08
672.49	17.08
672.521	-1.92
672.552	26.08
672.583	15.08
672.615	-4.92
672.646	15.08
672.677	-1.92
672.708	-13.92
672.739	2.08
672.77	12.08
672.802	0.08
672.833	5.08
672.864	-5.92
672.895	-4.92
672.926	-12.92
672.957	2.08
672.989	9.08
673.02	-1.92
673.051	2.08
673.082	13.08
673.113	-4.92
673.144	10.08
673.175	10.08
673.206	0.08
673.238	9.08
673.269	-4.92
673.3	-4.92
673.331	12.08
673.362	-0.92
673.393	2.08
673.424	12.08
673.455	10.08
673.487	10.08
673.518	8.08
673.549	10.08
673.58	-5.92
673.611	4.08
673.642	0.08
673.673	-8.92
673.704	-6.92
673.735	14.08
673.766	10.08
673.797	-10.92
673.828	-3.92
673.86	-17.92
673.891	-14.92
673.922	-12.92
673.953	-1.92
673.984	-3.92
674.015	22.08
674.046	6.08
674.077	11.08
674.108	-13.92
674.139	-10.92
674.17	-12.92
674.201	-5.92
674.232	-6.92
674.263	0.08
674.294	-0.92
674.325	-3.92
674.356	5.08
674.387	29.08
674.418	5.08
674.449	-1.92
674.48	-3.92
674.511	8.08
674.542	10.08
674.573	-4.92
674.604	-1.92
674.635	0.08
674.666	2.08
674.697	-10.92
674.728	3.08
674.759	3.08
674.79	-9.92
674.821	-18.92
674.852	9.08
674.883	-6.92
674.914	-0.92
674.945	12.08
674.976	-2.92
675.007	8.08
675.038	-12.92
675.069	-14.92
675.1	-8.92
675.131	9.08
675.162	-6.92
675.193	-11.92
675.224	-2.92
675.254	1.08
675.285	14.08
675.316	-0.92
675.347	19.08
675.378	1.08
675.409	-8.92
675.44	3.08
675.471	9.08
675.502	2.08
675.533	7.08
675.564	4.08
675.595	1.08
675.625	15.08
675.656	14.08
675.687	-7.92
675.718	-6.92
675.749	6.08
675.78	21.08
675.811	14.08
675.842	14.08
675.873	6.08
675.903	-2.92
675.934	18.08
675.965	11.08
675.996	-9.92
676.027	3.08
676.058	8.08
676.089	-12.92
676.119	-9.92
676.15	-9.92
676.181	4.08
676.212	0.08
676.243	17.08
676.274	-0.92
676.304	31.08
676.335	-0.92
676.366	-7.92
676.397	0.08
676.428	4.08
676.459	10.08
676.489	10.08
676.52	26.08
676.551	-1.92
676.582	5.08
676.613	17.08
676.643	-3.92
676.674	27.08
676.705	-1.92
676.736	-0.92
676.767	21.08
676.797	10.08
676.828	8.08
676.859	-10.92
676.89	-1.92
676.92	12.08
676.951	17.08
676.982	-3.92
677.013	8.08
677.044	18.08
677.074	12.08
677.105	1.08
677.136	-5.92
677.167	7.08
677.197	3.08
677.228	6.08
677.259	-1.92
677.289	-5.92
677.32	-4.92
677.351	-2.92
677.382	-6.92
677.412	-5.92
677.443	7.08
677.474	-8.92
677.505	2.08
677.535	-0.92
677.566	11.08
677.597	-13.92
677.627	-11.92
677.658	8.08
677.689	3.08
677.72	-1.92
677.75	-3.92
677.781	-0.92
677.812	11.08
677.842	6.08
677.873	7.08
677.904	-0.92
677.934	-2.92
677.965	-4.92
677.996	-18.92
678.026	2.08
678.057	1.08
678.088	-17.92
678.118	-5.92
678.149	-5.92
678.18	-2.92
678.21	10.08
678.241	0.08
678.272	9.08
678.302	10.08
678.333	6.08
678.363	13.08
678.394	0.08
678.425	-1.92
678.455	9.08
678.486	13.08
678.517	-19.92
678.547	6.08
678.578	21.08
678.608	-6.92
678.639	3.08
678.67	-10.92
678.7	-12.92
678.731	1.08
678.761	-0.92
678.792	6.08
678.823	6.08
678.853	-1.92
678.884	2.08
678.914	-3.92
678.945	4.08
678.975	0.08
679.006	3.08
679.037	-2.92
679.067	29.08
679.098	1.08
679.128	-6.92
679.159	-0.92
679.189	9.08
679.22	0.08
679.25	11.08
679.281	6.08
679.312	2.08
679.342	11.08
679.373	11.08
679.403	-9.92
679.434	2.08
679.464	6.08
679.495	20.08
679.525	10.08
679.556	-3.92
679.586	3.08
679.617	7.08
679.647	7.08
679.678	-7.92
679.708	-9.92
679.739	-4.92
679.769	-3.92
679.8	-11.92
679.83	-6.92
679.861	21.08
679.891	-14.92
679.922	-4.92
679.952	2.08
679.983	2.08
680.013	4.08
680.044	1.08
680.074	21.08
680.105	8.08
680.135	11.08
680.165	13.08
680.196	13.08
680.226	-7.92
680.257	19.08
680.287	-0.92
680.318	-4.92
680.348	-10.92
680.379	30.08
680.409	12.08
680.439	7.08
680.47	4.08
680.5	11.08
680.531	-8.92
680.561	15.08
680.592	4.08
680.622	16.08
680.652	17.08
680.683	21.08
680.713	11.08
680.744	-15.92
680.774	-3.92
680.804	8.08
680.835	-0.92
680.865	-13.92
680.896	7.08
680.926	16.08
680.956	7.08
680.987	13.08
681.017	2.08
681.047	12.08
681.078	-6.92
681.108	10.08
681.139	6.08
681.169	-4.92
681.199	-1.92
681.23	7.08
681.26	-3.92
681.29	-0.92
681.321	-10.92
681.351	-5.92
681.381	1.08
681.412	13.08
681.442	6.08
681.472	11.08
681.503	5.08
681.533	11.08
681.563	-2.92
681.594	-12.92
681.624	19.08
681.654	-7.92
681.685	3.08
681.715	2.08
681.745	-0.92
681.775	7.08
681.806	-0.92
681.836	1.08
681.866	-5.92
681.897	5.08
681.927	-6.92
681.957	-16.92
681.987	3.08
682.018	5.08
682.048	10.08
682.078	7.08
682.109	23.08
682.139	16.08
682.169	4.08
682.199	12.08
682.23	-3.92
682.26	16.08
682.29	-6.92
682.32	-1.92
682.351	5.08
682.381	-5.92
682.411	-8.92
682.441	-5.92
682.472	-2.92
682.502	12.08
682.532	5.08
682.562	-19.92
682.592	-5.92
682.623	2.08
682.653	-16.92
682.683	-1.92
682.713	17.08
682.743	7.08
682.774	-16.92
682.804	-6.92
682.834	24.08
682.864	11.08
682.894	4.08
682.925	-12.92
682.955	-1.92
682.985	9.08
683.015	14.08
683.045	5.08
683.076	-7.92
683.106	16.08
683.136	22.08
683.166	-16.92
683.196	-7.92
683.226	3.08
683.257	-15.92
683.287	-5.92
683.317	-9.92
683.347	4.08
683.377	-8.92
683.407	13.08
683.437	2.08
683.468	13.08
683.498	-1.92
683.528	-0.92
683.558	-2.92
683.588	10.08
683.618	-13.92
683.648	7.08
683.678	18.08
683.708	11.08
683.739	-9.92
683.769	6.08
683.799	12.08
683.829	9.08
683.859	2.08
683.889	7.08
683.919	19.08
683.949	9.08
683.979	-0.92
684.009	5.08
684.039	1.08
684.07	-5.92
684.1	7.08
684.13	3.08
684.16	12.08
684.19	-3.92
684.22	11.08
684.25	4.08
684.28	-0.92
684.31	9.08
684.34	15.08
684.37	5.08
684.4	-20.92
684.43	-7.92
684.46	1.08
684.49	-5.92
684.52	2.08
684.55	7.08
684.58	-2.92
684.61	15.08
684.64	21.08
684.67	7.08
684.7	1.08
684.73	13.08
684.76	4.08
684.79	29.08
684.82	9.08
684.85	-0.92
684.88	1.08
684.91	-4.92
684.94	10.08
684.97	-6.92
685	-0.92
685.03	0.08
685.06	-7.92
685.09	-0.92
685.12	-0.92
685.15	4.08
685.18	5.08
685.21	2.08
685.24	10.08
685.27	10.08
685.3	3.08
685.33	6.08
685.36	-6.92
685.39	13.08
685.42	-7.92
685.45	-11.92
685.48	1.08
685.51	-20.92
685.54	6.08
685.569	14.08
685.599	21.08
685.629	6.08
685.659	-0.92
685.689	-2.92
685.719	13.08
685.749	-19.92
685.779	8.08
685.809	12.08
685.839	3.08
685.869	10.08
685.898	12.08
685.928	11.08
685.958	9.08
685.988	21.08
686.018	5.08
686.048	23.08
686.078	26.08
686.108	14.08
686.137	-7.92
686.167	21.08
686.197	-3.92
686.227	-1.92
686.257	30.08
686.287	26.08
686.317	10.08
686.346	-11.92
686.376	-13.92
686.406	-3.92
686.436	8.08
686.466	1.08
686.496	16.08
686.525	5.08
686.555	2.08
686.585	14.08
686.615	33.08
686.645	1.08
686.675	-13.92
686.704	5.08
686.734	2.08
686.764	-0.92
686.794	6.08
686.824	4.08
686.853	15.08
686.883	15.08
686.913	25.08
686.943	9.08
686.973	1.08
687.002	-5.92
687.032	10.08
687.062	-6.92
687.092	11.08
687.121	2.08
687.151	-6.92
687.181	2.08
687.211	23.08
687.24	0.08
687.27	-7.92
687.3	8.08
687.33	-2.92
687.359	-18.92
687.389	-6.92
687.419	13.08
687.449	-4.92
687.478	-3.92
687.508	7.08
687.538	10.08
687.568	12.08
687.597	1.08
687.627	-18.92
687.657	-6.92
687.686	2.08
687.716	17.08
687.746	4.08
687.776	2.08
687.805	23.08
687.835	14.08
687.865	6.08
687.894	11.08
687.924	-6.92
687.954	18.08
687.983	13.08
688.013	13.08
688.043	9.08
688.072	-2.92
688.102	1.08
688.132	-2.92
688.161	-11.92
688.191	9.08
688.221	21.08
688.25	-6.92
688.28	4.08
688.31	2.08
688.339	20.08
688.369	-11.92
688.399	-16.92
688.428	-1.92
688.458	3.08
688.488	-9.92
688.517	10.08
688.547	2.08
688.576	33.08
688.606	4.08
688.636	1.08
688.665	-3.92
688.695	-1.92
688.725	10.08
688.754	15.08
688.784	4.08
688.813	7.08
688.843	6.08
688.873	-5.92
688.902	-10.92
688.932	3.08
688.961	2.08
688.991	23.08
689.02	14.08
689.05	-9.92
689.08	10.08
689.109	16.08
689.139	10.08
689.168	4.08
689.198	-9.92
689.227	-1.92
689.257	21.08
689.287	8.08
689.316	8.08
689.346	6.08
689.375	-12.92
689.405	9.08
689.434	-0.92
689.464	15.08
689.493	13.08
689.523	-2.92
689.552	-2.92
689.582	9.08
689.611	6.08
689.641	33.08
689.67	1.08
689.7	11.08
689.73	15.08
689.759	13.08
689.789	22.08
689.818	-0.92
689.848	2.08
689.877	14.08
689.906	10.08
689.936	-3.92
689.965	8.08
689.995	14.08
690.024	17.08
690.054	4.08
690.083	3.08
690.113	14.08
690.142	8.08
690.172	-7.92
690.201	-3.92
690.231	2.08
690.26	3.08
690.29	2.08
690.319	19.08
690.348	-12.92
690.378	-0.92
690.407	10.08
690.437	-6.92
690.466	-6.92
690.496	-4.92
690.525	12.08
690.555	-4.92
690.584	9.08
690.613	1.08
690.643	10.08
690.672	15.08
690.702	15.08
690.731	6.08
690.76	-11.92
690.79	-7.92
690.819	14.08
690.849	6.08
690.878	1.08
690.907	11.08
690.937	32.08
690.966	4.08
690.996	7.08
691.025	-5.92
691.054	-2.92
691.084	5.08
691.113	18.08
691.142	8.08
691.172	1.08
691.201	13.08
691.23	-2.92
691.26	16.08
691.289	-2.92
691.319	1.08
691.348	4.08
691.377	15.08
691.407	9.08
691.436	10.08
691.465	-8.92
691.495	11.08
691.524	-14.92
691.553	-2.92
691.583	-7.92
691.612	26.08
691.641	1.08
691.67	6.08
691.7	8.08
691.729	-23.92
691.758	7.08
691.788	-6.92
691.817	-5.92
691.846	-1.92
691.876	13.08
691.905	10.08
691.934	-1.92
691.963	6.08
691.993	6.08
692.022	-2.92
692.051	1.08
692.081	3.08
692.11	10.08
692.139	13.08
692.168	6.08
692.198	21.08
692.227	3.08
692.256	14.08
692.285	7.08
692.315	10.08
692.344	-3.92
692.373	4.08
692.402	-4.92
692.432	-7.92
692.461	-5.92
692.49	3.08
692.519	6.08
692.548	22.08
692.578	3.08
692.607	5.08
692.636	-0.92
692.665	11.08
692.694	4.08
692.724	1.08
692.753	-0.92
692.782	5.08
692.811	-9.92
692.84	2.08
692.87	2.08
692.899	-10.92
692.928	-2.92
692.957	12.08
692.986	-1.92
693.016	-3.92
693.045	14.08
693.074	10.08
693.103	-2.92
693.132	-4.92
693.161	22.08
693.191	-0.92
693.22	-21.92
693.249	2.08
693.278	13.08
693.307	23.08
693.336	-23.92
693.365	-11.92
693.395	-3.92
693.424	7.08
693.453	12.08
693.482	-4.92
693.511	13.08
693.54	13.08
693.569	13.08
693.598	-2.92
693.628	9.08
693.657	-4.92
693.686	25.08
693.715	6.08
693.744	13.08
693.773	26.08
693.802	-2.92
693.831	-3.92
693.86	15.08
693.889	3.08
693.919	3.08
693.948	3.08
693.977	10.08
694.006	0.08
694.035	-4.92
694.064	-2.92
694.093	3.08
694.122	-0.92
694.151	-11.92
694.18	9.08
694.209	28.08
694.238	12.08
694.267	25.08
694.296	22.08
694.325	8.08
694.354	13.08
694.383	9.08
694.412	-5.92
694.441	0.08
694.471	-6.92
694.5	2.08
694.529	1.08
694.558	15.08
694.587	15.08
694.616	-12.92
694.645	-2.92
694.674	26.08
694.703	27.08
694.732	1.08
694.761	19.08
694.79	15.08
694.819	-18.92
694.848	-3.92
694.877	13.08
694.906	33.08
694.935	6.08
694.963	24.08
694.992	-3.92
695.021	3.08
695.05	-3.92
695.079	1.08
695.108	-0.92
695.137	13.08
695.166	-2.92
695.195	2.08
695.224	2.08
695.253	-11.92
695.282	11.08
695.311	8.08
695.34	-1.92
695.369	14.08
695.398	-4.92
695.427	18.08
695.456	16.08
695.485	3.08
695.513	12.08
695.542	13.08
695.571	0.08
695.6	25.08
695.629	-3.92
695.658	11.08
695.687	4.08
695.716	9.08
695.745	16.08
695.774	-2.92
695.802	4.08
695.831	10.08
695.86	17.08
695.889	23.08
695.918	-4.92
695.947	1.08
695.976	-4.92
696.005	4.08
696.033	10.08
696.062	20.08
696.091	28.08
696.12	18.08
696.149	19.08
696.178	10.08
696.207	6.08
696.235	-14.92
696.264	-4.92
696.293	2.08
696.322	12.08
696.351	20.08
696.38	10.08
696.408	13.08
696.437	-2.92
696.466	2.08
696.495	24.08
696.524	11.08
696.553	15.08
696.581	21.08
696.61	1.08
696.639	-6.92
696.668	6.08
696.697	-5.92
696.725	5.08
696.754	-0.92
696.783	-2.92
696.812	11.08
696.84	14.08
696.869	10.08
696.898	11.08
696.927	5.08
696.956	18.08
696.984	2.08
697.013	-4.92
697.042	0.08
697.071	-1.92
697.099	15.08
697.128	15.08
697.157	15.08
697.186	-10.92
697.214	-9.92
697.243	9.08
697.272	9.08
697.301	1.08
697.329	6.08
697.358	7.08
697.387	22.08
697.415	14.08
697.444	-9.92
697.473	1.08
697.502	-3.92
697.53	23.08
697.559	7.08
697.588	14.08
697.616	3.08
697.645	-1.92
697.674	20.08
697.703	19.08
697.731	12.08
697.76	17.08
697.789	-1.92
697.817	10.08
697.846	21.08
697.875	18.08
697.903	22.08
697.932	18.08
697.961	7.08
697.989	-5.92
698.018	1.08
698.047	-4.92
698.075	7.08
698.104	-6.92
698.133	2.08
698.161	-4.92
698.19	5.08
698.218	-5.92
698.247	10.08
698.276	-1.92
698.304	13.08
698.333	-6.92
698.362	6.08
698.39	2.08
698.419	6.08
698.447	5.08
698.476	3.08
698.505	14.08
698.533	15.08
698.562	12.08
698.591	3.08
698.619	-11.92
698.648	-0.92
698.676	11.08
698.705	6.08
698.733	4.08
698.762	28.08
698.791	3.08
698.819	2.08
698.848	4.08
698.876	16.08
698.905	2.08
698.933	12.08
698.962	6.08
698.991	10.08
699.019	6.08
699.048	13.08
699.076	21.08
699.105	10.08
699.133	-5.92
699.162	-9.92
699.19	18.08
699.219	10.08
699.248	5.08
699.276	-1.92
699.305	-10.92
699.333	4.08
699.362	5.08
699.39	13.08
699.419	-1.92
699.447	8.08
699.476	9.08
699.504	4.08
699.533	-0.92
699.561	-10.92
699.59	2.08
699.618	-8.92
699.647	5.08
699.675	1.08
699.704	4.08
699.732	-3.92
699.761	19.08
699.789	-6.92
699.818	20.08
699.846	10.08
699.874	-3.92
699.903	2.08
699.931	1.08
699.96	16.08
699.988	5.08
700.017	-0.92
700.045	-3.92
700.074	12.08
700.102	-4.92
700.13	-2.92
700.159	16.08
700.187	1.08
700.216	23.08
700.244	1.08
700.273	-5.92
700.301	3.08
700.329	12.08
700.358	19.08
700.386	12.08
700.415	9.08
700.443	10.08
700.472	7.08
700.5	13.08
700.528	-1.92
700.557	11.08
700.585	-3.92
700.614	3.08
700.642	10.08
700.67	14.08
700.699	15.08
700.727	14.08
700.755	12.08
700.784	9.08
700.812	-6.92
700.841	5.08
700.869	0.08
700.897	-16.92
700.926	-2.92
700.954	-0.92
700.982	7.08
701.011	-1.92
701.039	6.08
701.067	-11.92
701.096	6.08
701.124	4.08
701.152	17.08
701.181	7.08
701.209	-12.92
701.237	-4.92
701.266	-14.92
701.294	-18.92
701.322	-3.92
701.351	26.08
701.379	-8.92
701.407	-1.92
701.435	-3.92
701.464	4.08
701.492	17.08
701.52	-11.92
701.549	2.08
701.577	-6.92
701.605	1.08
701.634	4.08
701.662	3.08
701.69	-9.92
701.718	-3.92
701.747	-2.92
701.775	-17.92
701.803	1.08
701.831	18.08
701.86	-1.92
701.888	8.08
701.916	-2.92
701.944	7.08
701.973	-4.92
702.001	-10.92
702.029	-12.92
702.057	-9.92
702.086	0.08
702.114	-5.92
702.142	4.08
702.17	-6.92
702.199	5.08
702.227	10.08
702.255	16.08
702.283	-1.92
702.311	2.08
702.34	-5.92
702.368	-5.92
702.396	-0.92
702.424	17.08
702.452	-6.92
702.481	11.08
702.509	8.08
702.537	15.08
702.565	16.08
702.593	-16.92
702.621	13.08
702.65	22.08
702.678	9.08
702.706	13.08
702.734	0.08
702.762	13.08
702.79	5.08
702.819	0.08
702.847	6.08
702.875	22.08
702.903	10.08
702.931	-6.92
702.959	2.08
702.988	2.08
703.016	-1.92
703.044	-1.92
703.072	1.08
703.1	2.08
703.128	3.08
703.156	15.08
703.184	5.08
703.212	23.08
703.241	33.08
703.269	-2.92
703.297	12.08
703.325	1.08
703.353	-7.92
703.381	-14.92
703.409	7.08
703.437	-6.92
703.465	-0.92
703.493	-9.92
703.522	2.08
703.55	3.08
703.578	-2.92
703.606	-10.92
703.634	4.08
703.662	-2.92
703.69	8.08
703.718	10.08
703.746	11.08
703.774	5.08
703.802	20.08
703.83	2.08
703.858	1.08
703.886	-11.92
703.914	-20.92
703.942	13.08
703.97	8.08
703.998	-2.92
704.027	13.08
704.055	-4.92
704.083	-3.92
704.111	-18.92
704.139	1.08
704.167	-1.92
704.195	11.08
704.223	12.08
704.251	-3.92
704.279	-1.92
704.307	15.08
704.335	2.08
704.363	27.08
704.391	10.08
704.419	-9.92
704.447	-6.92
704.475	-0.92
704.503	-8.92
704.531	15.08
704.558	21.08
704.586	-10.92
704.614	-2.92
704.642	2.08
704.67	-11.92
704.698	-6.92
704.726	-1.92
704.754	-14.92
704.782	7.08
704.81	3.08
704.838	13.08
704.866	25.08
704.894	-3.92
704.922	-5.92
704.95	24.08
704.978	5.08
705.006	10.08
705.034	7.08
705.061	-16.92
705.089	6.08
705.117	-16.92
705.145	2.08
705.173	-5.92
705.201	-0.92
705.229	4.08
705.257	10.08
705.285	8.08
705.313	3.08
705.34	12.08
705.368	-10.92
705.396	1.08
705.424	4.08
705.452	-3.92
705.48	-6.92
705.508	-14.92
705.536	-1.92
705.563	-13.92
705.591	12.08
705.619	0.08
705.647	-20.92
705.675	4.08
705.703	14.08
705.731	10.08
705.758	7.08
705.786	6.08
705.814	25.08
705.842	9.08
705.87	8.08
705.898	2.08
705.925	-5.92
705.953	14.08
705.981	-3.92
706.009	-5.92
706.037	1.08
706.065	-4.92
706.092	-6.92
706.12	14.08
706.148	15.08
706.176	17.08
706.204	3.08
706.231	8.08
706.259	9.08
706.287	-4.92
706.315	-5.92
706.342	3.08
706.37	13.08
706.398	10.08
706.426	-6.92
706.454	-1.92
706.481	1.08
706.509	13.08
706.537	-2.92
706.565	-10.92
706.592	12.08
706.62	12.08
706.648	7.08
706.676	-5.92
706.703	21.08
706.731	15.08
706.759	-1.92
706.787	-3.92
706.814	8.08
706.842	5.08
706.87	0.08
706.897	-0.92
706.925	-10.92
706.953	21.08
706.981	23.08
707.008	5.08
707.036	20.08
707.064	2.08
707.091	-21.92
707.119	3.08
707.147	1.08
707.174	-6.92
707.202	5.08
707.23	4.08
707.258	2.08
707.285	-11.92
707.313	2.08
707.341	2.08
707.368	-2.92
707.396	13.08
707.424	23.08
707.451	12.08
707.479	17.08
707.507	-8.92
707.534	-3.92
707.562	1.08
707.59	13.08
707.617	-11.92
707.645	-9.92
707.672	-7.92
707.7	7.08
707.728	13.08
707.755	-1.92
707.783	-4.92
707.811	7.08
707.838	6.08
707.866	7.08
707.893	-0.92
707.921	-1.92
707.949	-2.92
707.976	-5.92
708.004	-2.92
708.031	-1.92
708.059	-16.92
708.087	2.08
708.114	-3.92
708.142	6.08
708.169	-8.92
708.197	-0.92
708.225	4.08
708.252	7.08
708.28	10.08
708.307	12.08
708.335	7.08
708.362	2.08
708.39	-21.92
708.418	-5.92
708.445	-5.92
708.473	-17.92
708.5	2.08
708.528	12.08
708.555	4.08
708.583	5.08
708.61	-13.92
708.638	9.08
708.665	-7.92
708.693	4.08
708.72	-0.92
708.748	-2.92
708.776	-10.92
708.803	8.08
708.831	6.08
708.858	9.08
708.886	-6.92
708.913	8.08
708.941	-1.92
708.968	12.08
708.996	-2.92
709.023	25.08
709.051	-10.92
709.078	-2.92
709.105	3.08
709.133	-0.92
709.16	6.08
709.188	13.08
709.215	5.08
709.243	15.08
709.27	-2.92
709.298	-20.92
709.325	5.08
709.353	14.08
709.38	12.08
709.408	20.08
709.435	-1.92
709.462	6.08
709.49	15.08
709.517	6.08
709.545	2.08
709.572	-7.92
709.6	5.08
709.627	-4.92
709.655	-1.92
709.682	-8.92
709.709	10.08
709.737	11.08
709.764	13.08
709.792	16.08
709.819	-0.92
709.846	-11.92
709.874	1.08
709.901	11.08
709.929	16.08
709.956	16.08
709.983	-13.92
710.011	0.08
710.038	-2.92
710.066	14.08
710.093	14.08
710.12	7.08
710.148	3.08
710.175	6.08
710.202	-8.92
710.23	2.08
710.257	-10.92
710.284	-6.92
710.312	-5.92
710.339	1.08
710.366	1.08
710.394	2.08
710.421	4.08
710.448	6.08
710.476	-20.92
710.503	-1.92
710.53	16.08
710.558	10.08
710.585	11.08
710.612	2.08
710.64	-3.92
710.667	-9.92
710.694	-8.92
710.722	5.08
710.749	4.08
710.776	7.08
710.804	22.08
710.831	2.08
710.858	13.08
710.885	-2.92
710.913	14.08
710.94	24.08
710.967	-2.92
710.995	10.08
711.022	11.08
711.049	10.08
711.076	-17.92
711.104	-4.92
711.131	4.08
711.158	14.08
711.185	21.08
711.213	-7.92
711.24	-11.92
711.267	-8.92
711.294	5.08
711.322	33.08
711.349	1.08
711.376	1.08
711.403	-1.92
711.431	1.08
711.458	8.08
711.485	-12.92
711.512	-4.92
711.54	-0.92
711.567	-1.92
711.594	-2.92
711.621	2.08
711.648	7.08
711.676	4.08
711.703	10.08
711.73	5.08
711.757	2.08
711.784	-3.92
711.812	4.08
711.839	-8.92
711.866	-2.92
711.893	-8.92
711.92	-2.92
711.947	2.08
711.975	8.08
712.002	-8.92
712.029	12.08
712.056	0.08
712.083	15.08
712.11	-10.92
712.138	-4.92
712.165	13.08
712.192	11.08
712.219	-7.92
712.246	3.08
712.273	-10.92
712.3	-11.92
712.328	7.08
712.355	2.08
712.382	-1.92
712.409	23.08
712.436	-12.92
712.463	3.08
712.49	-4.92
712.517	21.08
712.544	-0.92
712.572	-6.92
712.599	-4.92
712.626	7.08
712.653	5.08
712.68	7.08
712.707	15.08
712.734	2.08
712.761	4.08
712.788	0.08
712.815	-5.92
712.842	11.08
712.87	-9.92
712.897	-11.92
712.924	-7.92
712.951	5.08
712.978	2.08
713.005	8.08
713.032	10.08
713.059	-6.92
713.086	5.08
713.113	-1.92
713.14	5.08
713.167	10.08
713.194	20.08
713.221	18.08
713.248	11.08
713.275	6.08
713.302	-7.92
713.329	10.08
713.356	33.08
713.383	8.08
713.41	15.08
713.437	-13.92
713.464	1.08
713.491	13.08
713.518	-4.92
713.545	-5.92
713.572	-10.92
713.599	12.08
713.626	0.08
713.653	17.08
713.68	-4.92
713.707	2.08
713.734	10.08
713.761	9.08
713.788	-2.92
713.815	4.08
713.842	9.08
713.869	-3.92
713.896	-3.92
713.923	-10.92
713.95	4.08
713.977	-5.92
714.004	2.08
714.031	6.08
714.058	2.08
714.085	10.08
714.112	11.08
714.139	15.08
714.165	-9.92
714.192	4.08
714.219	8.08
714.246	-2.92
714.273	7.08
714.3	-1.92
714.327	10.08
714.354	11.08
714.381	-2.92
714.408	-5.92
714.435	2.08
714.461	5.08
714.488	18.08
714.515	3.08
714.542	5.08
714.569	-7.92
714.596	-6.92
714.623	-13.92
714.65	-14.92
714.677	6.08
714.703	13.08
714.73	10.08
714.757	18.08
714.784	5.08
714.811	2.08
714.838	9.08
714.865	8.08
714.891	18.08
714.918	1.08
714.945	-6.92
714.972	-1.92
714.999	12.08
715.026	-3.92
715.052	19.08
715.079	4.08
715.106	3.08
715.133	-4.92
715.16	-8.92
715.187	9.08
715.213	3.08
715.24	-6.92
715.267	-2.92
715.294	-2.92
715.321	-5.92
715.347	-1.92
715.374	-7.92
715.401	0.08
715.428	4.08
715.455	0.08
715.481	-9.92
715.508	9.08
715.535	2.08
715.562	25.08
715.588	5.08
715.615	-11.92
715.642	-7.92
715.669	6.08
715.695	-12.92
715.722	1.08
715.749	-4.92
715.776	1.08
715.802	2.08
715.829	8.08
715.856	-4.92
715.883	5.08
715.909	2.08
715.936	11.08
715.963	3.08
715.99	-5.92
716.016	12.08
716.043	6.08
716.07	2.08
716.096	-2.92
716.123	-3.92
716.15	20.08
716.177	-1.92
716.203	14.08
716.23	10.08
716.257	16.08
716.283	22.08
716.31	9.08
716.337	6.08
716.363	-3.92
716.39	1.08
716.417	19.08
716.443	4.08
716.47	10.08
716.497	6.08
716.523	10.08
716.55	13.08
716.577	1.08
716.603	-5.92
716.63	2.08
716.657	12.08
716.683	-2.92
716.71	-8.92
716.737	0.08
716.763	14.08
716.79	10.08
716.817	2.08
716.843	-1.92
716.87	-4.92
716.897	-5.92
716.923	19.08
716.95	4.08
716.976	3.08
717.003	0.08
717.03	1.08
717.056	13.08
717.083	-1.92
717.109	20.08
717.136	10.08
717.163	-11.92
717.189	-0.92
717.216	-1.92
717.242	-2.92
717.269	5.08
717.296	-5.92
717.322	8.08
717.349	-0.92
717.375	23.08
717.402	-0.92
717.428	-5.92
717.455	20.08
717.481	14.08
717.508	16.08
717.535	0.08
717.561	4.08
717.588	-5.92
717.614	0.08
717.641	17.08
717.667	16.08
717.694	5.08
717.72	2.08
717.747	6.08
717.773	-12.92
717.8	9.08
717.826	7.08
717.853	17.08
717.88	9.08
717.906	-4.92
717.933	11.08
717.959	3.08
717.986	13.08
718.012	9.08
718.039	14.08
718.065	14.08
718.092	0.08
718.118	-10.92
718.144	15.08
718.171	19.08
718.197	26.08
718.224	-2.92
718.25	13.08
718.277	15.08
718.303	10.08
718.33	6.08
718.356	-1.92
718.383	3.08
718.409	4.08
718.436	-3.92
718.462	-4.92
718.489	-8.92
718.515	15.08
718.541	12.08
718.568	11.08
718.594	-0.92
718.621	13.08
718.647	7.08
718.674	12.08
718.7	17.08
718.726	3.08
718.753	2.08
718.779	15.08
718.806	5.08
718.832	1.08
718.858	-1.92
718.885	-12.92
718.911	12.08
718.938	14.08
718.964	-2.92
718.99	-12.92
719.017	6.08
719.043	15.08
719.07	13.08
719.096	-6.92
719.122	-0.92
719.149	12.08
719.175	2.08
719.201	4.08
719.228	-4.92
719.254	-7.92
719.281	-8.92
719.307	-3.92
719.333	-12.92
719.36	5.08
719.386	-6.92
719.412	-3.92
719.439	-13.92
719.465	4.08
719.491	5.08
719.518	-1.92
719.544	-2.92
719.57	12.08
719.597	1.08
719.623	-11.92
719.649	3.08
719.675	-5.92
719.702	-0.92
719.728	20.08
719.754	-8.92
719.781	-7.92
719.807	9.08
719.833	6.08
719.86	-0.92
719.886	12.08
719.912	0.08
719.938	1.08
719.965	4.08
719.991	-0.92
720.017	8.08
720.044	-7.92
720.07	6.08
720.096	3.08
720.122	17.08
720.149	10.08
720.175	36.08
720.201	16.08
720.227	5.08
720.254	-10.92
720.28	19.08
720.306	-6.92
720.332	8.08
720.359	15.08
720.385	-1.92
720.411	11.08
720.437	5.08
720.463	1.08
720.49	18.08
720.516	-1.92
720.542	0.08
720.568	5.08
720.595	7.08
720.621	-4.92
720.647	-2.92
720.673	-0.92
720.699	1.08
720.725	-1.92
720.752	6.08
720.778	4.08
720.804	-1.92
720.83	3.08
720.856	6.08
720.883	-1.92
720.909	-11.92
720.935	8.08
720.961	14.08
720.987	1.08
721.013	14.08
721.04	-14.92
721.066	5.08
721.092	6.08
721.118	16.08
721.144	6.08
721.17	-7.92
721.196	5.08
721.223	-4.92
721.249	-0.92
721.275	23.08
721.301	-1.92
721.327	13.08
721.353	10.08
721.379	10.08
721.405	9.08
721.432	14.08
721.458	-6.92
721.484	-2.92
721.51	-21.92
721.536	7.08
721.562	3.08
721.588	-1.92
721.614	-9.92
721.64	1.08
721.666	-6.92
721.693	-0.92
721.719	1.08
721.745	15.08
721.771	5.08
721.797	2.08
721.823	10.08
721.849	20.08
721.875	16.08
721.901	4.08
721.927	4.08
721.953	-2.92
721.979	11.08
722.005	28.08
722.031	-4.92
722.057	8.08
722.083	6.08
722.109	19.08
722.135	21.08
722.161	0.08
722.187	-13.92
722.214	-6.92
722.24	-15.92
722.266	-3.92
722.292	10.08
722.318	5.08
722.344	-9.92
722.37	-10.92
722.396	-6.92
722.422	-0.92
722.448	16.08
722.474	7.08
722.5	4.08
722.526	23.08
722.552	5.08
722.578	-9.92
722.603	7.08
722.629	1.08
722.655	0.08
722.681	2.08
722.707	-0.92
722.733	-3.92
722.759	2.08
722.785	6.08
722.811	3.08
722.837	2.08
722.863	-1.92
722.889	8.08
722.915	-14.92
722.941	9.08
722.967	-2.92
722.993	5.08
723.019	13.08
723.045	23.08
723.071	-7.92
723.097	5.08
723.122	9.08
723.148	-10.92
723.174	-2.92
723.2	-0.92
723.226	-2.92
723.252	10.08
723.278	-0.92
723.304	1.08
723.33	2.08
723.356	1.08
723.381	-11.92
723.407	2.08
723.433	19.08
723.459	-1.92
723.485	2.08
723.511	20.08
723.537	9.08
723.563	11.08
723.588	10.08
723.614	20.08
723.64	1.08
723.666	-20.92
723.692	-2.92
723.718	0.08
723.744	2.08
723.769	0.08
723.795	-10.92
723.821	1.08
723.847	-14.92
723.873	-3.92
723.899	2.08
723.924	1.08
723.95	0.08
723.976	-22.92
724.002	8.08
724.028	18.08
724.053	-0.92
724.079	-9.92
724.105	-5.92
724.131	-8.92
724.157	3.08
724.182	20.08
724.208	16.08
724.234	3.08
724.26	-5.92
724.286	17.08
724.311	10.08
724.337	-8.92
724.363	-12.92
724.389	-1.92
724.415	5.08
724.44	25.08
724.466	9.08
724.492	-1.92
724.518	2.08
724.543	7.08
724.569	13.08
724.595	5.08
724.621	-4.92
724.646	-0.92
724.672	-3.92
724.698	-11.92
724.723	-8.92
724.749	2.08
724.775	25.08
724.801	16.08
724.826	9.08
724.852	-6.92
724.878	3.08
724.904	-5.92
724.929	9.08
724.955	-15.92
724.981	3.08
725.006	2.08
725.032	5.08
725.058	15.08
725.083	-6.92
725.109	-6.92
725.135	6.08
725.161	7.08
725.186	-4.92
725.212	13.08
725.238	15.08
725.263	17.08
725.289	-20.92
725.315	-4.92
725.34	15.08
725.366	0.08
725.392	-5.92
725.417	6.08
725.443	3.08
725.468	3.08
725.494	5.08
725.52	9.08
725.545	12.08
725.571	22.08
725.597	0.08
725.622	5.08
725.648	-4.92
725.674	12.08
725.699	7.08
725.725	-0.92
725.75	29.08
725.776	-9.92
725.802	3.08
725.827	6.08
725.853	-2.92
725.878	1.08
725.904	-8.92
725.93	8.08
725.955	11.08
725.981	-1.92
726.006	-3.92
726.032	6.08
726.057	1.08
726.083	3.08
726.109	3.08
726.134	13.08
726.16	2.08
726.185	-5.92
726.211	-8.92
726.236	-1.92
726.262	9.08
726.288	-7.92
726.313	7.08
726.339	2.08
726.364	-2.92
726.39	17.08
726.415	1.08
726.441	-16.92
726.466	-8.92
726.492	-1.92
726.517	5.08
726.543	-5.92
726.568	-20.92
726.594	-10.92
726.619	8.08
726.645	8.08
726.67	13.08
726.696	11.08
726.721	5.08
726.747	-7.92
726.772	-5.92
726.798	5.08
726.823	9.08
726.849	-2.92
726.874	5.08
726.9	14.08
726.925	21.08
726.951	-6.92
726.976	19.08
727.002	-9.92
727.027	-0.92
727.053	19.08
727.078	-7.92
727.104	5.08
727.129	-4.92
727.155	1.08
727.18	3.08
727.205	21.08
727.231	6.08
727.256	15.08
727.282	17.08
727.307	12.08
727.333	-8.92
727.358	-1.92
727.383	-11.92
727.409	-8.92
727.434	9.08
727.46	-1.92
727.485	6.08
727.511	17.08
727.536	-6.92
727.561	11.08
727.587	2.08
727.612	-1.92
727.637	-1.92
727.663	-0.92
727.688	11.08
727.714	1.08
727.739	-6.92
727.764	3.08
727.79	-1.92
727.815	-2.92
727.841	4.08
727.866	10.08
727.891	12.08
727.917	2.08
727.942	-6.92
727.967	-11.92
727.993	-14.92
728.018	2.08
728.043	-2.92
728.069	9.08
728.094	18.08
728.119	-6.92
728.145	16.08
728.17	4.08
728.195	-4.92
728.221	11.08
728.246	7.08
728.271	-3.92
728.297	-3.92
728.322	-18.92
728.347	-6.92
728.373	1.08
728.398	1.08
728.423	-1.92
728.448	3.08
728.474	14.08
728.499	-1.92
728.524	3.08
728.55	2.08
728.575	3.08
728.6	3.08
728.625	4.08
728.651	-2.92
728.676	-3.92
728.701	-2.92
728.727	-3.92
728.752	6.08
728.777	-2.92
728.802	-0.92
728.828	5.08
728.853	11.08
728.878	-1.92
728.903	-6.92
728.929	-3.92
728.954	-1.92
728.979	8.08
729.004	2.08
729.03	5.08
729.055	20.08
729.08	-10.92
729.105	11.08
729.13	29.08
729.156	4.08
729.181	-4.92
729.206	-8.92
729.231	-1.92
729.256	-0.92
729.282	14.08
729.307	-3.92
729.332	-11.92
729.357	9.08
729.382	2.08
729.408	7.08
729.433	-9.92
729.458	-0.92
729.483	22.08
729.508	10.08
729.533	-2.92
729.559	1.08
729.584	-6.92
729.609	15.08
729.634	1.08
729.659	6.08
729.684	-15.92
729.71	16.08
729.735	5.08
729.76	2.08
729.785	-0.92
729.81	10.08
729.835	2.08
729.86	-9.92
729.886	4.08
729.911	-6.92
729.936	5.08
729.961	5.08
729.986	-4.92
730.011	-12.92
730.036	2.08
730.061	-1.92
730.086	3.08
730.112	10.08
730.137	25.08
730.162	7.08
730.187	-11.92
730.212	-1.92
730.237	-2.92
730.262	-5.92
730.287	6.08
730.312	10.08
730.337	7.08
730.362	16.08
730.387	-12.92
730.413	4.08
730.438	-9.92
730.463	-4.92
730.488	-10.92
730.513	8.08
730.538	-4.92
730.563	10.08
730.588	4.08
730.613	13.08
730.638	12.08
730.663	2.08
730.688	16.08
730.713	11.08
730.738	20.08
730.763	12.08
730.788	-10.92
730.813	12.08
730.838	3.08
730.863	6.08
730.888	-3.92
730.913	-17.92
730.938	-14.92
730.963	4.08
730.988	-0.92
731.013	24.08
731.038	-3.92
731.063	1.08
731.088	7.08
731.113	-13.92
731.138	-1.92
731.163	-0.92
731.188	2.08
731.213	-1.92
731.238	7.08
731.263	-9.92
731.288	-6.92
731.313	10.08
731.338	11.08
731.363	-2.92
731.388	4.08
731.413	1.08
731.438	21.08
731.463	1.08
731.487	20.08
731.512	-2.92
731.537	-5.92
731.562	-5.92
731.587	13.08
731.612	-6.92
731.637	2.08
731.662	8.08
731.687	0.08
731.712	-7.92
731.737	-1.92
731.762	3.08
731.786	0.08
731.811	6.08
731.836	2.08
731.861	-6.92
731.886	-16.92
731.911	20.08
731.936	14.08
731.961	3.08
731.986	9.08
732.01	7.08
732.035	9.08
732.06	7.08
732.085	3.08
732.11	13.08
732.135	-10.92
732.16	13.08
732.184	2.08
732.209	-3.92
732.234	11.08
732.259	4.08
732.284	6.08
732.309	-7.92
732.334	-8.92
732.358	-1.92
732.383	-5.92
732.408	-7.92
732.433	14.08
732.458	7.08
732.482	15.08
732.507	1.08
732.532	13.08
732.557	12.08
732.582	2.08
732.607	-9.92
732.631	-13.92
732.656	-0.92
732.681	5.08
732.706	-4.92
732.73	16.08
732.755	-3.92
732.78	1.08
732.805	14.08
732.83	0.08
732.854	9.08
732.879	15.08
732.904	-0.92
732.929	-0.92
732.953	-2.92
732.978	7.08
733.003	5.08
733.028	1.08
733.052	11.08
733.077	-1.92
733.102	18.08
733.127	-0.92
733.151	-3.92
733.176	1.08
733.201	10.08
733.226	-6.92
733.25	-8.92
733.275	-4.92
733.3	16.08
733.324	8.08
733.349	13.08
733.374	9.08
733.399	-3.92
733.423	1.08
733.448	-1.92
733.473	-3.92
733.497	-2.92
733.522	-8.92
733.547	24.08
733.571	16.08
733.596	2.08
733.621	3.08
733.646	-0.92
733.67	2.08
733.695	2.08
733.72	-1.92
733.744	0.08
733.769	-5.92
733.794	20.08
733.818	11.08
733.843	2.08
733.867	-2.92
733.892	-5.92
733.917	19.08
733.941	13.08
733.966	-11.92
733.991	3.08
734.015	23.08
734.04	6.08
734.065	13.08
734.089	16.08
734.114	1.08
734.138	1.08
734.163	-3.92
734.188	-0.92
734.212	22.08
734.237	6.08
734.261	9.08
734.286	6.08
734.311	8.08
734.335	6.08
734.36	-9.92
734.384	1.08
734.409	-4.92
734.434	-9.92
734.458	5.08
734.483	-5.92
734.507	8.08
734.532	6.08
734.556	15.08
734.581	-4.92
734.606	6.08
734.63	-11.92
734.655	-0.92
734.679	1.08
734.704	5.08
734.728	10.08
734.753	-9.92
734.777	-3.92
734.802	-1.92
734.826	10.08
734.851	9.08
734.876	16.08
734.9	4.08
734.925	10.08
734.949	6.08
734.974	10.08
734.998	19.08
735.023	-24.92
735.047	1.08
735.072	16.08
735.096	14.08
735.121	-2.92
735.145	-3.92
735.17	4.08
735.194	25.08
735.219	6.08
735.243	-4.92
735.268	10.08
735.292	6.08
735.317	1.08
735.341	10.08
735.365	-14.92
735.39	9.08
735.414	13.08
735.439	8.08
735.463	0.08
735.488	9.08
735.512	-6.92
735.537	11.08
735.561	5.08
735.586	-2.92
735.61	22.08
735.634	-1.92
735.659	14.08
735.683	9.08
735.708	8.08
735.732	13.08
735.757	-6.92
735.781	3.08
735.805	4.08
735.83	-1.92
735.854	2.08
735.879	2.08
735.903	7.08
735.927	13.08
735.952	21.08
735.976	-6.92
736.001	-1.92
736.025	2.08
736.049	-6.92
736.074	3.08
736.098	18.08
736.123	5.08
736.147	-5.92
736.171	2.08
736.196	5.08
736.22	-0.92
736.244	1.08
736.269	-5.92
736.293	3.08
736.317	3.08
736.342	-12.92
736.366	17.08
736.39	4.08
736.415	-13.92
736.439	-1.92
736.463	-1.92
736.488	5.08
736.512	-1.92
736.536	7.08
736.561	15.08
736.585	1.08
736.609	10.08
736.634	-4.92
736.658	3.08
736.682	-16.92
736.707	-7.92
736.731	-12.92
736.755	-2.92
736.78	17.08
736.804	23.08
736.828	13.08
736.852	-2.92
736.877	7.08
736.901	3.08
736.925	2.08
736.949	4.08
736.974	1.08
736.998	12.08
737.022	9.08
737.047	4.08
737.071	2.08
737.095	19.08
737.119	20.08
737.144	-2.92
737.168	-3.92
737.192	3.08
737.216	6.08
737.241	-0.92
737.265	7.08
737.289	3.08
737.313	-8.92
737.337	-0.92
737.362	6.08
737.386	-1.92
737.41	-9.92
737.434	15.08
737.459	1.08
737.483	12.08
737.507	16.08
737.531	25.08
737.555	12.08
737.58	17.08
737.604	-8.92
737.628	-13.92
737.652	2.08
737.676	-25.92
737.701	1.08
737.725	10.08
737.749	0.08
737.773	8.08
737.797	-0.92
737.821	6.08
737.846	-7.92
737.87	23.08
737.894	5.08
737.918	-5.92
737.942	-29.92
737.966	10.08
737.99	18.08
738.015	-1.92
738.039	8.08
738.063	-4.92
738.087	3.08
738.111	7.08
738.135	9.08
738.159	-8.92
738.184	-7.92
738.208	13.08
738.232	-0.92
738.256	-0.92
738.28	24.08
738.304	11.08
738.328	-17.92
738.352	17.08
738.376	1.08
738.4	9.08
738.425	7.08
738.449	4.08
738.473	18.08
738.497	3.08
738.521	3.08
738.545	23.08
738.569	24.08
738.593	19.08
738.617	10.08
738.641	3.08
738.665	20.08
738.689	11.08
738.713	1.08
738.737	-3.92
738.762	23.08
738.786	8.08
738.81	-14.92
738.834	15.08
738.858	2.08
738.882	1.08
738.906	-0.92
738.93	4.08
738.954	-0.92
738.978	16.08
739.002	-3.92
739.026	16.08
739.05	4.08
739.074	-13.92
739.098	8.08
739.122	9.08
739.146	3.08
739.17	13.08
739.194	15.08
739.218	-1.92
739.242	-9.92
739.266	6.08
739.29	1.08
739.314	20.08
739.338	1.08
739.362	5.08
739.386	3.08
739.41	4.08
739.434	-6.92
739.458	11.08
739.482	4.08
739.506	9.08
739.53	-7.92
739.554	14.08
739.577	-0.92
739.601	19.08
739.625	-4.92
739.649	12.08
739.673	8.08
739.697	15.08
739.721	7.08
739.745	2.08
739.769	4.08
739.793	7.08
739.817	0.08
739.841	0.08
739.865	-3.92
739.889	-12.92
739.912	9.08
739.936	-3.92
739.96	13.08
739.984	34.08
740.008	4.08
740.032	-5.92
740.056	-5.92
740.08	-6.92
740.104	-11.92
740.127	11.08
740.151	22.08
740.175	20.08
740.199	17.08
740.223	42.08
740.247	4.08
740.271	7.08
740.295	1.08
740.318	-2.92
740.342	0.08
740.366	12.08
740.39	18.08
740.414	-1.92
740.438	13.08
740.461	18.08
740.485	12.08
740.509	-21.92
740.533	12.08
740.557	4.08
740.581	1.08
740.604	-9.92
740.628	18.08
740.652	18.08
740.676	14.08
740.7	27.08
740.723	-10.92
740.747	3.08
740.771	1.08
740.795	0.08
740.819	27.08
740.842	17.08
740.866	13.08
740.89	-2.92
740.914	4.08
740.938	-3.92
740.961	5.08
740.985	6.08
741.009	-9.92
741.033	8.08
741.056	4.08
741.08	-19.92
741.104	-12.92
741.128	-2.92
741.151	3.08
741.175	9.08
741.199	11.08
741.223	19.08
741.246	-16.92
741.27	16.08
741.294	6.08
741.318	-13.92
741.341	-1.92
741.365	8.08
741.389	9.08
741.413	11.08
741.436	15.08
741.46	15.08
741.484	11.08
741.507	9.08
741.531	19.08
741.555	2.08
741.579	14.08
741.602	10.08
741.626	11.08
741.65	10.08
741.673	-4.92
741.697	2.08
741.721	-8.92
741.744	1.08
741.768	-14.92
741.792	-5.92
741.815	-13.92
741.839	24.08
741.863	11.08
741.886	13.08
741.91	4.08
741.934	10.08
741.957	-12.92
741.981	12.08
742.005	5.08
742.028	2.08
742.052	5.08
742.075	7.08
742.099	11.08
742.123	4.08
742.146	-4.92
742.17	4.08
742.194	-28.92
742.217	-0.92
742.241	-3.92
742.264	-5.92
742.288	7.08
742.312	20.08
742.335	12.08
742.359	20.08
742.382	13.08
742.406	25.08
742.43	-8.92
742.453	11.08
742.477	-4.92
742.5	10.08
742.524	4.08
742.548	4.08
742.571	12.08
742.595	0.08
742.618	-10.92
742.642	-2.92
742.665	21.08
742.689	-14.92
742.712	-0.92
742.736	4.08
742.76	-4.92
742.783	-1.92
742.807	1.08
742.83	5.08
742.854	-11.92
742.877	1.08
742.901	7.08
742.924	9.08
742.948	9.08
742.971	-6.92
742.995	18.08
743.018	-7.92
743.042	-9.92
743.065	-0.92
743.089	8.08
743.112	-3.92
743.136	8.08
743.159	-7.92
743.183	-9.92
743.206	-7.92
743.23	1.08
743.253	6.08
743.277	17.08
743.3	2.08
743.324	1.08
743.347	-7.92
743.371	15.08
743.394	11.08
743.418	20.08
743.441	4.08
743.465	3.08
743.488	10.08
743.512	-1.92
743.535	-4.92
743.558	-9.92
743.582	16.08
743.605	6.08
743.629	7.08
743.652	12.08
743.676	1.08
743.699	11.08
743.723	10.08
743.746	10.08
743.769	11.08
743.793	11.08
743.816	4.08
743.84	1.08
743.863	0.08
743.886	10.08
743.91	9.08
743.933	13.08
743.957	10.08
743.98	-4.92
744.003	-0.92
744.027	5.08
744.05	-4.92
744.074	19.08
744.097	-12.92
744.12	9.08
744.144	2.08
744.167	18.08
744.19	0.08
744.214	-3.92
744.237	5.08
744.26	21.08
744.284	0.08
744.307	-21.92
744.331	-4.92
744.354	9.08
744.377	-6.92
744.401	2.08
744.424	-2.92
744.447	-17.92
744.471	-8.92
