Data from HighRes_H2_15_09_11_07_2024_HR4C61891__125__15-11-08-901.txt Node

Date: Thu Nov 07 15:11:08 EST 2024
User: crc00042
Spectrometer: HR4C6189
Trigger mode: 4
Integration Time (sec): 1.000000E-1
Scans to average: 1
Electric dark correction enabled: true
Nonlinearity correction enabled: false
Boxcar width: 0
XAxis mode: Wavelengths
Number of Pixels in Spectrum: 3648
>>>>>Begin Spectral Data<<<<<
639.567	-55.69
639.602	-55.69
639.636	-55.69
639.67	-32.69
639.704	-16.69
639.738	6.31
639.773	18.31
639.807	-27.69
639.841	0.31
639.875	-1.69
639.909	9.31
639.943	-11.69
639.978	-0.69
640.012	-20.69
640.046	12.31
640.08	4.31
640.114	12.31
640.148	-0.69
640.182	-10.69
640.217	5.31
640.251	11.31
640.285	25.31
640.319	-0.69
640.353	10.31
640.387	4.31
640.421	4.31
640.455	2.31
640.49	2.31
640.524	3.31
640.558	16.31
640.592	-1.69
640.626	10.31
640.66	8.31
640.694	-12.69
640.728	12.31
640.762	6.31
640.796	21.31
640.83	9.31
640.865	-3.69
640.899	10.31
640.933	2.31
640.967	-3.69
641.001	23.31
641.035	6.31
641.069	-11.69
641.103	-5.69
641.137	1.31
641.171	-5.69
641.205	16.31
641.239	3.31
641.273	27.31
641.307	7.31
641.341	10.31
641.375	10.31
641.409	-22.69
641.443	-5.69
641.477	11.31
641.511	13.31
641.545	-6.69
641.579	-11.69
641.614	-5.69
641.648	9.31
641.682	-6.69
641.716	22.31
641.75	23.31
641.784	-1.69
641.818	6.31
641.852	-2.69
641.886	-10.69
641.919	18.31
641.953	6.31
641.987	-20.69
642.021	-6.69
642.055	-0.69
642.089	7.31
642.123	2.31
642.157	-5.69
642.191	3.31
642.225	16.31
642.259	5.31
642.293	11.31
642.327	0.31
642.361	-9.69
642.395	25.31
642.429	7.31
642.463	34.31
642.497	8.31
642.531	19.31
642.565	-3.69
642.599	-6.69
642.633	-20.69
642.666	13.31
642.7	11.31
642.734	19.31
642.768	2.31
642.802	4.31
642.836	-8.69
642.87	6.31
642.904	12.31
642.938	10.31
642.972	-6.69
643.005	-3.69
643.039	-0.69
643.073	-11.69
643.107	20.31
643.141	15.31
643.175	13.31
643.209	25.31
643.243	5.31
643.276	12.31
643.31	-4.69
643.344	-9.69
643.378	-1.69
643.412	9.31
643.446	10.31
643.48	8.31
643.513	15.31
643.547	11.31
643.581	-3.69
643.615	11.31
643.649	-7.69
643.683	9.31
643.716	3.31
643.75	0.31
643.784	2.31
643.818	10.31
643.852	-1.69
643.886	9.31
643.919	10.31
643.953	3.31
643.987	6.31
644.021	5.31
644.055	18.31
644.088	6.31
644.122	-5.69
644.156	-9.69
644.19	2.31
644.224	1.31
644.257	14.31
644.291	16.31
644.325	8.31
644.359	-3.69
644.392	30.31
644.426	16.31
644.46	6.31
644.494	7.31
644.527	-5.69
644.561	-7.69
644.595	10.31
644.629	1.31
644.662	0.31
644.696	6.31
644.73	9.31
644.764	10.31
644.797	-3.69
644.831	-8.69
644.865	-2.69
644.899	-8.69
644.932	15.31
644.966	-1.69
645	10.31
645.033	13.31
645.067	15.31
645.101	-0.69
645.135	4.31
645.168	-0.69
645.202	-4.69
645.236	3.31
645.269	15.31
645.303	-0.69
645.337	6.31
645.37	3.31
645.404	8.31
645.438	-2.69
645.471	-4.69
645.505	13.31
645.539	11.31
645.572	4.31
645.606	-4.69
645.64	9.31
645.673	10.31
645.707	19.31
645.741	14.31
645.774	-13.69
645.808	3.31
645.842	5.31
645.875	3.31
645.909	4.31
645.943	3.31
645.976	-0.69
646.01	2.31
646.043	13.31
646.077	-7.69
646.111	4.31
646.144	6.31
646.178	9.31
646.212	-13.69
646.245	-21.69
646.279	19.31
646.312	11.31
646.346	19.31
646.38	8.31
646.413	10.31
646.447	16.31
646.48	-2.69
646.514	8.31
646.547	1.31
646.581	-0.69
646.615	6.31
646.648	-5.69
646.682	3.31
646.715	-1.69
646.749	15.31
646.782	4.31
646.816	-3.69
646.85	-5.69
646.883	-1.69
646.917	14.31
646.95	16.31
646.984	23.31
647.017	8.31
647.051	15.31
647.084	11.31
647.118	4.31
647.151	-8.69
647.185	6.31
647.218	-5.69
647.252	11.31
647.285	-7.69
647.319	-12.69
647.353	12.31
647.386	14.31
647.42	15.31
647.453	6.31
647.487	11.31
647.52	11.31
647.553	20.31
647.587	-3.69
647.62	4.31
647.654	-1.69
647.687	0.31
647.721	6.31
647.754	6.31
647.788	11.31
647.821	-22.69
647.855	22.31
647.888	14.31
647.922	23.31
647.955	28.31
647.989	3.31
648.022	8.31
648.055	6.31
648.089	-0.69
648.122	26.31
648.156	8.31
648.189	13.31
648.223	24.31
648.256	12.31
648.29	17.31
648.323	-1.69
648.356	14.31
648.39	24.31
648.423	-3.69
648.457	5.31
648.49	13.31
648.523	18.31
648.557	8.31
648.59	5.31
648.624	2.31
648.657	8.31
648.69	3.31
648.724	18.31
648.757	20.31
648.791	-2.69
648.824	5.31
648.857	24.31
648.891	15.31
648.924	20.31
648.957	12.31
648.991	-17.69
649.024	6.31
649.057	0.31
649.091	1.31
649.124	20.31
649.158	26.31
649.191	27.31
649.224	0.31
649.258	6.31
649.291	6.31
649.324	3.31
649.358	4.31
649.391	11.31
649.424	9.31
649.458	-5.69
649.491	-0.69
649.524	-5.69
649.557	-8.69
649.591	-13.69
649.624	21.31
649.657	-15.69
649.691	8.31
649.724	7.31
649.757	8.31
649.791	-2.69
649.824	13.31
649.857	11.31
649.89	0.31
649.924	-21.69
649.957	-11.69
649.99	-8.69
650.023	14.31
650.057	-6.69
650.09	2.31
650.123	3.31
650.157	8.31
650.19	12.31
650.223	-6.69
650.256	9.31
650.29	12.31
650.323	5.31
650.356	5.31
650.389	-16.69
650.423	-1.69
650.456	6.31
650.489	27.31
650.522	30.31
650.555	18.31
650.589	3.31
650.622	7.31
650.655	32.31
650.688	16.31
650.721	-1.69
650.755	-4.69
650.788	3.31
650.821	3.31
650.854	-1.69
650.887	-0.69
650.921	4.31
650.954	-10.69
650.987	-3.69
651.02	2.31
651.053	-8.69
651.087	-6.69
651.12	22.31
651.153	8.31
651.186	-5.69
651.219	-3.69
651.252	4.31
651.286	21.31
651.319	2.31
651.352	9.31
651.385	-0.69
651.418	6.31
651.451	21.31
651.484	8.31
651.518	9.31
651.551	6.31
651.584	-13.69
651.617	13.31
651.65	18.31
651.683	15.31
651.716	-8.69
651.749	-12.69
651.783	-14.69
651.816	-10.69
651.849	2.31
651.882	6.31
651.915	2.31
651.948	11.31
651.981	1.31
652.014	-13.69
652.047	-7.69
652.08	-0.69
652.114	6.31
652.147	-6.69
652.18	14.31
652.213	37.31
652.246	1.31
652.279	-10.69
652.312	2.31
652.345	0.31
652.378	-6.69
652.411	22.31
652.444	3.31
652.477	-1.69
652.51	4.31
652.543	-24.69
652.576	2.31
652.609	10.31
652.642	7.31
652.675	7.31
652.709	7.31
652.742	18.31
652.775	6.31
652.808	5.31
652.841	10.31
652.874	10.31
652.907	8.31
652.94	-7.69
652.973	-13.69
653.006	-5.69
653.039	13.31
653.072	0.31
653.105	1.31
653.138	-3.69
653.171	3.31
653.204	11.31
653.237	20.31
653.27	2.31
653.303	5.31
653.336	28.31
653.368	-2.69
653.401	-4.69
653.434	-3.69
653.467	7.31
653.5	-1.69
653.533	-9.69
653.566	-3.69
653.599	-2.69
653.632	2.31
653.665	11.31
653.698	1.31
653.731	-12.69
653.764	4.31
653.797	13.31
653.83	8.31
653.863	26.31
653.896	5.31
653.929	-4.69
653.961	11.31
653.994	22.31
654.027	12.31
654.06	10.31
654.093	24.31
654.126	13.31
654.159	-13.69
654.192	2.31
654.225	11.31
654.258	13.31
654.29	5.31
654.323	6.31
654.356	1.31
654.389	10.31
654.422	11.31
654.455	13.31
654.488	-4.69
654.521	3.31
654.553	1.31
654.586	0.31
654.619	6.31
654.652	19.31
654.685	11.31
654.718	12.31
654.751	14.31
654.783	3.31
654.816	11.31
654.849	5.31
654.882	-3.69
654.915	-10.69
654.948	5.31
654.98	-6.69
655.013	-0.69
655.046	3.31
655.079	-5.69
655.112	2.31
655.144	-9.69
655.177	8.31
655.21	5.31
655.243	23.31
655.276	-18.69
655.308	7.31
655.341	-17.69
655.374	-5.69
655.407	-5.69
655.44	1.31
655.472	20.31
655.505	9.31
655.538	-0.69
655.571	19.31
655.603	11.31
655.636	10.31
655.669	10.31
655.702	35.31
655.734	4.31
655.767	27.31
655.8	14.31
655.833	25.31
655.865	27.31
655.898	41.31
655.931	44.31
655.964	34.31
655.996	52.31
656.029	55.31
656.062	27.31
656.095	65.31
656.127	50.31
656.16	94.31
656.193	125.31
656.225	168.31
656.258	266.31
656.291	513.31
656.324	1140.31
656.356	3367.31
656.389	7553.31
656.422	6030.31
656.454	2058.31
656.487	694.31
656.52	262.31
656.552	138.31
656.585	74.31
656.618	73.31
656.65	46.31
656.683	26.31
656.716	21.31
656.748	20.31
656.781	12.31
656.814	14.31
656.846	22.31
656.879	2.31
656.912	17.31
656.944	-9.69
656.977	-19.69
657.01	17.31
657.042	5.31
657.075	15.31
657.108	0.31
657.14	10.31
657.173	14.31
657.205	36.31
657.238	22.31
657.271	3.31
657.303	-24.69
657.336	-6.69
657.369	2.31
657.401	3.31
657.434	3.31
657.466	1.31
657.499	-3.69
657.532	-1.69
657.564	12.31
657.597	5.31
657.629	18.31
657.662	12.31
657.694	-1.69
657.727	-10.69
657.76	8.31
657.792	-5.69
657.825	1.31
657.857	0.31
657.89	3.31
657.922	7.31
657.955	-0.69
657.987	10.31
658.02	4.31
658.053	14.31
658.085	10.31
658.118	11.31
658.15	8.31
658.183	19.31
658.215	0.31
658.248	10.31
658.28	-6.69
658.313	19.31
658.345	6.31
658.378	16.31
658.41	-7.69
658.443	28.31
658.475	-0.69
658.508	8.31
658.54	-11.69
658.573	-23.69
658.605	0.31
658.638	-1.69
658.67	10.31
658.703	0.31
658.735	-4.69
658.768	-6.69
658.8	-6.69
658.833	14.31
658.865	6.31
658.898	10.31
658.93	2.31
658.963	6.31
658.995	-5.69
659.028	-1.69
659.06	-0.69
659.092	21.31
659.125	-1.69
659.157	-2.69
659.19	-7.69
659.222	-6.69
659.255	13.31
659.287	6.31
659.32	14.31
659.352	11.31
659.384	10.31
659.417	-5.69
659.449	10.31
659.482	16.31
659.514	10.31
659.546	13.31
659.579	-7.69
659.611	15.31
659.644	7.31
659.676	-1.69
659.708	-7.69
659.741	-23.69
659.773	3.31
659.806	-5.69
659.838	-7.69
659.87	1.31
659.903	7.31
659.935	10.31
659.967	-5.69
660	2.31
660.032	-3.69
660.065	7.31
660.097	4.31
660.129	5.31
660.162	-9.69
660.194	-9.69
660.226	-0.69
660.259	23.31
660.291	8.31
660.323	-5.69
660.356	-1.69
660.388	11.31
660.42	-2.69
660.453	-0.69
660.485	2.31
660.517	12.31
660.55	27.31
660.582	3.31
660.614	19.31
660.647	-7.69
660.679	-22.69
660.711	-0.69
660.743	-11.69
660.776	-12.69
660.808	1.31
660.84	-15.69
660.873	1.31
660.905	-1.69
660.937	-17.69
660.969	2.31
661.002	-0.69
661.034	8.31
661.066	13.31
661.099	7.31
661.131	5.31
661.163	-4.69
661.195	-1.69
661.228	13.31
661.26	-6.69
661.292	-4.69
661.324	1.31
661.357	7.31
661.389	2.31
661.421	-4.69
661.453	-6.69
661.485	-2.69
661.518	-21.69
661.55	-18.69
661.582	-2.69
661.614	-9.69
661.647	-0.69
661.679	7.31
661.711	-1.69
661.743	-3.69
661.775	4.31
661.808	13.31
661.84	-17.69
661.872	4.31
661.904	-0.69
661.936	6.31
661.969	-12.69
662.001	-16.69
662.033	4.31
662.065	-5.69
662.097	-0.69
662.129	8.31
662.162	-1.69
662.194	8.31
662.226	2.31
662.258	-8.69
662.29	2.31
662.322	-2.69
662.355	-6.69
662.387	47.31
662.419	15.31
662.451	6.31
662.483	9.31
662.515	-4.69
662.547	-5.69
662.58	-9.69
662.612	-12.69
662.644	-4.69
662.676	20.31
662.708	20.31
662.74	-0.69
662.772	6.31
662.804	20.31
662.836	11.31
662.869	5.31
662.901	13.31
662.933	11.31
662.965	10.31
662.997	16.31
663.029	-14.69
663.061	-15.69
663.093	-2.69
663.125	-5.69
663.157	16.31
663.189	-2.69
663.221	-9.69
663.254	-7.69
663.286	10.31
663.318	-6.69
663.35	-9.69
663.382	10.31
663.414	4.31
663.446	-6.69
663.478	-5.69
663.51	39.31
663.542	-13.69
663.574	22.31
663.606	18.31
663.638	0.31
663.67	-2.69
663.702	2.31
663.734	-2.69
663.766	6.31
663.798	1.31
663.83	4.31
663.862	1.31
663.894	6.31
663.926	-6.69
663.958	-0.69
663.99	-6.69
664.022	-19.69
664.054	10.31
664.086	-13.69
664.118	-0.69
664.15	-9.69
664.182	-11.69
664.214	-4.69
664.246	3.31
664.278	9.31
664.31	14.31
664.342	-0.69
664.374	-1.69
664.406	9.31
664.438	-3.69
664.47	15.31
664.502	5.31
664.534	1.31
664.566	-17.69
664.598	9.31
664.63	-4.69
664.662	-0.69
664.693	-2.69
664.725	4.31
664.757	-18.69
664.789	-20.69
664.821	-0.69
664.853	6.31
664.885	7.31
664.917	-3.69
664.949	-3.69
664.981	10.31
665.013	0.31
665.045	-19.69
665.076	6.31
665.108	9.31
665.14	8.31
665.172	7.31
665.204	6.31
665.236	-11.69
665.268	12.31
665.3	-1.69
665.331	-12.69
665.363	0.31
665.395	2.31
665.427	-5.69
665.459	14.31
665.491	-3.69
665.523	-0.69
665.555	14.31
665.586	8.31
665.618	10.31
665.65	12.31
665.682	10.31
665.714	-2.69
665.746	-0.69
665.777	-20.69
665.809	-11.69
665.841	0.31
665.873	-0.69
665.905	6.31
665.937	11.31
665.968	0.31
666	-17.69
666.032	4.31
666.064	10.31
666.096	20.31
666.127	15.31
666.159	17.31
666.191	25.31
666.223	11.31
666.255	17.31
666.286	14.31
666.318	-0.69
666.35	9.31
666.382	-1.69
666.413	-7.69
666.445	-12.69
666.477	-21.69
666.509	-11.69
666.54	-1.69
666.572	10.31
666.604	-4.69
666.636	9.31
666.667	20.31
666.699	14.31
666.731	9.31
666.763	-0.69
666.794	5.31
666.826	14.31
666.858	-5.69
666.89	-1.69
666.921	9.31
666.953	4.31
666.985	5.31
667.017	25.31
667.048	26.31
667.08	2.31
667.112	-2.69
667.143	-9.69
667.175	24.31
667.207	23.31
667.238	10.31
667.27	4.31
667.302	1.31
667.334	14.31
667.365	13.31
667.397	13.31
667.429	2.31
667.46	15.31
667.492	16.31
667.524	6.31
667.555	-2.69
667.587	-4.69
667.619	-16.69
667.65	-13.69
667.682	-7.69
667.714	-3.69
667.745	12.31
667.777	3.31
667.808	7.31
667.84	0.31
667.872	2.31
667.903	11.31
667.935	1.31
667.967	13.31
667.998	6.31
668.03	3.31
668.061	14.31
668.093	4.31
668.125	16.31
668.156	3.31
668.188	-3.69
668.22	-16.69
668.251	4.31
668.283	14.31
668.314	23.31
668.346	-0.69
668.377	7.31
668.409	-2.69
668.441	11.31
668.472	0.31
668.504	7.31
668.535	10.31
668.567	10.31
668.599	-6.69
668.63	-9.69
668.662	-8.69
668.693	5.31
668.725	10.31
668.756	5.31
668.788	-0.69
668.819	-10.69
668.851	-8.69
668.882	-0.69
668.914	-1.69
668.946	2.31
668.977	-0.69
669.009	13.31
669.04	-0.69
669.072	9.31
669.103	-8.69
669.135	-3.69
669.166	1.31
669.198	-11.69
669.229	-3.69
669.261	6.31
669.292	6.31
669.324	9.31
669.355	6.31
669.387	-4.69
669.418	-6.69
669.45	8.31
669.481	-4.69
669.513	-3.69
669.544	10.31
669.576	5.31
669.607	25.31
669.639	16.31
669.67	-6.69
669.701	6.31
669.733	-6.69
669.764	-1.69
669.796	9.31
669.827	-4.69
669.859	-6.69
669.89	10.31
669.922	0.31
669.953	16.31
669.985	7.31
670.016	19.31
670.047	13.31
670.079	10.31
670.11	10.31
670.142	11.31
670.173	22.31
670.204	8.31
670.236	9.31
670.267	-1.69
670.299	9.31
670.33	6.31
670.362	18.31
670.393	-6.69
670.424	7.31
670.456	-25.69
670.487	-2.69
670.518	13.31
670.55	-1.69
670.581	3.31
670.613	5.31
670.644	5.31
670.675	-12.69
670.707	6.31
670.738	-2.69
670.769	8.31
670.801	-9.69
670.832	20.31
670.864	-10.69
670.895	7.31
670.926	13.31
670.958	3.31
670.989	0.31
671.02	-6.69
671.052	6.31
671.083	16.31
671.114	5.31
671.146	11.31
671.177	-5.69
671.208	1.31
671.24	-5.69
671.271	-6.69
671.302	4.31
671.333	-17.69
671.365	-11.69
671.396	-17.69
671.427	3.31
671.459	9.31
671.49	9.31
671.521	9.31
671.553	10.31
671.584	9.31
671.615	-4.69
671.646	4.31
671.678	10.31
671.709	-17.69
671.74	-17.69
671.771	-5.69
671.803	-4.69
671.834	7.31
671.865	-7.69
671.896	-3.69
671.928	4.31
671.959	-6.69
671.99	-1.69
672.021	8.31
672.053	-17.69
672.084	4.31
672.115	6.31
672.146	-1.69
672.178	-1.69
672.209	-8.69
672.24	-9.69
672.271	35.31
672.303	11.31
672.334	2.31
672.365	9.31
672.396	14.31
672.427	17.31
672.459	15.31
672.49	26.31
672.521	0.31
672.552	-1.69
672.583	8.31
672.615	-0.69
672.646	13.31
672.677	0.31
672.708	11.31
672.739	3.31
672.77	6.31
672.802	5.31
672.833	-16.69
672.864	-1.69
672.895	-0.69
672.926	-2.69
672.957	2.31
672.989	-12.69
673.02	-5.69
673.051	7.31
673.082	13.31
673.113	4.31
673.144	8.31
673.175	1.31
673.206	3.31
673.238	-2.69
673.269	-1.69
673.3	-6.69
673.331	-2.69
673.362	8.31
673.393	-7.69
673.424	2.31
673.455	14.31
673.487	2.31
673.518	16.31
673.549	12.31
673.58	8.31
673.611	13.31
673.642	2.31
673.673	-8.69
673.704	0.31
673.735	-1.69
673.766	6.31
673.797	1.31
673.828	3.31
673.86	-3.69
673.891	7.31
673.922	-8.69
673.953	-7.69
673.984	-0.69
674.015	18.31
674.046	5.31
674.077	9.31
674.108	-9.69
674.139	-2.69
674.17	-10.69
674.201	4.31
674.232	2.31
674.263	-6.69
674.294	-0.69
674.325	2.31
674.356	9.31
674.387	7.31
674.418	4.31
674.449	2.31
674.48	-5.69
674.511	1.31
674.542	0.31
674.573	5.31
674.604	17.31
674.635	2.31
674.666	15.31
674.697	-12.69
674.728	-1.69
674.759	5.31
674.79	-8.69
674.821	4.31
674.852	-5.69
674.883	-1.69
674.914	-7.69
674.945	-4.69
674.976	-2.69
675.007	-8.69
675.038	-6.69
675.069	6.31
675.1	5.31
675.131	-1.69
675.162	-7.69
675.193	-5.69
675.224	-11.69
675.254	13.31
675.285	2.31
675.316	18.31
675.347	-3.69
675.378	1.31
675.409	-13.69
675.44	10.31
675.471	9.31
675.502	-8.69
675.533	12.31
675.564	13.31
675.595	-0.69
675.625	32.31
675.656	16.31
675.687	19.31
675.718	-13.69
675.749	10.31
675.78	16.31
675.811	18.31
675.842	19.31
675.873	13.31
675.903	-7.69
675.934	5.31
675.965	-4.69
675.996	-11.69
676.027	7.31
676.058	10.31
676.089	-15.69
676.119	-5.69
676.15	3.31
676.181	-4.69
676.212	-14.69
676.243	-0.69
676.274	-8.69
676.304	25.31
676.335	-7.69
676.366	-0.69
676.397	-8.69
676.428	-8.69
676.459	5.31
676.489	1.31
676.52	8.31
676.551	3.31
676.582	5.31
676.613	9.31
676.643	6.31
676.674	10.31
676.705	3.31
676.736	2.31
676.767	19.31
676.797	6.31
676.828	10.31
676.859	5.31
676.89	8.31
676.92	3.31
676.951	2.31
676.982	4.31
677.013	0.31
677.044	23.31
677.074	-7.69
677.105	-8.69
677.136	12.31
677.167	-5.69
677.197	16.31
677.228	9.31
677.259	-2.69
677.289	4.31
677.32	-9.69
677.351	10.31
677.382	4.31
677.412	-10.69
677.443	24.31
677.474	20.31
677.505	-4.69
677.535	11.31
677.566	2.31
677.597	1.31
677.627	-9.69
677.658	-2.69
677.689	10.31
677.72	9.31
677.75	-0.69
677.781	6.31
677.812	2.31
677.842	-0.69
677.873	10.31
677.904	7.31
677.934	-2.69
677.965	-0.69
677.996	-18.69
678.026	13.31
678.057	8.31
678.088	2.31
678.118	19.31
678.149	-15.69
678.18	-1.69
678.21	-5.69
678.241	-5.69
678.272	-2.69
678.302	2.31
678.333	-4.69
678.363	-13.69
678.394	6.31
678.425	-4.69
678.455	11.31
678.486	16.31
678.517	3.31
678.547	1.31
678.578	7.31
678.608	-4.69
678.639	9.31
678.67	-3.69
678.7	2.31
678.731	-7.69
678.761	-0.69
678.792	15.31
678.823	9.31
678.853	10.31
678.884	-16.69
678.914	13.31
678.945	3.31
678.975	-3.69
679.006	2.31
679.037	-2.69
679.067	26.31
679.098	11.31
679.128	-9.69
679.159	3.31
679.189	2.31
679.22	-3.69
679.25	18.31
679.281	5.31
679.312	9.31
679.342	20.31
679.373	30.31
679.403	5.31
679.434	12.31
679.464	10.31
679.495	14.31
679.525	18.31
679.556	5.31
679.586	8.31
679.617	23.31
679.647	16.31
679.678	9.31
679.708	6.31
679.739	9.31
679.769	-4.69
679.8	-0.69
679.83	7.31
679.861	9.31
679.891	-9.69
679.922	-3.69
679.952	9.31
679.983	5.31
680.013	5.31
680.044	0.31
680.074	9.31
680.105	4.31
680.135	7.31
680.165	2.31
680.196	9.31
680.226	20.31
680.257	16.31
680.287	4.31
680.318	9.31
680.348	5.31
680.379	17.31
680.409	-3.69
680.439	11.31
680.47	4.31
680.5	5.31
680.531	-3.69
680.561	7.31
680.592	11.31
680.622	15.31
680.652	-0.69
680.683	28.31
680.713	-7.69
680.744	-19.69
680.774	-14.69
680.804	27.31
680.835	-0.69
680.865	2.31
680.896	6.31
680.926	14.31
680.956	3.31
680.987	-0.69
681.017	-4.69
681.047	-9.69
681.078	1.31
681.108	13.31
681.139	-12.69
681.169	11.31
681.199	6.31
681.23	15.31
681.26	-1.69
681.29	21.31
681.321	-13.69
681.351	-1.69
681.381	-18.69
681.412	21.31
681.442	14.31
681.472	18.31
681.503	7.31
681.533	12.31
681.563	3.31
681.594	-6.69
681.624	3.31
681.654	-6.69
681.685	6.31
681.715	2.31
681.745	7.31
681.775	-4.69
681.806	26.31
681.836	5.31
681.866	3.31
681.897	12.31
681.927	4.31
681.957	0.31
681.987	4.31
682.018	5.31
682.048	7.31
682.078	5.31
682.109	24.31
682.139	-9.69
682.169	-0.69
682.199	1.31
682.23	0.31
682.26	7.31
682.29	5.31
682.32	8.31
682.351	-2.69
682.381	10.31
682.411	7.31
682.441	-1.69
682.472	-1.69
682.502	3.31
682.532	-20.69
682.562	4.31
682.592	8.31
682.623	7.31
682.653	-8.69
682.683	-1.69
682.713	-6.69
682.743	-2.69
682.774	-4.69
682.804	-0.69
682.834	19.31
682.864	4.31
682.894	14.31
682.925	-2.69
682.955	5.31
682.985	0.31
683.015	5.31
683.045	3.31
683.076	-8.69
683.106	-12.69
683.136	-6.69
683.166	7.31
683.196	3.31
683.226	-11.69
683.257	-7.69
683.287	-11.69
683.317	-10.69
683.347	3.31
683.377	1.31
683.407	8.31
683.437	10.31
683.468	10.31
683.498	4.31
683.528	6.31
683.558	7.31
683.588	-6.69
683.618	-8.69
683.648	1.31
683.678	7.31
683.708	12.31
683.739	1.31
683.769	-1.69
683.799	1.31
683.829	2.31
683.859	-1.69
683.889	12.31
683.919	5.31
683.949	3.31
683.979	9.31
684.009	-7.69
684.039	0.31
684.07	-9.69
684.1	16.31
684.13	5.31
684.16	5.31
684.19	10.31
684.22	3.31
684.25	-7.69
684.28	7.31
684.31	12.31
684.34	22.31
684.37	9.31
684.4	5.31
684.43	3.31
684.46	-5.69
684.49	7.31
684.52	12.31
684.55	14.31
684.58	7.31
684.61	22.31
684.64	-0.69
684.67	3.31
684.7	4.31
684.73	10.31
684.76	12.31
684.79	27.31
684.82	-7.69
684.85	-3.69
684.88	4.31
684.91	-4.69
684.94	10.31
684.97	3.31
685	2.31
685.03	2.31
685.06	-14.69
685.09	-4.69
685.12	17.31
685.15	-5.69
685.18	6.31
685.21	2.31
685.24	16.31
685.27	21.31
685.3	-8.69
685.33	15.31
685.36	-2.69
685.39	-7.69
685.42	2.31
685.45	4.31
685.48	2.31
685.51	-0.69
685.54	9.31
685.569	4.31
685.599	9.31
685.629	14.31
685.659	5.31
685.689	-4.69
685.719	4.31
685.749	7.31
685.779	14.31
685.809	1.31
685.839	-2.69
685.869	2.31
685.898	7.31
685.928	6.31
685.958	-3.69
685.988	18.31
686.018	1.31
686.048	0.31
686.078	7.31
686.108	19.31
686.137	-6.69
686.167	8.31
686.197	-8.69
686.227	-5.69
686.257	44.31
686.287	13.31
686.317	-5.69
686.346	-5.69
686.376	2.31
686.406	12.31
686.436	9.31
686.466	10.31
686.496	7.31
686.525	4.31
686.555	-2.69
686.585	22.31
686.615	28.31
686.645	16.31
686.675	-0.69
686.704	-7.69
686.734	5.31
686.764	9.31
686.794	-4.69
686.824	0.31
686.853	22.31
686.883	27.31
686.913	19.31
686.943	-8.69
686.973	-11.69
687.002	10.31
687.032	-0.69
687.062	5.31
687.092	21.31
687.121	-7.69
687.151	-13.69
687.181	-9.69
687.211	6.31
687.24	5.31
687.27	2.31
687.3	-4.69
687.33	1.31
687.359	-17.69
687.389	2.31
687.419	4.31
687.449	-11.69
687.478	14.31
687.508	-6.69
687.538	13.31
687.568	5.31
687.597	-1.69
687.627	27.31
687.657	19.31
687.686	18.31
687.716	29.31
687.746	4.31
687.776	0.31
687.805	23.31
687.835	5.31
687.865	28.31
687.894	9.31
687.924	-9.69
687.954	6.31
687.983	3.31
688.013	-0.69
688.043	-6.69
688.072	-7.69
688.102	8.31
688.132	3.31
688.161	4.31
688.191	-1.69
688.221	20.31
688.25	5.31
688.28	10.31
688.31	-23.69
688.339	13.31
688.369	-1.69
688.399	-13.69
688.428	1.31
688.458	6.31
688.488	12.31
688.517	6.31
688.547	-0.69
688.576	23.31
688.606	14.31
688.636	-8.69
688.665	3.31
688.695	17.31
688.725	10.31
688.754	0.31
688.784	1.31
688.813	16.31
688.843	1.31
688.873	11.31
688.902	1.31
688.932	-6.69
688.961	11.31
688.991	22.31
689.02	16.31
689.05	-0.69
689.08	0.31
689.109	9.31
689.139	2.31
689.168	3.31
689.198	-6.69
689.227	7.31
689.257	12.31
689.287	23.31
689.316	-5.69
689.346	-13.69
689.375	-10.69
689.405	10.31
689.434	5.31
689.464	7.31
689.493	-3.69
689.523	-9.69
689.552	-9.69
689.582	5.31
689.611	-3.69
689.641	2.31
689.67	2.31
689.7	6.31
689.73	14.31
689.759	6.31
689.789	15.31
689.818	4.31
689.848	5.31
689.877	8.31
689.906	1.31
689.936	-5.69
689.965	14.31
689.995	7.31
690.024	8.31
690.054	5.31
690.083	-2.69
690.113	0.31
690.142	4.31
690.172	-4.69
690.201	9.31
690.231	1.31
690.26	8.31
690.29	1.31
690.319	27.31
690.348	14.31
690.378	14.31
690.407	9.31
690.437	1.31
690.466	9.31
690.496	-8.69
690.525	-8.69
690.555	-0.69
690.584	-3.69
690.613	5.31
690.643	12.31
690.672	11.31
690.702	10.31
690.731	9.31
690.76	-0.69
690.79	-8.69
690.819	-8.69
690.849	18.31
690.878	27.31
690.907	3.31
690.937	7.31
690.966	3.31
690.996	-0.69
691.025	-2.69
691.054	0.31
691.084	5.31
691.113	1.31
691.142	5.31
691.172	19.31
691.201	25.31
691.23	7.31
691.26	4.31
691.289	5.31
691.319	-3.69
691.348	4.31
691.377	20.31
691.407	14.31
691.436	11.31
691.465	16.31
691.495	6.31
691.524	-8.69
691.553	3.31
691.583	2.31
691.612	16.31
691.641	-8.69
691.67	4.31
691.7	14.31
691.729	2.31
691.758	5.31
691.788	8.31
691.817	1.31
691.846	13.31
691.876	5.31
691.905	9.31
691.934	17.31
691.963	26.31
691.993	6.31
692.022	6.31
692.051	-18.69
692.081	9.31
692.11	31.31
692.139	15.31
692.168	0.31
692.198	29.31
692.227	22.31
692.256	14.31
692.285	5.31
692.315	11.31
692.344	27.31
692.373	11.31
692.402	-5.69
692.432	2.31
692.461	8.31
692.49	-5.69
692.519	6.31
692.548	23.31
692.578	9.31
692.607	-10.69
692.636	-4.69
692.665	16.31
692.694	18.31
692.724	17.31
692.753	2.31
692.782	16.31
692.811	-1.69
692.84	8.31
692.87	3.31
692.899	8.31
692.928	-7.69
692.957	-0.69
692.986	13.31
693.016	18.31
693.045	6.31
693.074	1.31
693.103	14.31
693.132	12.31
693.161	10.31
693.191	-3.69
693.22	-10.69
693.249	3.31
693.278	1.31
693.307	19.31
693.336	-4.69
693.365	2.31
693.395	3.31
693.424	-0.69
693.453	16.31
693.482	3.31
693.511	14.31
693.54	22.31
693.569	11.31
693.598	7.31
693.628	26.31
693.657	9.31
693.686	18.31
693.715	11.31
693.744	19.31
693.773	9.31
693.802	5.31
693.831	2.31
693.86	16.31
693.889	3.31
693.919	2.31
693.948	0.31
693.977	7.31
694.006	-2.69
694.035	9.31
694.064	-0.69
694.093	13.31
694.122	2.31
694.151	6.31
694.18	-1.69
694.209	25.31
694.238	-4.69
694.267	23.31
694.296	-1.69
694.325	4.31
694.354	15.31
694.383	5.31
694.412	4.31
694.441	-0.69
694.471	4.31
694.5	4.31
694.529	0.31
694.558	21.31
694.587	19.31
694.616	-6.69
694.645	11.31
694.674	21.31
694.703	5.31
694.732	1.31
694.761	14.31
694.79	24.31
694.819	-8.69
694.848	-6.69
694.877	18.31
694.906	26.31
694.935	-6.69
694.963	15.31
694.992	4.31
695.021	18.31
695.05	17.31
695.079	3.31
695.108	9.31
695.137	18.31
695.166	9.31
695.195	5.31
695.224	6.31
695.253	-4.69
695.282	-1.69
695.311	5.31
695.34	2.31
695.369	13.31
695.398	14.31
695.427	35.31
695.456	13.31
695.485	22.31
695.513	5.31
695.542	8.31
695.571	6.31
695.6	-5.69
695.629	4.31
695.658	18.31
695.687	17.31
695.716	-4.69
695.745	32.31
695.774	-18.69
695.802	-5.69
695.831	12.31
695.86	13.31
695.889	3.31
695.918	14.31
695.947	-0.69
695.976	6.31
696.005	5.31
696.033	0.31
696.062	4.31
696.091	9.31
696.12	1.31
696.149	34.31
696.178	2.31
696.207	20.31
696.235	-10.69
696.264	12.31
696.293	11.31
696.322	3.31
696.351	24.31
696.38	-6.69
696.408	-0.69
696.437	5.31
696.466	17.31
696.495	24.31
696.524	23.31
696.553	14.31
696.581	10.31
696.61	3.31
696.639	2.31
696.668	16.31
696.697	-13.69
696.725	2.31
696.754	13.31
696.783	0.31
696.812	-5.69
696.84	11.31
696.869	19.31
696.898	-7.69
696.927	11.31
696.956	21.31
696.984	3.31
697.013	3.31
697.042	20.31
697.071	17.31
697.099	12.31
697.128	-1.69
697.157	-0.69
697.186	-1.69
697.214	6.31
697.243	0.31
697.272	8.31
697.301	17.31
697.329	3.31
697.358	10.31
697.387	19.31
697.415	10.31
697.444	21.31
697.473	4.31
697.502	-2.69
697.53	15.31
697.559	-0.69
697.588	-2.69
697.616	5.31
697.645	2.31
697.674	2.31
697.703	1.31
697.731	16.31
697.76	13.31
697.789	1.31
697.817	-9.69
697.846	15.31
697.875	13.31
697.903	28.31
697.932	17.31
697.961	6.31
697.989	9.31
698.018	20.31
698.047	8.31
698.075	15.31
698.104	7.31
698.133	3.31
698.161	-15.69
698.19	9.31
698.218	12.31
698.247	7.31
698.276	-4.69
698.304	19.31
698.333	19.31
698.362	12.31
698.39	14.31
698.419	2.31
698.447	-2.69
698.476	3.31
698.505	22.31
698.533	12.31
698.562	9.31
698.591	-9.69
698.619	-4.69
698.648	2.31
698.676	11.31
698.705	2.31
698.733	-13.69
698.762	9.31
698.791	10.31
698.819	2.31
698.848	8.31
698.876	13.31
698.905	-4.69
698.933	14.31
698.962	14.31
698.991	15.31
699.019	23.31
699.048	10.31
699.076	16.31
699.105	-4.69
699.133	2.31
699.162	16.31
699.19	8.31
699.219	5.31
699.248	-1.69
699.276	4.31
699.305	-0.69
699.333	-6.69
699.362	-7.69
699.39	-0.69
699.419	-2.69
699.447	22.31
699.476	2.31
699.504	-2.69
699.533	-8.69
699.561	3.31
699.59	-1.69
699.618	3.31
699.647	5.31
699.675	3.31
699.704	-4.69
699.732	-8.69
699.761	12.31
699.789	7.31
699.818	0.31
699.846	13.31
699.874	1.31
699.903	-9.69
699.931	-5.69
699.96	-5.69
699.988	8.31
700.017	2.31
700.045	4.31
700.074	-5.69
700.102	-0.69
700.13	2.31
700.159	2.31
700.187	7.31
700.216	2.31
700.244	-4.69
700.273	17.31
700.301	23.31
700.329	29.31
700.358	22.31
700.386	3.31
700.415	-3.69
700.443	15.31
700.472	8.31
700.5	12.31
700.528	13.31
700.557	7.31
700.585	-2.69
700.614	-0.69
700.642	16.31
700.67	30.31
700.699	14.31
700.727	7.31
700.755	3.31
700.784	-1.69
700.812	14.31
700.841	23.31
700.869	6.31
700.897	-6.69
700.926	-0.69
700.954	15.31
700.982	11.31
701.011	10.31
701.039	22.31
701.067	5.31
701.096	9.31
701.124	-5.69
701.152	1.31
701.181	-2.69
701.209	-10.69
701.237	-9.69
701.266	-4.69
701.294	-10.69
701.322	5.31
701.351	16.31
701.379	-0.69
701.407	-10.69
701.435	14.31
701.464	7.31
701.492	21.31
701.52	4.31
701.549	5.31
701.577	1.31
701.605	-11.69
701.634	7.31
701.662	27.31
701.69	-0.69
701.718	-2.69
701.747	20.31
701.775	4.31
701.803	2.31
701.831	5.31
701.86	3.31
701.888	2.31
701.916	-0.69
701.944	7.31
701.973	-4.69
702.001	9.31
702.029	2.31
702.057	9.31
702.086	3.31
702.114	10.31
702.142	1.31
702.17	5.31
702.199	1.31
702.227	13.31
702.255	-2.69
702.283	0.31
702.311	8.31
702.34	-5.69
702.368	-4.69
702.396	-2.69
702.424	8.31
702.452	-7.69
702.481	-0.69
702.509	8.31
702.537	18.31
702.565	17.31
702.593	-2.69
702.621	-5.69
702.65	13.31
702.678	5.31
702.706	22.31
702.734	2.31
702.762	8.31
702.79	12.31
702.819	-0.69
702.847	2.31
702.875	14.31
702.903	-2.69
702.931	-5.69
702.959	-2.69
702.988	1.31
703.016	0.31
703.044	-4.69
703.072	10.31
703.1	4.31
703.128	-5.69
703.156	11.31
703.184	4.31
703.212	8.31
703.241	-0.69
703.269	-9.69
703.297	4.31
703.325	15.31
703.353	-9.69
703.381	-0.69
703.409	2.31
703.437	-2.69
703.465	19.31
703.493	8.31
703.522	13.31
703.55	5.31
703.578	10.31
703.606	2.31
703.634	-11.69
703.662	-9.69
703.69	-2.69
703.718	7.31
703.746	31.31
703.774	9.31
703.802	19.31
703.83	8.31
703.858	-5.69
703.886	-4.69
703.914	-0.69
703.942	15.31
703.97	0.31
703.998	2.31
704.027	10.31
704.055	4.31
704.083	2.31
704.111	-5.69
704.139	-6.69
704.167	-1.69
704.195	4.31
704.223	-5.69
704.251	17.31
704.279	11.31
704.307	4.31
704.335	-10.69
704.363	10.31
704.391	5.31
704.419	-13.69
704.447	2.31
704.475	-5.69
704.503	-6.69
704.531	7.31
704.558	5.31
704.586	11.31
704.614	7.31
704.642	6.31
704.67	-4.69
704.698	2.31
704.726	10.31
704.754	0.31
704.782	15.31
704.81	0.31
704.838	9.31
704.866	6.31
704.894	-11.69
704.922	2.31
704.95	11.31
704.978	13.31
705.006	8.31
705.034	14.31
705.061	-0.69
705.089	-4.69
705.117	-3.69
705.145	7.31
705.173	9.31
705.201	0.31
705.229	15.31
705.257	1.31
705.285	13.31
705.313	11.31
705.34	4.31
705.368	8.31
705.396	4.31
705.424	8.31
705.452	-3.69
705.48	-1.69
705.508	3.31
705.536	3.31
705.563	-1.69
705.591	9.31
705.619	10.31
705.647	10.31
705.675	7.31
705.703	11.31
705.731	4.31
705.758	4.31
705.786	-0.69
705.814	11.31
705.842	-2.69
705.87	11.31
705.898	3.31
705.925	3.31
705.953	5.31
705.981	-15.69
706.009	-0.69
706.037	9.31
706.065	1.31
706.092	-2.69
706.12	-2.69
706.148	-10.69
706.176	7.31
706.204	10.31
706.231	1.31
706.259	-6.69
706.287	7.31
706.315	10.31
706.342	1.31
706.37	18.31
706.398	10.31
706.426	5.31
706.454	0.31
706.481	7.31
706.509	8.31
706.537	-0.69
706.565	-6.69
706.592	18.31
706.62	-6.69
706.648	0.31
706.676	3.31
706.703	0.31
706.731	-0.69
706.759	2.31
706.787	1.31
706.814	6.31
706.842	6.31
706.87	3.31
706.897	3.31
706.925	0.31
706.953	15.31
706.981	23.31
707.008	17.31
707.036	14.31
707.064	-3.69
707.091	-17.69
707.119	2.31
707.147	-2.69
707.174	-5.69
707.202	2.31
707.23	-0.69
707.258	3.31
707.285	-6.69
707.313	1.31
707.341	-8.69
707.368	-5.69
707.396	3.31
707.424	32.31
707.451	-3.69
707.479	-3.69
707.507	5.31
707.534	0.31
707.562	-1.69
707.59	2.31
707.617	-7.69
707.645	-1.69
707.672	6.31
707.7	6.31
707.728	-1.69
707.755	2.31
707.783	-1.69
707.811	5.31
707.838	10.31
707.866	4.31
707.893	4.31
707.921	0.31
707.949	18.31
707.976	7.31
708.004	9.31
708.031	-0.69
708.059	-1.69
708.087	14.31
708.114	-1.69
708.142	-1.69
708.169	-13.69
708.197	-8.69
708.225	1.31
708.252	-13.69
708.28	3.31
708.307	-21.69
708.335	10.31
708.362	3.31
708.39	-5.69
708.418	3.31
708.445	-6.69
708.473	2.31
708.5	5.31
708.528	-0.69
708.555	2.31
708.583	0.31
708.61	-5.69
708.638	-2.69
708.665	-12.69
708.693	-4.69
708.72	-6.69
708.748	-3.69
708.776	7.31
708.803	16.31
708.831	27.31
708.858	18.31
708.886	-1.69
708.913	-9.69
708.941	-13.69
708.968	19.31
708.996	6.31
709.023	33.31
709.051	-0.69
709.078	-16.69
709.105	4.31
709.133	6.31
709.16	5.31
709.188	5.31
709.215	-2.69
709.243	-2.69
709.27	-13.69
709.298	-11.69
709.325	8.31
709.353	2.31
709.38	3.31
709.408	-1.69
709.435	-1.69
709.462	4.31
709.49	32.31
709.517	5.31
709.545	-8.69
709.572	-10.69
709.6	2.31
709.627	18.31
709.655	-8.69
709.682	-3.69
709.709	-9.69
709.737	4.31
709.764	-4.69
709.792	17.31
709.819	-2.69
709.846	-4.69
709.874	-3.69
709.901	-0.69
709.929	21.31
709.956	18.31
709.983	1.31
710.011	3.31
710.038	-7.69
710.066	0.31
710.093	6.31
710.12	13.31
710.148	2.31
710.175	-6.69
710.202	-7.69
710.23	5.31
710.257	2.31
710.284	15.31
710.312	-18.69
710.339	2.31
710.366	14.31
710.394	7.31
710.421	0.31
710.448	-1.69
710.476	-4.69
710.503	-0.69
710.53	18.31
710.558	21.31
710.585	3.31
710.612	-6.69
710.64	-0.69
710.667	-9.69
710.694	-10.69
710.722	-1.69
710.749	10.31
710.776	-6.69
710.804	16.31
710.831	2.31
710.858	-5.69
710.885	9.31
710.913	11.31
710.94	21.31
710.967	9.31
710.995	4.31
711.022	-3.69
711.049	12.31
711.076	2.31
711.104	1.31
711.131	-2.69
711.158	-13.69
711.185	10.31
711.213	-7.69
711.24	-7.69
711.267	8.31
711.294	-11.69
711.322	7.31
711.349	-5.69
711.376	-9.69
711.403	5.31
711.431	-11.69
711.458	-8.69
711.485	-5.69
711.512	3.31
711.54	3.31
711.567	20.31
711.594	5.31
711.621	-1.69
711.648	-0.69
711.676	13.31
711.703	4.31
711.73	-2.69
711.757	2.31
711.784	-2.69
711.812	6.31
711.839	5.31
711.866	-6.69
711.893	-2.69
711.92	9.31
711.947	11.31
711.975	7.31
712.002	-8.69
712.029	18.31
712.056	0.31
712.083	-3.69
712.11	10.31
712.138	11.31
712.165	12.31
712.192	0.31
712.219	4.31
712.246	-6.69
712.273	6.31
712.3	4.31
712.328	-5.69
712.355	10.31
712.382	0.31
712.409	29.31
712.436	-12.69
712.463	2.31
712.49	3.31
712.517	15.31
712.544	9.31
712.572	17.31
712.599	9.31
712.626	13.31
712.653	-2.69
712.68	-2.69
712.707	24.31
712.734	23.31
712.761	14.31
712.788	2.31
712.815	5.31
712.842	12.31
712.87	8.31
712.897	-0.69
712.924	-14.69
712.951	8.31
712.978	7.31
713.005	3.31
713.032	6.31
713.059	-9.69
713.086	3.31
713.113	-9.69
713.14	-11.69
713.167	18.31
713.194	22.31
713.221	-14.69
713.248	-1.69
713.275	-1.69
713.302	-10.69
713.329	28.31
713.356	21.31
713.383	12.31
713.41	3.31
713.437	-19.69
713.464	8.31
713.491	6.31
713.518	-5.69
713.545	-26.69
713.572	-5.69
713.599	18.31
713.626	3.31
713.653	11.31
713.68	-5.69
713.707	-4.69
713.734	2.31
713.761	6.31
713.788	6.31
713.815	8.31
713.842	4.31
713.869	9.31
713.896	-5.69
713.923	8.31
713.95	-0.69
713.977	-6.69
714.004	-1.69
714.031	-1.69
714.058	-2.69
714.085	7.31
714.112	22.31
714.139	4.31
714.165	-6.69
714.192	7.31
714.219	10.31
714.246	9.31
714.273	4.31
714.3	1.31
714.327	-6.69
714.354	13.31
714.381	4.31
714.408	5.31
714.435	-2.69
714.461	9.31
714.488	23.31
714.515	2.31
714.542	-1.69
714.569	-6.69
714.596	-5.69
714.623	-6.69
714.65	-0.69
714.677	2.31
714.703	1.31
714.73	8.31
714.757	8.31
714.784	-2.69
714.811	-6.69
714.838	3.31
714.865	4.31
714.891	3.31
714.918	3.31
714.945	-5.69
714.972	-5.69
714.999	8.31
715.026	-0.69
715.052	16.31
715.079	-0.69
715.106	4.31
715.133	-4.69
715.16	-12.69
715.187	-3.69
715.213	-3.69
715.24	-16.69
715.267	3.31
715.294	-6.69
715.321	-4.69
715.347	6.31
715.374	4.31
715.401	5.31
715.428	-3.69
715.455	-1.69
715.481	-8.69
715.508	10.31
715.535	-3.69
715.562	7.31
715.588	-5.69
715.615	2.31
715.642	-8.69
715.669	-5.69
715.695	-18.69
715.722	-4.69
715.749	16.31
715.776	16.31
715.802	-0.69
715.829	16.31
715.856	-3.69
715.883	9.31
715.909	-9.69
715.936	0.31
715.963	-9.69
715.99	-24.69
716.016	-10.69
716.043	4.31
716.07	-4.69
716.096	-18.69
716.123	-5.69
716.15	-6.69
716.177	3.31
716.203	13.31
716.23	7.31
716.257	3.31
716.283	7.31
716.31	24.31
716.337	10.31
716.363	-1.69
716.39	10.31
716.417	22.31
716.443	3.31
716.47	19.31
716.497	4.31
716.523	14.31
716.55	14.31
716.577	2.31
716.603	2.31
716.63	0.31
716.657	17.31
716.683	-8.69
716.71	-2.69
716.737	5.31
716.763	2.31
716.79	1.31
716.817	-6.69
716.843	-2.69
716.87	-4.69
716.897	7.31
716.923	21.31
716.95	-1.69
716.976	-9.69
717.003	4.31
717.03	7.31
717.056	3.31
717.083	-3.69
717.109	11.31
717.136	13.31
717.163	7.31
717.189	-0.69
717.216	6.31
717.242	2.31
717.269	13.31
717.296	13.31
717.322	17.31
717.349	18.31
717.375	11.31
717.402	0.31
717.428	8.31
717.455	11.31
717.481	5.31
717.508	5.31
717.535	13.31
717.561	11.31
717.588	-4.69
717.614	3.31
717.641	-2.69
717.667	12.31
717.694	7.31
717.72	2.31
717.747	3.31
717.773	-5.69
717.8	4.31
717.826	1.31
717.853	-5.69
717.88	21.31
717.906	15.31
717.933	3.31
717.959	19.31
717.986	7.31
718.012	4.31
718.039	22.31
718.065	14.31
718.092	24.31
718.118	-2.69
718.144	-3.69
718.171	4.31
718.197	13.31
718.224	9.31
718.25	10.31
718.277	10.31
718.303	5.31
718.33	-9.69
718.356	-18.69
718.383	-19.69
718.409	-8.69
718.436	-6.69
718.462	-5.69
718.489	-6.69
718.515	21.31
718.541	9.31
718.568	8.31
718.594	17.31
718.621	10.31
718.647	-4.69
718.674	14.31
718.7	6.31
718.726	-8.69
718.753	1.31
718.779	30.31
718.806	22.31
718.832	3.31
718.858	3.31
718.885	12.31
718.911	22.31
718.938	7.31
718.964	-1.69
718.99	2.31
719.017	16.31
719.043	1.31
719.07	17.31
719.096	-14.69
719.122	21.31
719.149	23.31
719.175	0.31
719.201	8.31
719.228	2.31
719.254	8.31
719.281	13.31
719.307	2.31
719.333	1.31
719.36	23.31
719.386	10.31
719.412	-8.69
719.439	-11.69
719.465	-1.69
719.491	2.31
719.518	-1.69
719.544	-0.69
719.57	9.31
719.597	4.31
719.623	-4.69
719.649	-13.69
719.675	3.31
719.702	4.31
719.728	21.31
719.754	3.31
719.781	2.31
719.807	-2.69
719.833	-5.69
719.86	-1.69
719.886	-1.69
719.912	-5.69
719.938	4.31
719.965	19.31
719.991	18.31
720.017	1.31
720.044	-0.69
720.07	5.31
720.096	13.31
720.122	4.31
720.149	1.31
720.175	18.31
720.201	9.31
720.227	-1.69
720.254	0.31
720.28	6.31
720.306	-2.69
720.332	9.31
720.359	-10.69
720.385	3.31
720.411	14.31
720.437	5.31
720.463	-0.69
720.49	7.31
720.516	6.31
720.542	-12.69
720.568	12.31
720.595	10.31
720.621	10.31
720.647	17.31
720.673	11.31
720.699	-5.69
720.725	9.31
720.752	4.31
720.778	1.31
720.804	8.31
720.83	2.31
720.856	5.31
720.883	-6.69
720.909	-6.69
720.935	4.31
720.961	14.31
720.987	24.31
721.013	3.31
721.04	2.31
721.066	-10.69
721.092	-1.69
721.118	-2.69
721.144	16.31
721.17	2.31
721.196	3.31
721.223	9.31
721.249	3.31
721.275	3.31
721.301	13.31
721.327	12.31
721.353	14.31
721.379	10.31
721.405	16.31
721.432	5.31
721.458	-0.69
721.484	0.31
721.51	3.31
721.536	2.31
721.562	-5.69
721.588	9.31
721.614	6.31
721.64	0.31
721.666	9.31
721.693	-1.69
721.719	-2.69
721.745	-19.69
721.771	-13.69
721.797	-15.69
721.823	-0.69
721.849	15.31
721.875	16.31
721.901	7.31
721.927	4.31
721.953	-2.69
721.979	29.31
722.005	19.31
722.031	-10.69
722.057	8.31
722.083	-0.69
722.109	20.31
722.135	3.31
722.161	12.31
722.187	-9.69
722.214	2.31
722.24	13.31
722.266	-5.69
722.292	5.31
722.318	17.31
722.344	9.31
722.37	4.31
722.396	1.31
722.422	-7.69
722.448	6.31
722.474	-8.69
722.5	1.31
722.526	-8.69
722.552	-3.69
722.578	12.31
722.603	3.31
722.629	-0.69
722.655	10.31
722.681	8.31
722.707	-2.69
722.733	-1.69
722.759	1.31
722.785	5.31
722.811	0.31
722.837	10.31
722.863	10.31
722.889	14.31
722.915	-2.69
722.941	1.31
722.967	-2.69
722.993	18.31
723.019	4.31
723.045	3.31
723.071	5.31
723.097	9.31
723.122	-1.69
723.148	-10.69
723.174	-2.69
723.2	1.31
723.226	1.31
723.252	12.31
723.278	1.31
723.304	-3.69
723.33	5.31
723.356	1.31
723.381	-2.69
723.407	-8.69
723.433	8.31
723.459	2.31
723.485	3.31
723.511	18.31
723.537	1.31
723.563	-0.69
723.588	6.31
723.614	-5.69
723.64	-13.69
723.666	6.31
723.692	1.31
723.718	-6.69
723.744	10.31
723.769	-2.69
723.795	-1.69
723.821	10.31
723.847	13.31
723.873	11.31
723.899	4.31
723.924	-3.69
723.95	-1.69
723.976	5.31
724.002	4.31
724.028	7.31
724.053	-1.69
724.079	6.31
724.105	13.31
724.131	-2.69
724.157	10.31
724.182	2.31
724.208	6.31
724.234	1.31
724.26	-1.69
724.286	15.31
724.311	0.31
724.337	-1.69
724.363	-12.69
724.389	-0.69
724.415	-2.69
724.44	22.31
724.466	5.31
724.492	2.31
724.518	1.31
724.543	-1.69
724.569	13.31
724.595	8.31
724.621	1.31
724.646	-8.69
724.672	0.31
724.698	2.31
724.723	7.31
724.749	-1.69
724.775	6.31
724.801	4.31
724.826	2.31
724.852	-5.69
724.878	1.31
724.904	-17.69
724.929	-3.69
724.955	-5.69
724.981	6.31
725.006	-1.69
725.032	10.31
725.058	23.31
725.083	-3.69
725.109	6.31
725.135	6.31
725.161	14.31
725.186	-5.69
725.212	-7.69
725.238	5.31
725.263	-11.69
725.289	-9.69
725.315	-4.69
725.34	-17.69
725.366	1.31
725.392	9.31
725.417	6.31
725.443	2.31
725.468	8.31
725.494	15.31
725.52	14.31
725.545	7.31
725.571	10.31
725.597	4.31
725.622	7.31
725.648	5.31
725.674	10.31
725.699	2.31
725.725	2.31
725.75	24.31
725.776	5.31
725.802	12.31
725.827	7.31
725.853	-5.69
725.878	1.31
725.904	-2.69
725.93	-1.69
725.955	-7.69
725.981	-4.69
726.006	-4.69
726.032	2.31
726.057	4.31
726.083	-12.69
726.109	5.31
726.134	6.31
726.16	-13.69
726.185	-9.69
726.211	-3.69
726.236	8.31
726.262	-1.69
726.288	13.31
726.313	7.31
726.339	6.31
726.364	-2.69
726.39	1.31
726.415	-1.69
726.441	-7.69
726.466	-1.69
726.492	20.31
726.517	-3.69
726.543	-6.69
726.568	-8.69
726.594	2.31
726.619	-1.69
726.645	-2.69
726.67	2.31
726.696	12.31
726.721	-8.69
726.747	-13.69
726.772	-1.69
726.798	-0.69
726.823	-1.69
726.849	-2.69
726.874	7.31
726.9	14.31
726.925	7.31
726.951	4.31
726.976	12.31
727.002	2.31
727.027	11.31
727.053	19.31
727.078	-4.69
727.104	6.31
727.129	-0.69
727.155	3.31
727.18	18.31
727.205	-0.69
727.231	-5.69
727.256	-5.69
727.282	5.31
727.307	10.31
727.333	15.31
727.358	-0.69
727.383	-9.69
727.409	-7.69
727.434	3.31
727.46	2.31
727.485	-0.69
727.511	5.31
727.536	-11.69
727.561	-2.69
727.587	-7.69
727.612	-6.69
727.637	1.31
727.663	5.31
727.688	13.31
727.714	-13.69
727.739	-22.69
727.764	-3.69
727.79	3.31
727.815	16.31
727.841	15.31
727.866	-13.69
727.891	1.31
727.917	0.31
727.942	-10.69
727.967	-4.69
727.993	1.31
728.018	2.31
728.043	-0.69
728.069	1.31
728.094	4.31
728.119	-10.69
728.145	15.31
728.17	1.31
728.195	18.31
728.221	10.31
728.246	5.31
728.271	-12.69
728.297	20.31
728.322	10.31
728.347	3.31
728.373	9.31
728.398	22.31
728.423	1.31
728.448	-3.69
728.474	6.31
728.499	12.31
728.524	-5.69
728.55	-11.69
728.575	-11.69
728.6	2.31
728.625	4.31
728.651	3.31
728.676	-1.69
728.701	-10.69
728.727	3.31
728.752	3.31
728.777	1.31
728.802	-3.69
728.828	4.31
728.853	-6.69
728.878	-9.69
728.903	-3.69
728.929	-10.69
728.954	-7.69
728.979	10.31
729.004	6.31
729.03	-3.69
729.055	1.31
729.08	-1.69
729.105	5.31
729.13	17.31
729.156	7.31
729.181	-5.69
729.206	-22.69
729.231	3.31
729.256	15.31
729.282	4.31
729.307	2.31
729.332	-2.69
729.357	-7.69
729.382	5.31
729.408	6.31
729.433	4.31
729.458	-0.69
729.483	12.31
729.508	20.31
729.533	2.31
729.559	-0.69
729.584	-9.69
729.609	19.31
729.634	8.31
729.659	-7.69
729.684	-17.69
729.71	18.31
729.735	3.31
729.76	9.31
729.785	-9.69
729.81	10.31
729.835	-4.69
729.86	2.31
729.886	-2.69
729.911	-4.69
729.936	-10.69
729.961	23.31
729.986	-14.69
730.011	-17.69
730.036	6.31
730.061	5.31
730.086	8.31
730.112	3.31
730.137	10.31
730.162	13.31
730.187	8.31
730.212	7.31
730.237	-6.69
730.262	2.31
730.287	-4.69
730.312	7.31
730.337	-7.69
730.362	14.31
730.387	10.31
730.413	-0.69
730.438	-13.69
730.463	2.31
730.488	-9.69
730.513	4.31
730.538	-1.69
730.563	6.31
730.588	0.31
730.613	6.31
730.638	1.31
730.663	-9.69
730.688	7.31
730.713	6.31
730.738	5.31
730.763	-3.69
730.788	3.31
730.813	2.31
730.838	-3.69
730.863	2.31
730.888	-8.69
730.913	-10.69
730.938	-12.69
730.963	3.31
730.988	-2.69
731.013	16.31
731.038	-7.69
731.063	-14.69
731.088	16.31
731.113	-4.69
731.138	-18.69
731.163	2.31
731.188	-6.69
731.213	3.31
731.238	-1.69
731.263	0.31
731.288	-16.69
731.313	3.31
731.338	9.31
731.363	0.31
731.388	-4.69
731.413	-1.69
731.438	6.31
731.463	7.31
731.487	-1.69
731.512	3.31
731.537	-2.69
731.562	1.31
731.587	7.31
731.612	-9.69
731.637	-10.69
731.662	-1.69
731.687	-1.69
731.712	6.31
731.737	-7.69
731.762	16.31
731.786	14.31
731.811	2.31
731.836	-3.69
731.861	-9.69
731.886	-1.69
731.911	5.31
731.936	16.31
731.961	9.31
731.986	3.31
732.01	-6.69
732.035	-0.69
732.06	7.31
732.085	12.31
732.11	-1.69
732.135	-14.69
732.16	7.31
732.184	2.31
732.209	-4.69
732.234	9.31
732.259	11.31
732.284	15.31
732.309	-9.69
732.334	-9.69
732.358	-15.69
732.383	-5.69
732.408	-15.69
732.433	9.31
732.458	-1.69
732.482	-6.69
732.507	6.31
732.532	-0.69
732.557	10.31
732.582	-5.69
732.607	-10.69
732.631	-14.69
732.656	-21.69
732.681	-9.69
732.706	11.31
732.73	25.31
732.755	1.31
732.78	3.31
732.805	15.31
732.83	3.31
732.854	1.31
732.879	3.31
732.904	11.31
732.929	-1.69
732.953	19.31
732.978	5.31
733.003	-19.69
733.028	-12.69
733.052	2.31
733.077	11.31
733.102	12.31
733.127	-4.69
733.151	-5.69
733.176	5.31
733.201	6.31
733.226	3.31
733.25	3.31
733.275	11.31
733.3	21.31
733.324	13.31
733.349	11.31
733.374	17.31
733.399	6.31
733.423	3.31
733.448	-6.69
733.473	-3.69
733.497	-13.69
733.522	-5.69
733.547	23.31
733.571	13.31
733.596	12.31
733.621	26.31
733.646	3.31
733.67	-2.69
733.695	-6.69
733.72	-0.69
733.744	20.31
733.769	12.31
733.794	8.31
733.818	1.31
733.843	-3.69
733.867	-3.69
733.892	-8.69
733.917	0.31
733.941	22.31
733.966	-8.69
733.991	-11.69
734.015	-3.69
734.04	-1.69
734.065	17.31
734.089	18.31
734.114	5.31
734.138	2.31
734.163	-2.69
734.188	-2.69
734.212	11.31
734.237	4.31
734.261	11.31
734.286	2.31
734.311	-1.69
734.335	18.31
734.36	-8.69
734.384	-13.69
734.409	-1.69
734.434	-1.69
734.458	-0.69
734.483	-4.69
734.507	-10.69
734.532	-1.69
734.556	-1.69
734.581	-3.69
734.606	14.31
734.63	-4.69
734.655	3.31
734.679	-0.69
734.704	-0.69
734.728	9.31
734.753	-6.69
734.777	11.31
734.802	-4.69
734.826	6.31
734.851	-3.69
734.876	5.31
734.9	1.31
734.925	12.31
734.949	1.31
734.974	-0.69
734.998	13.31
735.023	4.31
735.047	-4.69
735.072	17.31
735.096	2.31
735.121	2.31
735.145	-11.69
735.17	12.31
735.194	7.31
735.219	-9.69
735.243	-6.69
735.268	13.31
735.292	6.31
735.317	4.31
735.341	2.31
735.365	-9.69
735.39	14.31
735.414	-7.69
735.439	10.31
735.463	-8.69
735.488	6.31
735.512	0.31
735.537	-1.69
735.561	-7.69
735.586	-2.69
735.61	-6.69
735.634	2.31
735.659	3.31
735.683	13.31
735.708	14.31
735.732	-1.69
735.757	-0.69
735.781	12.31
735.805	20.31
735.83	-4.69
735.854	-0.69
735.879	0.31
735.903	16.31
735.927	11.31
735.952	15.31
735.976	-0.69
736.001	3.31
736.025	14.31
736.049	4.31
736.074	2.31
736.098	21.31
736.123	17.31
736.147	2.31
736.171	10.31
736.196	1.31
736.22	-11.69
736.244	-3.69
736.269	16.31
736.293	5.31
736.317	4.31
736.342	7.31
736.366	18.31
736.39	14.31
736.415	14.31
736.439	1.31
736.463	2.31
736.488	9.31
736.512	-1.69
736.536	14.31
736.561	27.31
736.585	2.31
736.609	9.31
736.634	-3.69
736.658	7.31
736.682	0.31
736.707	-3.69
736.731	-0.69
736.755	14.31
736.78	11.31
736.804	11.31
736.828	7.31
736.852	-0.69
736.877	20.31
736.901	6.31
736.925	11.31
736.949	1.31
736.974	-1.69
736.998	-7.69
737.022	-0.69
737.047	1.31
737.071	-8.69
737.095	21.31
737.119	25.31
737.144	1.31
737.168	3.31
737.192	-5.69
737.216	-4.69
737.241	-4.69
737.265	4.31
737.289	-0.69
737.313	-4.69
737.337	18.31
737.362	14.31
737.386	-6.69
737.41	-1.69
737.434	2.31
737.459	9.31
737.483	7.31
737.507	12.31
737.531	15.31
737.555	5.31
737.58	7.31
737.604	6.31
737.628	-9.69
737.652	6.31
737.676	-1.69
737.701	-1.69
737.725	-9.69
737.749	2.31
737.773	13.31
737.797	4.31
737.821	-11.69
737.846	19.31
737.87	35.31
737.894	-1.69
737.918	-16.69
737.942	-0.69
737.966	16.31
737.99	21.31
738.015	-1.69
738.039	13.31
738.063	4.31
738.087	18.31
738.111	5.31
738.135	22.31
738.159	7.31
738.184	2.31
738.208	10.31
738.232	2.31
738.256	31.31
738.28	16.31
738.304	8.31
738.328	6.31
738.352	2.31
738.376	10.31
738.4	17.31
738.425	-4.69
738.449	-18.69
738.473	14.31
738.497	2.31
738.521	15.31
738.545	10.31
738.569	13.31
738.593	16.31
738.617	28.31
738.641	5.31
738.665	11.31
738.689	15.31
738.713	23.31
738.737	2.31
738.762	2.31
738.786	2.31
738.81	-5.69
738.834	9.31
738.858	-3.69
738.882	14.31
738.906	-4.69
738.93	4.31
738.954	21.31
738.978	11.31
739.002	-3.69
739.026	15.31
739.05	16.31
739.074	-6.69
739.098	18.31
739.122	16.31
739.146	18.31
739.17	8.31
739.194	2.31
739.218	4.31
739.242	7.31
739.266	5.31
739.29	7.31
739.314	-0.69
739.338	20.31
739.362	18.31
739.386	0.31
739.41	-8.69
739.434	-8.69
739.458	27.31
739.482	13.31
739.506	-5.69
739.53	1.31
739.554	15.31
739.577	-0.69
739.601	2.31
739.625	-3.69
739.649	2.31
739.673	-3.69
739.697	10.31
739.721	2.31
739.745	10.31
739.769	7.31
739.793	12.31
739.817	13.31
739.841	2.31
739.865	3.31
739.889	-5.69
739.912	9.31
739.936	-5.69
739.96	-0.69
739.984	29.31
740.008	7.31
740.032	2.31
740.056	-6.69
740.08	11.31
740.104	6.31
740.127	-6.69
740.151	13.31
740.175	11.31
740.199	18.31
740.223	43.31
740.247	15.31
740.271	1.31
740.295	7.31
740.318	7.31
740.342	6.31
740.366	14.31
740.39	10.31
740.414	6.31
740.438	-0.69
740.461	16.31
740.485	11.31
740.509	1.31
740.533	17.31
740.557	0.31
740.581	-12.69
740.604	-11.69
740.628	-3.69
740.652	19.31
740.676	1.31
740.7	15.31
740.723	-9.69
740.747	5.31
740.771	17.31
740.795	4.31
740.819	9.31
740.842	8.31
740.866	7.31
740.89	4.31
740.914	-9.69
740.938	-16.69
740.961	16.31
740.985	9.31
741.009	-9.69
741.033	3.31
741.056	4.31
741.08	-5.69
741.104	-1.69
741.128	3.31
741.151	9.31
741.175	3.31
741.199	15.31
741.223	15.31
741.246	-5.69
741.27	1.31
741.294	2.31
741.318	11.31
741.341	1.31
741.365	18.31
741.389	14.31
741.413	11.31
741.436	12.31
741.46	8.31
741.484	20.31
741.507	8.31
741.531	27.31
741.555	19.31
741.579	11.31
741.602	18.31
741.626	3.31
741.65	3.31
741.673	7.31
741.697	12.31
741.721	8.31
741.744	-6.69
741.768	13.31
741.792	5.31
741.815	4.31
741.839	26.31
741.863	19.31
741.886	16.31
741.91	12.31
741.934	13.31
741.957	-10.69
741.981	9.31
742.005	14.31
742.028	7.31
742.052	-1.69
742.075	7.31
742.099	17.31
742.123	10.31
742.146	-10.69
742.17	8.31
742.194	-4.69
742.217	1.31
742.241	1.31
742.264	-3.69
742.288	27.31
742.312	22.31
742.335	-0.69
742.359	17.31
742.382	13.31
742.406	10.31
742.43	-0.69
742.453	2.31
742.477	0.31
742.5	25.31
742.524	-4.69
742.548	2.31
742.571	-4.69
742.595	-6.69
742.618	2.31
742.642	-6.69
742.665	5.31
742.689	-11.69
742.712	7.31
742.736	1.31
742.76	1.31
742.783	-0.69
742.807	1.31
742.83	16.31
742.854	-17.69
742.877	-5.69
742.901	16.31
742.924	5.31
742.948	20.31
742.971	31.31
742.995	23.31
743.018	-5.69
743.042	1.31
743.065	4.31
743.089	-1.69
743.112	4.31
743.136	3.31
743.159	2.31
743.183	6.31
743.206	12.31
743.23	-2.69
743.253	8.31
743.277	22.31
743.3	-4.69
743.324	8.31
743.347	15.31
743.371	25.31
743.394	20.31
743.418	20.31
743.441	7.31
743.465	8.31
743.488	0.31
743.512	-2.69
743.535	1.31
743.558	4.31
743.582	7.31
743.605	5.31
743.629	21.31
743.652	11.31
743.676	-4.69
743.699	4.31
743.723	2.31
743.746	6.31
743.769	2.31
743.793	20.31
743.816	10.31
743.84	21.31
743.863	-8.69
743.886	20.31
743.91	8.31
743.933	7.31
743.957	9.31
743.98	-6.69
744.003	-3.69
744.027	3.31
744.05	-1.69
744.074	-1.69
744.097	-3.69
744.12	-10.69
744.144	-2.69
744.167	16.31
744.19	11.31
744.214	3.31
744.237	-0.69
744.26	33.31
744.284	14.31
744.307	-2.69
744.331	-5.69
744.354	-9.69
744.377	10.31
744.401	-6.69
744.424	5.31
744.447	9.31
744.471	-14.69
