Data from LowRes_mercury_15_20_11_07_2024_HR4C61881__16__15-23-33-871.txt Node

Date: Thu Nov 07 15:23:33 EST 2024
User: crc00042
Spectrometer: HR4C6188
Trigger mode: 4
Integration Time (sec): 1.000000E-1
Scans to average: 1
Electric dark correction enabled: true
Nonlinearity correction enabled: false
Boxcar width: 0
XAxis mode: Wavelengths
Number of Pixels in Spectrum: 3648
>>>>>Begin Spectral Data<<<<<
245.66	-70.92
245.797	-70.92
245.934	-70.92
246.071	-71.92
246.208	5.08
246.344	-4.92
246.481	-4.92
246.618	-1.92
246.755	7.08
246.892	-10.92
247.029	-3.92
247.165	-1.92
247.302	17.08
247.439	-6.92
247.576	5.08
247.713	-6.92
247.849	18.08
247.986	-4.92
248.123	4.08
248.26	-16.92
248.396	12.08
248.533	-9.92
248.67	-11.92
248.806	1.08
248.943	-12.92
249.08	-6.92
249.216	19.08
249.353	-24.92
249.49	-5.92
249.626	-7.92
249.763	14.08
249.9	-9.92
250.036	18.08
250.173	8.08
250.309	7.08
250.446	-3.92
250.582	-5.92
250.719	-13.92
250.856	-6.92
250.992	1.08
251.129	10.08
251.265	-13.92
251.402	4.08
251.538	-11.92
251.675	9.08
251.811	22.08
251.948	19.08
252.084	5.08
252.221	-1.92
252.357	-4.92
252.493	26.08
252.63	-15.92
252.766	10.08
252.903	-5.92
253.039	-1.92
253.175	-6.92
253.312	-6.92
253.448	-23.92
253.585	-18.92
253.721	-2.92
253.857	-17.92
253.994	22.08
254.13	3.08
254.266	8.08
254.403	3.08
254.539	20.08
254.675	11.08
254.811	6.08
254.948	2.08
255.084	-17.92
255.22	-18.92
255.356	-4.92
255.493	18.08
255.629	-9.92
255.765	-14.92
255.901	2.08
256.037	-8.92
256.174	-21.92
256.31	-7.92
256.446	-5.92
256.582	-8.92
256.718	-7.92
256.854	24.08
256.991	-2.92
257.127	10.08
257.263	-3.92
257.399	-1.92
257.535	-2.92
257.671	10.08
257.807	-7.92
257.943	-7.92
258.079	-15.92
258.215	-2.92
258.351	16.08
258.487	9.08
258.623	25.08
258.759	-13.92
258.895	-8.92
259.031	1.08
259.167	-9.92
259.303	9.08
259.439	1.08
259.575	-9.92
259.711	10.08
259.847	5.08
259.983	6.08
260.119	0.08
260.255	-8.92
260.391	9.08
260.527	-2.92
260.663	7.08
260.799	15.08
260.934	-7.92
261.07	-11.92
261.206	-9.92
261.342	-11.92
261.478	11.08
261.614	13.08
261.749	16.08
261.885	0.08
262.021	15.08
262.157	15.08
262.293	-10.92
262.428	-23.92
262.564	-13.92
262.7	11.08
262.836	5.08
262.971	15.08
263.107	18.08
263.243	31.08
263.378	1.08
263.514	-18.92
263.65	-9.92
263.785	-5.92
263.921	-8.92
264.057	1.08
264.192	1.08
264.328	24.08
264.464	-10.92
264.599	3.08
264.735	7.08
264.871	-4.92
265.006	-3.92
265.142	-6.92
265.277	21.08
265.413	14.08
265.548	16.08
265.684	2.08
265.819	-5.92
265.955	-3.92
266.091	8.08
266.226	5.08
266.362	0.08
266.497	9.08
266.633	9.08
266.768	-2.92
266.903	-2.92
267.039	1.08
267.174	2.08
267.31	-8.92
267.445	-11.92
267.581	-6.92
267.716	21.08
267.851	14.08
267.987	16.08
268.122	23.08
268.258	-12.92
268.393	-10.92
268.528	18.08
268.664	-3.92
268.799	-13.92
268.934	10.08
269.07	6.08
269.205	-5.92
269.34	26.08
269.476	11.08
269.611	-5.92
269.746	15.08
269.881	10.08
270.017	34.08
270.152	12.08
270.287	8.08
270.422	7.08
270.558	-2.92
270.693	6.08
270.828	4.08
270.963	5.08
271.098	1.08
271.234	-1.92
271.369	19.08
271.504	-12.92
271.639	-10.92
271.774	-10.92
271.909	-1.92
272.045	-17.92
272.18	-7.92
272.315	3.08
272.45	18.08
272.585	-24.92
272.72	-0.92
272.855	10.08
272.99	11.08
273.125	-27.92
273.26	-5.92
273.395	-7.92
273.53	-11.92
273.665	3.08
273.8	3.08
273.935	-0.92
274.07	11.08
274.205	17.08
274.34	-5.92
274.475	-10.92
274.61	16.08
274.745	-4.92
274.88	13.08
275.015	-1.92
275.15	14.08
275.285	11.08
275.42	22.08
275.555	30.08
275.69	13.08
275.825	-8.92
275.959	4.08
276.094	2.08
276.229	-24.92
276.364	-3.92
276.499	8.08
276.634	8.08
276.768	8.08
276.903	5.08
277.038	5.08
277.173	15.08
277.308	8.08
277.442	4.08
277.577	-7.92
277.712	2.08
277.847	-3.92
277.981	0.08
278.116	-3.92
278.251	2.08
278.386	5.08
278.52	6.08
278.655	1.08
278.79	8.08
278.924	-16.92
279.059	5.08
279.194	-19.92
279.328	26.08
279.463	5.08
279.598	25.08
279.732	13.08
279.867	8.08
280.001	21.08
280.136	-4.92
280.271	-0.92
280.405	-4.92
280.54	-3.92
280.674	8.08
280.809	30.08
280.943	2.08
281.078	-13.92
281.213	22.08
281.347	30.08
281.482	14.08
281.616	9.08
281.751	0.08
281.885	-14.92
282.02	1.08
282.154	10.08
282.288	-0.92
282.423	-2.92
282.557	-10.92
282.692	0.08
282.826	1.08
282.961	0.08
283.095	10.08
283.229	8.08
283.364	-15.92
283.498	8.08
283.633	16.08
283.767	7.08
283.901	-2.92
284.036	9.08
284.17	0.08
284.304	-7.92
284.439	8.08
284.573	12.08
284.707	20.08
284.842	13.08
284.976	-20.92
285.11	-9.92
285.244	19.08
285.379	38.08
285.513	-5.92
285.647	17.08
285.781	15.08
285.916	20.08
286.05	5.08
286.184	17.08
286.318	10.08
286.453	0.08
286.587	-4.92
286.721	6.08
286.855	13.08
286.989	17.08
287.123	-9.92
287.258	-1.92
287.392	-5.92
287.526	20.08
287.66	8.08
287.794	-4.92
287.928	0.08
288.062	-7.92
288.196	-3.92
288.33	25.08
288.464	28.08
288.598	12.08
288.733	2.08
288.867	23.08
289.001	0.08
289.135	-3.92
289.269	8.08
289.403	-10.92
289.537	-6.92
289.671	16.08
289.805	-5.92
289.939	0.08
290.073	-5.92
290.207	13.08
290.34	9.08
290.474	38.08
290.608	29.08
290.742	17.08
290.876	-6.92
291.01	-0.92
291.144	14.08
291.278	10.08
291.412	-1.92
291.546	-1.92
291.679	-10.92
291.813	16.08
291.947	-1.92
292.081	-12.92
292.215	-1.92
292.349	17.08
292.482	-16.92
292.616	10.08
292.75	4.08
292.884	8.08
293.018	18.08
293.151	-6.92
293.285	2.08
293.419	6.08
293.553	-6.92
293.686	-18.92
293.82	-14.92
293.954	38.08
294.088	44.08
294.221	19.08
294.355	-7.92
294.489	7.08
294.622	-9.92
294.756	6.08
294.89	-7.92
295.023	25.08
295.157	2.08
295.291	18.08
295.424	18.08
295.558	18.08
295.691	-1.92
295.825	-5.92
295.959	16.08
296.092	-5.92
296.226	-7.92
296.359	-1.92
296.493	17.08
296.627	25.08
296.76	20.08
296.894	7.08
297.027	4.08
297.161	-10.92
297.294	-6.92
297.428	-4.92
297.561	19.08
297.695	2.08
297.828	5.08
297.962	10.08
298.095	-8.92
298.229	21.08
298.362	-3.92
298.495	-1.92
298.629	-7.92
298.762	-11.92
298.896	-19.92
299.029	-16.92
299.162	11.08
299.296	27.08
299.429	7.08
299.563	0.08
299.696	-10.92
299.829	-2.92
299.963	16.08
300.096	21.08
300.229	11.08
300.363	10.08
300.496	10.08
300.629	-21.92
300.763	-7.92
300.896	0.08
301.029	16.08
301.162	5.08
301.296	-7.92
301.429	7.08
301.562	-27.92
301.695	24.08
301.829	11.08
301.962	16.08
302.095	15.08
302.228	-4.92
302.362	3.08
302.495	-10.92
302.628	24.08
302.761	8.08
302.894	-2.92
303.027	1.08
303.161	-3.92
303.294	-6.92
303.427	15.08
303.56	13.08
303.693	-6.92
303.826	0.08
303.959	-4.92
304.092	2.08
304.225	-7.92
304.359	-3.92
304.492	16.08
304.625	8.08
304.758	15.08
304.891	-9.92
305.024	6.08
305.157	6.08
305.29	8.08
305.423	-24.92
305.556	-3.92
305.689	36.08
305.822	1.08
305.955	-4.92
306.088	-5.92
306.221	-5.92
306.354	-0.92
306.487	-13.92
306.62	6.08
306.752	1.08
306.885	3.08
307.018	4.08
307.151	6.08
307.284	-1.92
307.417	-2.92
307.55	19.08
307.683	16.08
307.816	26.08
307.948	6.08
308.081	16.08
308.214	7.08
308.347	25.08
308.48	-12.92
308.613	-6.92
308.745	7.08
308.878	-1.92
309.011	-16.92
309.144	2.08
309.277	-7.92
309.409	9.08
309.542	11.08
309.675	15.08
309.808	6.08
309.94	28.08
310.073	-3.92
310.206	-11.92
310.339	-1.92
310.471	-13.92
310.604	14.08
310.737	-6.92
310.869	1.08
311.002	-11.92
311.135	8.08
311.267	-17.92
311.4	-9.92
311.533	18.08
311.665	16.08
311.798	12.08
311.93	14.08
312.063	36.08
312.196	51.08
312.328	79.08
312.461	66.08
312.593	31.08
312.726	59.08
312.859	90.08
312.991	158.08
313.124	38.08
313.256	16.08
313.389	10.08
313.521	-28.92
313.654	-10.92
313.786	1.08
313.919	17.08
314.051	2.08
314.184	21.08
314.316	21.08
314.449	-9.92
314.581	-10.92
314.714	-4.92
314.846	21.08
314.978	-8.92
315.111	16.08
315.243	5.08
315.376	9.08
315.508	10.08
315.641	4.08
315.773	22.08
315.905	0.08
316.038	-2.92
316.17	18.08
316.302	0.08
316.435	12.08
316.567	-7.92
316.699	28.08
316.832	-17.92
316.964	-7.92
317.096	13.08
317.229	-1.92
317.361	-17.92
317.493	-1.92
317.625	-3.92
317.758	2.08
317.89	8.08
318.022	-1.92
318.155	-2.92
318.287	14.08
318.419	0.08
318.551	-5.92
318.683	-4.92
318.816	-11.92
318.948	-5.92
319.08	-5.92
319.212	-3.92
319.344	6.08
319.477	-3.92
319.609	11.08
319.741	21.08
319.873	6.08
320.005	-23.92
320.137	10.08
320.269	-0.92
320.401	4.08
320.534	-20.92
320.666	-20.92
320.798	-18.92
320.93	-11.92
321.062	-3.92
321.194	0.08
321.326	-2.92
321.458	16.08
321.59	11.08
321.722	14.08
321.854	7.08
321.986	4.08
322.118	4.08
322.25	12.08
322.382	13.08
322.514	1.08
322.646	2.08
322.778	-8.92
322.91	-2.92
323.042	-4.92
323.174	0.08
323.306	-8.92
323.438	-15.92
323.57	6.08
323.702	5.08
323.834	7.08
323.966	5.08
324.097	10.08
324.229	1.08
324.361	5.08
324.493	13.08
324.625	-6.92
324.757	-1.92
324.889	18.08
325.021	5.08
325.152	14.08
325.284	11.08
325.416	-1.92
325.548	32.08
325.68	10.08
325.811	22.08
325.943	20.08
326.075	-5.92
326.207	16.08
326.339	1.08
326.47	3.08
326.602	9.08
326.734	18.08
326.866	11.08
326.997	-17.92
327.129	1.08
327.261	-12.92
327.392	13.08
327.524	1.08
327.656	8.08
327.787	24.08
327.919	-16.92
328.051	14.08
328.182	17.08
328.314	16.08
328.446	-4.92
328.577	33.08
328.709	21.08
328.841	-6.92
328.972	1.08
329.104	-7.92
329.235	2.08
329.367	7.08
329.499	-2.92
329.63	6.08
329.762	12.08
329.893	14.08
330.025	9.08
330.156	-7.92
330.288	6.08
330.419	21.08
330.551	21.08
330.683	29.08
330.814	-3.92
330.946	10.08
331.077	-9.92
331.208	-7.92
331.34	-6.92
331.471	-6.92
331.603	6.08
331.734	-22.92
331.866	-2.92
331.997	23.08
332.129	17.08
332.26	9.08
332.392	18.08
332.523	8.08
332.654	-9.92
332.786	-5.92
332.917	2.08
333.048	36.08
333.18	20.08
333.311	-10.92
333.443	5.08
333.574	10.08
333.705	32.08
333.837	48.08
333.968	114.08
334.099	229.08
334.231	211.08
334.362	62.08
334.493	11.08
334.624	22.08
334.756	11.08
334.887	15.08
335.018	33.08
335.15	27.08
335.281	10.08
335.412	39.08
335.543	8.08
335.675	-2.92
335.806	12.08
335.937	4.08
336.068	18.08
336.199	27.08
336.331	5.08
336.462	8.08
336.593	28.08
336.724	9.08
336.855	14.08
336.986	15.08
337.118	12.08
337.249	23.08
337.38	12.08
337.511	-15.92
337.642	10.08
337.773	-2.92
337.904	7.08
338.035	-7.92
338.166	13.08
338.298	4.08
338.429	10.08
338.56	13.08
338.691	32.08
338.822	22.08
338.953	34.08
339.084	16.08
339.215	3.08
339.346	5.08
339.477	1.08
339.608	-0.92
339.739	0.08
339.87	23.08
340.001	-2.92
340.132	30.08
340.263	20.08
340.394	8.08
340.525	2.08
340.656	-6.92
340.787	-7.92
340.918	30.08
341.049	20.08
341.179	8.08
341.31	13.08
341.441	35.08
341.572	13.08
341.703	24.08
341.834	8.08
341.965	21.08
342.096	20.08
342.227	14.08
342.357	10.08
342.488	7.08
342.619	3.08
342.75	12.08
342.881	16.08
343.012	15.08
343.142	24.08
343.273	8.08
343.404	5.08
343.535	41.08
343.666	9.08
343.796	34.08
343.927	30.08
344.058	29.08
344.189	33.08
344.319	33.08
344.45	23.08
344.581	16.08
344.712	9.08
344.842	20.08
344.973	38.08
345.104	30.08
345.234	11.08
345.365	10.08
345.496	21.08
345.626	17.08
345.757	34.08
345.888	8.08
346.018	26.08
346.149	22.08
346.28	45.08
346.41	3.08
346.541	19.08
346.672	5.08
346.802	34.08
346.933	43.08
347.063	10.08
347.194	40.08
347.325	33.08
347.455	35.08
347.586	16.08
347.716	13.08
347.847	30.08
347.977	37.08
348.108	38.08
348.238	41.08
348.369	36.08
348.499	36.08
348.63	44.08
348.76	55.08
348.891	41.08
349.021	59.08
349.152	47.08
349.282	49.08
349.413	48.08
349.543	56.08
349.674	30.08
349.804	44.08
349.935	13.08
350.065	38.08
350.196	31.08
350.326	21.08
350.456	15.08
350.587	29.08
350.717	17.08
350.848	27.08
350.978	29.08
351.108	8.08
351.239	42.08
351.369	15.08
351.499	20.08
351.63	16.08
351.76	24.08
351.89	12.08
352.021	22.08
352.151	20.08
352.281	35.08
352.412	32.08
352.542	15.08
352.672	8.08
352.803	13.08
352.933	28.08
353.063	12.08
353.193	20.08
353.324	21.08
353.454	30.08
353.584	26.08
353.714	28.08
353.845	25.08
353.975	17.08
354.105	25.08
354.235	40.08
354.365	27.08
354.496	26.08
354.626	34.08
354.756	23.08
354.886	20.08
355.016	13.08
355.146	20.08
355.277	36.08
355.407	27.08
355.537	37.08
355.667	29.08
355.797	28.08
355.927	5.08
356.057	9.08
356.187	10.08
356.318	8.08
356.448	13.08
356.578	22.08
356.708	30.08
356.838	38.08
356.968	13.08
357.098	26.08
357.228	30.08
357.358	25.08
357.488	29.08
357.618	54.08
357.748	45.08
357.878	17.08
358.008	25.08
358.138	10.08
358.268	14.08
358.398	44.08
358.528	4.08
358.658	30.08
358.788	16.08
358.918	15.08
359.048	17.08
359.178	41.08
359.308	39.08
359.438	34.08
359.568	40.08
359.698	38.08
359.827	23.08
359.957	24.08
360.087	33.08
360.217	31.08
360.347	33.08
360.477	51.08
360.607	1.08
360.737	28.08
360.866	27.08
360.996	20.08
361.126	13.08
361.256	58.08
361.386	49.08
361.516	36.08
361.645	21.08
361.775	42.08
361.905	24.08
362.035	36.08
362.165	33.08
362.294	54.08
362.424	50.08
362.554	52.08
362.684	38.08
362.813	58.08
362.943	56.08
363.073	56.08
363.203	61.08
363.332	78.08
363.462	97.08
363.592	91.08
363.721	129.08
363.851	167.08
363.981	190.08
364.111	250.08
364.24	332.08
364.37	468.08
364.5	879.08
364.629	1870.08
364.759	3917.08
364.888	6386.08
365.018	9546.08
365.148	14881.08
365.277	13158.08
365.407	4836.08
365.537	3155.08
365.666	4105.08
365.796	1866.08
365.925	804.08
366.055	792.08
366.184	1066.08
366.314	1412.08
366.444	2544.08
366.573	2184.08
366.703	691.08
366.832	235.08
366.962	120.08
367.091	92.08
367.221	82.08
367.35	62.08
367.48	85.08
367.609	67.08
367.739	71.08
367.868	21.08
367.998	59.08
368.127	47.08
368.257	82.08
368.386	65.08
368.516	32.08
368.645	27.08
368.775	47.08
368.904	35.08
369.033	20.08
369.163	19.08
369.292	50.08
369.422	26.08
369.551	34.08
369.68	34.08
369.81	43.08
369.939	16.08
370.069	56.08
370.198	36.08
370.327	39.08
370.457	35.08
370.586	42.08
370.715	35.08
370.845	30.08
370.974	37.08
371.103	47.08
371.233	43.08
371.362	45.08
371.491	27.08
371.621	49.08
371.75	31.08
371.879	37.08
372.008	65.08
372.138	63.08
372.267	57.08
372.396	45.08
372.525	56.08
372.655	43.08
372.784	23.08
372.913	29.08
373.042	31.08
373.172	42.08
373.301	1.08
373.43	24.08
373.559	17.08
373.688	13.08
373.818	41.08
373.947	31.08
374.076	32.08
374.205	28.08
374.334	21.08
374.463	-0.92
374.593	32.08
374.722	21.08
374.851	28.08
374.98	8.08
375.109	23.08
375.238	29.08
375.367	18.08
375.496	6.08
375.625	6.08
375.755	29.08
375.884	46.08
376.013	27.08
376.142	-1.92
376.271	32.08
376.4	7.08
376.529	10.08
376.658	20.08
376.787	19.08
376.916	26.08
377.045	15.08
377.174	17.08
377.303	12.08
377.432	28.08
377.561	31.08
377.69	37.08
377.819	38.08
377.948	7.08
378.077	26.08
378.206	9.08
378.335	18.08
378.464	5.08
378.593	24.08
378.722	19.08
378.851	7.08
378.98	29.08
379.108	8.08
379.237	5.08
379.366	18.08
379.495	21.08
379.624	25.08
379.753	11.08
379.882	7.08
380.011	10.08
380.14	-7.92
380.268	21.08
380.397	0.08
380.526	26.08
380.655	26.08
380.784	5.08
380.913	12.08
381.041	14.08
381.17	1.08
381.299	-0.92
381.428	35.08
381.557	36.08
381.685	6.08
381.814	16.08
381.943	21.08
382.072	6.08
382.2	-13.92
382.329	16.08
382.458	29.08
382.587	33.08
382.715	28.08
382.844	22.08
382.973	13.08
383.102	26.08
383.23	17.08
383.359	12.08
383.488	34.08
383.616	21.08
383.745	7.08
383.874	19.08
384.003	16.08
384.131	-1.92
384.26	19.08
384.389	40.08
384.517	20.08
384.646	13.08
384.774	13.08
384.903	40.08
385.032	48.08
385.16	21.08
385.289	11.08
385.418	30.08
385.546	14.08
385.675	16.08
385.803	22.08
385.932	25.08
386.06	2.08
386.189	17.08
386.318	9.08
386.446	7.08
386.575	14.08
386.703	23.08
386.832	35.08
386.96	-0.92
387.089	21.08
387.217	25.08
387.346	9.08
387.474	22.08
387.603	39.08
387.731	33.08
387.86	22.08
387.988	48.08
388.117	34.08
388.245	39.08
388.374	4.08
388.502	20.08
388.631	26.08
388.759	37.08
388.888	15.08
389.016	18.08
389.144	16.08
389.273	31.08
389.401	10.08
389.53	9.08
389.658	31.08
389.786	25.08
389.915	28.08
390.043	22.08
390.172	40.08
390.3	39.08
390.428	35.08
390.557	13.08
390.685	43.08
390.813	50.08
390.942	38.08
391.07	11.08
391.198	24.08
391.327	10.08
391.455	0.08
391.583	35.08
391.712	31.08
391.84	28.08
391.968	14.08
392.096	9.08
392.225	4.08
392.353	43.08
392.481	22.08
392.609	55.08
392.738	43.08
392.866	34.08
392.994	15.08
393.122	21.08
393.251	28.08
393.379	15.08
393.507	10.08
393.635	24.08
393.764	18.08
393.892	36.08
394.02	40.08
394.148	21.08
394.276	46.08
394.404	48.08
394.533	38.08
394.661	25.08
394.789	40.08
394.917	30.08
395.045	20.08
395.173	-0.92
395.302	23.08
395.43	32.08
395.558	35.08
395.686	17.08
395.814	49.08
395.942	32.08
396.07	50.08
396.198	20.08
396.326	32.08
396.454	48.08
396.582	53.08
396.711	42.08
396.839	34.08
396.967	31.08
397.095	-1.92
397.223	30.08
397.351	46.08
397.479	43.08
397.607	37.08
397.735	42.08
397.863	56.08
397.991	44.08
398.119	17.08
398.247	73.08
398.375	45.08
398.503	51.08
398.631	60.08
398.759	52.08
398.887	35.08
399.015	33.08
399.143	43.08
399.271	64.08
399.399	67.08
399.526	86.08
399.654	82.08
399.782	50.08
399.91	109.08
400.038	91.08
400.166	94.08
400.294	93.08
400.422	78.08
400.55	96.08
400.678	100.08
400.805	119.08
400.933	123.08
401.061	110.08
401.189	128.08
401.317	123.08
401.445	114.08
401.573	76.08
401.7	49.08
401.828	45.08
401.956	41.08
402.084	55.08
402.212	37.08
402.34	33.08
402.467	39.08
402.595	48.08
402.723	37.08
402.851	63.08
402.978	67.08
403.106	70.08
403.234	78.08
403.362	122.08
403.489	127.08
403.617	158.08
403.745	184.08
403.873	265.08
404	554.08
404.128	1460.08
404.256	3994.08
404.384	5138.08
404.511	5578.08
404.639	7350.08
404.767	11625.08
404.894	14765.08
405.022	5007.08
405.15	1354.08
405.277	451.08
405.405	237.08
405.533	127.08
405.66	104.08
405.788	70.08
405.916	72.08
406.043	53.08
406.171	59.08
406.299	60.08
406.426	73.08
406.554	56.08
406.681	62.08
406.809	60.08
406.937	63.08
407.064	73.08
407.192	138.08
407.319	304.08
407.447	554.08
407.574	547.08
407.702	643.08
407.83	863.08
407.957	1610.08
408.085	950.08
408.212	279.08
408.34	122.08
408.467	70.08
408.595	40.08
408.722	50.08
408.85	39.08
408.977	33.08
409.105	28.08
409.232	34.08
409.36	23.08
409.487	26.08
409.615	24.08
409.742	14.08
409.87	30.08
409.997	47.08
410.125	60.08
410.252	41.08
410.379	25.08
410.507	45.08
410.634	30.08
410.762	45.08
410.889	43.08
411.017	21.08
411.144	57.08
411.271	46.08
411.399	22.08
411.526	30.08
411.653	43.08
411.781	50.08
411.908	34.08
412.036	23.08
412.163	35.08
412.29	21.08
412.418	26.08
412.545	34.08
412.672	28.08
412.8	40.08
412.927	40.08
413.054	44.08
413.182	34.08
413.309	34.08
413.436	32.08
413.564	20.08
413.691	28.08
413.818	47.08
413.945	24.08
414.073	28.08
414.2	38.08
414.327	27.08
414.454	45.08
414.582	40.08
414.709	24.08
414.836	29.08
414.963	31.08
415.091	24.08
415.218	32.08
415.345	22.08
415.472	13.08
415.6	25.08
415.727	31.08
415.854	38.08
415.981	26.08
416.108	19.08
416.236	23.08
416.363	20.08
416.49	24.08
416.617	39.08
416.744	40.08
416.871	44.08
416.998	14.08
417.126	30.08
417.253	18.08
417.38	37.08
417.507	37.08
417.634	32.08
417.761	31.08
417.888	44.08
418.015	23.08
418.143	41.08
418.27	41.08
418.397	38.08
418.524	32.08
418.651	38.08
418.778	39.08
418.905	67.08
419.032	41.08
419.159	12.08
419.286	63.08
419.413	52.08
419.54	44.08
419.667	25.08
419.794	28.08
419.921	36.08
420.048	38.08
420.175	43.08
420.302	45.08
420.429	48.08
420.556	55.08
420.683	33.08
420.81	43.08
420.937	53.08
421.064	63.08
421.191	65.08
421.318	82.08
421.445	85.08
421.572	62.08
421.699	50.08
421.826	44.08
421.953	34.08
422.08	36.08
422.207	14.08
422.334	6.08
422.461	20.08
422.588	8.08
422.714	18.08
422.841	36.08
422.968	38.08
423.095	18.08
423.222	8.08
423.349	28.08
423.476	18.08
423.603	30.08
423.729	4.08
423.856	24.08
423.983	28.08
424.11	8.08
424.237	33.08
424.364	24.08
424.491	22.08
424.617	-5.92
424.744	5.08
424.871	28.08
424.998	5.08
425.125	10.08
425.251	26.08
425.378	10.08
425.505	-2.92
425.632	15.08
425.758	16.08
425.885	23.08
426.012	35.08
426.139	46.08
426.266	45.08
426.392	22.08
426.519	31.08
426.646	27.08
426.772	34.08
426.899	37.08
427.026	37.08
427.153	42.08
427.279	19.08
427.406	11.08
427.533	9.08
427.659	16.08
427.786	23.08
427.913	38.08
428.039	25.08
428.166	28.08
428.293	28.08
428.419	37.08
428.546	15.08
428.673	16.08
428.799	24.08
428.926	25.08
429.053	51.08
429.179	29.08
429.306	45.08
429.433	35.08
429.559	28.08
429.686	8.08
429.812	23.08
429.939	26.08
430.066	13.08
430.192	18.08
430.319	25.08
430.445	18.08
430.572	6.08
430.699	12.08
430.825	0.08
430.952	20.08
431.078	41.08
431.205	35.08
431.331	17.08
431.458	28.08
431.584	39.08
431.711	16.08
431.837	41.08
431.964	30.08
432.09	27.08
432.217	7.08
432.343	27.08
432.47	44.08
432.596	23.08
432.723	31.08
432.849	17.08
432.976	20.08
433.102	42.08
433.229	26.08
433.355	79.08
433.482	84.08
433.608	98.08
433.735	113.08
433.861	122.08
433.987	176.08
434.114	191.08
434.24	166.08
434.367	205.08
434.493	207.08
434.62	291.08
434.746	380.08
434.872	640.08
434.999	825.08
435.125	1753.08
435.252	5553.08
435.378	13525.08
435.504	15247.08
435.631	15470.08
435.757	15683.08
435.883	15683.08
436.01	15683.08
436.136	15683.08
436.262	15683.08
436.389	3558.08
436.515	2730.08
436.641	916.08
436.768	664.08
436.894	402.08
437.02	386.08
437.147	302.08
437.273	307.08
437.399	204.08
437.526	246.08
437.652	156.08
437.778	211.08
437.904	158.08
438.031	161.08
438.157	133.08
438.283	172.08
438.409	119.08
438.536	129.08
438.662	146.08
438.788	127.08
438.914	116.08
439.041	114.08
439.167	124.08
439.293	104.08
439.419	95.08
439.546	118.08
439.672	77.08
439.798	90.08
439.924	88.08
440.05	102.08
440.177	82.08
440.303	88.08
440.429	78.08
440.555	67.08
440.681	71.08
440.807	78.08
440.934	51.08
441.06	61.08
441.186	50.08
441.312	52.08
441.438	61.08
441.564	65.08
441.69	59.08
441.816	45.08
441.943	48.08
442.069	53.08
442.195	48.08
442.321	50.08
442.447	30.08
442.573	42.08
442.699	33.08
442.825	42.08
442.951	78.08
443.077	66.08
443.203	68.08
443.33	44.08
443.456	29.08
443.582	36.08
443.708	32.08
443.834	61.08
443.96	51.08
444.086	46.08
444.212	61.08
444.338	57.08
444.464	40.08
444.59	61.08
444.716	47.08
444.842	58.08
444.968	24.08
445.094	32.08
445.22	25.08
445.346	27.08
445.472	36.08
445.598	41.08
445.724	37.08
445.85	44.08
445.976	27.08
446.102	36.08
446.228	44.08
446.354	48.08
446.48	37.08
446.605	32.08
446.731	42.08
446.857	33.08
446.983	26.08
447.109	19.08
447.235	32.08
447.361	30.08
447.487	40.08
447.613	41.08
447.739	29.08
447.865	11.08
447.99	14.08
448.116	31.08
448.242	13.08
448.368	34.08
448.494	50.08
448.62	25.08
448.746	18.08
448.872	34.08
448.997	14.08
449.123	16.08
449.249	32.08
449.375	31.08
449.501	-3.92
449.627	12.08
449.752	41.08
449.878	11.08
450.004	34.08
450.13	47.08
450.256	14.08
450.381	20.08
450.507	30.08
450.633	22.08
450.759	47.08
450.884	30.08
451.01	44.08
451.136	18.08
451.262	37.08
451.388	36.08
451.513	23.08
451.639	39.08
451.765	17.08
451.89	28.08
452.016	21.08
452.142	25.08
452.268	13.08
452.393	25.08
452.519	22.08
452.645	29.08
452.771	20.08
452.896	6.08
453.022	10.08
453.148	26.08
453.273	29.08
453.399	16.08
453.525	9.08
453.65	34.08
453.776	57.08
453.902	43.08
454.027	45.08
454.153	32.08
454.279	47.08
454.404	34.08
454.53	50.08
454.656	54.08
454.781	17.08
454.907	26.08
455.032	26.08
455.158	28.08
455.284	46.08
455.409	32.08
455.535	31.08
455.66	29.08
455.786	27.08
455.912	16.08
456.037	5.08
456.163	25.08
456.288	42.08
456.414	13.08
456.539	-0.92
456.665	27.08
456.791	31.08
456.916	25.08
457.042	45.08
457.167	5.08
457.293	29.08
457.418	26.08
457.544	17.08
457.669	13.08
457.795	3.08
457.92	13.08
458.046	31.08
458.171	28.08
458.297	21.08
458.422	16.08
458.548	8.08
458.673	25.08
458.799	23.08
458.924	9.08
459.05	16.08
459.175	0.08
459.301	17.08
459.426	47.08
459.552	34.08
459.677	20.08
459.803	34.08
459.928	8.08
460.053	30.08
460.179	33.08
460.304	62.08
460.43	21.08
460.555	22.08
460.681	26.08
460.806	28.08
460.931	34.08
461.057	25.08
461.182	31.08
461.308	26.08
461.433	24.08
461.558	29.08
461.684	26.08
461.809	25.08
461.934	14.08
462.06	26.08
462.185	7.08
462.311	21.08
462.436	27.08
462.561	14.08
462.687	24.08
462.812	22.08
462.937	17.08
463.063	14.08
463.188	26.08
463.313	31.08
463.439	30.08
463.564	34.08
463.689	29.08
463.814	16.08
463.94	21.08
464.065	28.08
464.19	40.08
464.316	6.08
464.441	16.08
464.566	31.08
464.692	39.08
464.817	28.08
464.942	25.08
465.067	16.08
465.193	-2.92
465.318	-2.92
465.443	24.08
465.568	6.08
465.694	13.08
465.819	37.08
465.944	19.08
466.069	33.08
466.194	45.08
466.32	40.08
466.445	30.08
466.57	24.08
466.695	50.08
466.82	48.08
466.946	37.08
467.071	26.08
467.196	24.08
467.321	34.08
467.446	31.08
467.572	33.08
467.697	26.08
467.822	40.08
467.947	46.08
468.072	19.08
468.197	34.08
468.323	24.08
468.448	37.08
468.573	20.08
468.698	25.08
468.823	26.08
468.948	42.08
469.073	42.08
469.198	45.08
469.324	66.08
469.449	43.08
469.574	32.08
469.699	44.08
469.824	47.08
469.949	34.08
470.074	24.08
470.199	68.08
470.324	41.08
470.449	54.08
470.574	23.08
470.7	33.08
470.825	43.08
470.95	50.08
471.075	28.08
471.2	40.08
471.325	49.08
471.45	39.08
471.575	32.08
471.7	37.08
471.825	30.08
471.95	38.08
472.075	18.08
472.2	40.08
472.325	25.08
472.45	24.08
472.575	36.08
472.7	26.08
472.825	60.08
472.95	40.08
473.075	20.08
473.2	22.08
473.325	43.08
473.45	41.08
473.575	29.08
473.7	31.08
473.825	29.08
473.95	42.08
474.075	30.08
474.2	14.08
474.325	22.08
474.45	37.08
474.574	15.08
474.699	43.08
474.824	31.08
474.949	2.08
475.074	2.08
475.199	42.08
475.324	18.08
475.449	16.08
475.574	25.08
475.699	28.08
475.824	18.08
475.949	26.08
476.073	17.08
476.198	20.08
476.323	12.08
476.448	25.08
476.573	11.08
476.698	27.08
476.823	31.08
476.947	21.08
477.072	22.08
477.197	25.08
477.322	14.08
477.447	16.08
477.572	32.08
477.697	26.08
477.821	13.08
477.946	14.08
478.071	41.08
478.196	41.08
478.321	28.08
478.445	18.08
478.57	0.08
478.695	18.08
478.82	36.08
478.945	25.08
479.069	13.08
479.194	6.08
479.319	21.08
479.444	24.08
479.569	11.08
479.693	19.08
479.818	2.08
479.943	25.08
480.068	20.08
480.192	30.08
480.317	16.08
480.442	20.08
480.567	9.08
480.691	15.08
480.816	16.08
480.941	15.08
481.066	11.08
481.19	35.08
481.315	17.08
481.44	5.08
481.564	7.08
481.689	9.08
481.814	21.08
481.938	12.08
482.063	10.08
482.188	-10.92
482.313	22.08
482.437	15.08
482.562	16.08
482.687	9.08
482.811	7.08
482.936	4.08
483.061	13.08
483.185	33.08
483.31	22.08
483.435	19.08
483.559	8.08
483.684	33.08
483.808	46.08
483.933	30.08
484.058	32.08
484.182	36.08
484.307	11.08
484.432	32.08
484.556	23.08
484.681	10.08
484.805	29.08
484.93	30.08
485.055	23.08
485.179	43.08
485.304	37.08
485.428	25.08
485.553	21.08
485.678	21.08
485.802	8.08
485.927	33.08
486.051	24.08
486.176	12.08
486.3	17.08
486.425	16.08
486.549	16.08
486.674	29.08
486.799	10.08
486.923	-4.92
487.048	9.08
487.172	10.08
487.297	2.08
487.421	36.08
487.546	17.08
487.67	13.08
487.795	6.08
487.919	17.08
488.044	19.08
488.168	24.08
488.293	9.08
488.417	10.08
488.542	23.08
488.666	27.08
488.791	46.08
488.915	20.08
489.04	23.08
489.164	28.08
489.289	42.08
489.413	17.08
489.538	41.08
489.662	49.08
489.786	26.08
489.911	28.08
490.035	5.08
490.16	8.08
490.284	14.08
490.409	-11.92
490.533	10.08
490.658	40.08
490.782	5.08
490.906	51.08
491.031	102.08
491.155	151.08
491.28	139.08
491.404	149.08
491.528	250.08
491.653	158.08
491.777	67.08
491.902	22.08
492.026	33.08
492.15	41.08
492.275	51.08
492.399	4.08
492.524	16.08
492.648	46.08
492.772	35.08
492.897	18.08
493.021	0.08
493.145	21.08
493.27	24.08
493.394	2.08
493.518	15.08
493.643	1.08
493.767	30.08
493.891	-4.92
494.016	15.08
494.14	23.08
494.264	40.08
494.389	38.08
494.513	24.08
494.637	20.08
494.762	32.08
494.886	37.08
495.01	10.08
495.134	9.08
495.259	38.08
495.383	9.08
495.507	9.08
495.632	11.08
495.756	52.08
495.88	36.08
496.004	24.08
496.129	8.08
496.253	16.08
496.377	10.08
496.501	35.08
496.626	26.08
496.75	29.08
496.874	12.08
496.998	-3.92
497.123	38.08
497.247	12.08
497.371	-1.92
497.495	8.08
497.62	22.08
497.744	18.08
497.868	25.08
497.992	26.08
498.116	-11.92
498.241	21.08
498.365	14.08
498.489	20.08
498.613	49.08
498.737	26.08
498.862	18.08
498.986	6.08
499.11	9.08
499.234	16.08
499.358	12.08
499.482	9.08
499.607	16.08
499.731	27.08
499.855	46.08
499.979	30.08
500.103	34.08
500.227	24.08
500.351	26.08
500.476	15.08
500.6	17.08
500.724	30.08
500.848	6.08
500.972	32.08
501.096	38.08
501.22	34.08
501.344	12.08
501.469	20.08
501.593	19.08
501.717	30.08
501.841	32.08
501.965	17.08
502.089	21.08
502.213	29.08
502.337	15.08
502.461	19.08
502.585	23.08
502.709	20.08
502.834	8.08
502.958	20.08
503.082	27.08
503.206	31.08
503.33	32.08
503.454	31.08
503.578	23.08
503.702	30.08
503.826	28.08
503.95	27.08
504.074	10.08
504.198	16.08
504.322	-4.92
504.446	8.08
504.57	26.08
504.694	35.08
504.818	17.08
504.942	26.08
505.066	20.08
505.19	18.08
505.314	33.08
505.438	28.08
505.562	20.08
505.686	32.08
505.81	21.08
505.934	16.08
506.058	12.08
506.182	28.08
506.306	1.08
506.43	17.08
506.554	5.08
506.678	25.08
506.802	27.08
506.926	34.08
507.05	41.08
507.174	49.08
507.298	22.08
507.422	18.08
507.546	3.08
507.67	31.08
507.794	13.08
507.918	30.08
508.042	25.08
508.165	24.08
508.289	10.08
508.413	25.08
508.537	16.08
508.661	36.08
508.785	41.08
508.909	23.08
509.033	19.08
509.157	29.08
509.281	28.08
509.405	50.08
509.528	51.08
509.652	52.08
509.776	21.08
509.9	44.08
510.024	34.08
510.148	40.08
510.272	42.08
510.396	43.08
510.519	36.08
510.643	39.08
510.767	26.08
510.891	38.08
511.015	46.08
511.139	48.08
511.263	50.08
511.386	26.08
511.51	41.08
511.634	26.08
511.758	40.08
511.882	54.08
512.006	38.08
512.129	50.08
512.253	79.08
512.377	66.08
512.501	84.08
512.625	80.08
512.748	79.08
512.872	56.08
512.996	46.08
513.12	65.08
513.244	40.08
513.367	67.08
513.491	77.08
513.615	68.08
513.739	75.08
513.862	77.08
513.986	81.08
514.11	104.08
514.234	86.08
514.358	112.08
514.481	109.08
514.605	99.08
514.729	109.08
514.853	113.08
514.976	94.08
515.1	104.08
515.224	95.08
515.348	86.08
515.471	93.08
515.595	118.08
515.719	136.08
515.842	217.08
515.966	268.08
516.09	303.08
516.214	320.08
516.337	333.08
516.461	220.08
516.585	65.08
516.708	46.08
516.832	25.08
516.956	23.08
517.08	-4.92
517.203	7.08
517.327	14.08
517.451	37.08
517.574	41.08
517.698	13.08
517.822	26.08
517.945	32.08
518.069	25.08
518.193	33.08
518.316	23.08
518.44	32.08
518.564	12.08
518.687	28.08
518.811	18.08
518.935	33.08
519.058	8.08
519.182	25.08
519.306	30.08
519.429	21.08
519.553	48.08
519.676	19.08
519.8	24.08
519.924	18.08
520.047	21.08
520.171	16.08
520.294	3.08
520.418	14.08
520.542	18.08
520.665	41.08
520.789	21.08
520.913	6.08
521.036	-2.92
521.16	5.08
521.283	21.08
521.407	27.08
521.53	15.08
521.654	6.08
521.778	30.08
521.901	12.08
522.025	20.08
522.148	0.08
522.272	26.08
522.395	20.08
522.519	35.08
522.643	18.08
522.766	20.08
522.89	14.08
523.013	15.08
523.137	-6.92
523.26	6.08
523.384	28.08
523.507	14.08
523.631	6.08
523.754	8.08
523.878	7.08
524.002	32.08
524.125	9.08
524.249	-0.92
524.372	22.08
524.496	17.08
524.619	15.08
524.743	16.08
524.866	8.08
524.99	15.08
525.113	1.08
525.237	27.08
525.36	25.08
525.484	21.08
525.607	8.08
525.731	9.08
525.854	24.08
525.978	32.08
526.101	-0.92
526.224	7.08
526.348	12.08
526.471	25.08
526.595	35.08
526.718	0.08
526.842	-6.92
526.965	31.08
527.089	14.08
527.212	22.08
527.336	20.08
527.459	8.08
527.582	5.08
527.706	14.08
527.829	21.08
527.953	26.08
528.076	1.08
528.2	20.08
528.323	36.08
528.446	56.08
528.57	19.08
528.693	31.08
528.817	14.08
528.94	8.08
529.064	31.08
529.187	15.08
529.31	30.08
529.434	10.08
529.557	18.08
529.68	17.08
529.804	21.08
529.927	4.08
530.051	4.08
530.174	14.08
530.297	-3.92
530.421	28.08
530.544	29.08
530.668	21.08
530.791	7.08
530.914	31.08
531.038	40.08
531.161	14.08
531.284	13.08
531.408	17.08
531.531	13.08
531.654	8.08
531.778	14.08
531.901	-5.92
532.024	18.08
532.148	20.08
532.271	17.08
532.394	9.08
532.518	24.08
532.641	34.08
532.764	26.08
532.888	9.08
533.011	11.08
533.134	18.08
533.258	17.08
533.381	11.08
533.504	16.08
533.628	9.08
533.751	24.08
533.874	10.08
533.997	21.08
534.121	10.08
534.244	18.08
534.367	1.08
534.491	16.08
534.614	13.08
534.737	32.08
534.86	29.08
534.984	21.08
535.107	5.08
535.23	7.08
535.354	-6.92
535.477	24.08
535.6	16.08
535.723	15.08
535.847	23.08
535.97	16.08
536.093	11.08
536.216	25.08
536.34	4.08
536.463	7.08
536.586	29.08
536.709	11.08
536.833	25.08
536.956	5.08
537.079	-0.92
537.202	21.08
537.325	15.08
537.449	9.08
537.572	26.08
537.695	16.08
537.818	23.08
537.941	10.08
538.065	7.08
538.188	6.08
538.311	31.08
538.434	27.08
538.558	27.08
538.681	33.08
538.804	21.08
538.927	25.08
539.05	12.08
539.173	28.08
539.297	9.08
539.42	18.08
539.543	30.08
539.666	22.08
539.789	24.08
539.913	19.08
540.036	27.08
540.159	27.08
540.282	21.08
540.405	15.08
540.528	32.08
540.651	30.08
540.775	16.08
540.898	33.08
541.021	27.08
541.144	37.08
541.267	33.08
541.39	21.08
541.513	46.08
541.637	25.08
541.76	26.08
541.883	40.08
542.006	45.08
542.129	42.08
542.252	36.08
542.375	39.08
542.498	37.08
542.622	32.08
542.745	50.08
542.868	44.08
542.991	51.08
543.114	62.08
543.237	57.08
543.36	51.08
543.483	47.08
543.606	71.08
543.73	97.08
543.853	62.08
543.976	95.08
544.099	130.08
544.222	124.08
544.345	153.08
544.468	175.08
544.591	225.08
544.714	288.08
544.837	375.08
544.96	436.08
545.083	640.08
545.206	1097.08
545.329	2475.08
545.453	11171.08
545.576	15283.08
545.699	15683.08
545.822	15683.08
545.945	15683.08
546.068	15683.08
546.191	15683.08
546.314	15683.08
546.437	15683.08
546.56	15683.08
546.683	15683.08
546.806	15683.08
546.929	15683.08
547.052	15683.08
547.175	15683.08
547.298	15683.08
547.421	15683.08
547.544	15683.08
547.667	3975.08
547.79	4578.08
547.913	1396.08
548.036	985.08
548.159	662.08
548.282	642.08
548.405	505.08
548.528	503.08
548.651	406.08
548.774	434.08
548.897	336.08
549.02	363.08
549.143	325.08
549.266	327.08
549.389	282.08
549.512	258.08
549.635	262.08
549.758	238.08
549.881	204.08
550.004	213.08
550.127	206.08
550.25	201.08
550.373	168.08
550.496	190.08
550.619	163.08
550.742	148.08
550.865	143.08
550.988	169.08
551.111	155.08
551.234	137.08
551.356	113.08
551.479	111.08
551.602	132.08
551.725	134.08
551.848	149.08
551.971	141.08
552.094	106.08
552.217	106.08
552.34	113.08
552.463	121.08
552.586	102.08
552.709	100.08
552.832	106.08
552.955	109.08
553.077	109.08
553.2	100.08
553.323	93.08
553.446	82.08
553.569	82.08
553.692	95.08
553.815	87.08
553.938	103.08
554.061	120.08
554.184	89.08
554.306	89.08
554.429	99.08
554.552	91.08
554.675	66.08
554.798	70.08
554.921	64.08
555.044	62.08
555.167	82.08
555.29	69.08
555.412	68.08
555.535	80.08
555.658	56.08
555.781	80.08
555.904	73.08
556.027	62.08
556.15	74.08
556.272	62.08
556.395	73.08
556.518	74.08
556.641	58.08
556.764	79.08
556.887	73.08
557.01	55.08
557.132	54.08
557.255	60.08
557.378	73.08
557.501	64.08
557.624	74.08
557.747	71.08
557.869	84.08
557.992	88.08
558.115	101.08
558.238	71.08
558.361	100.08
558.483	91.08
558.606	69.08
558.729	43.08
558.852	70.08
558.975	60.08
559.098	66.08
559.22	56.08
559.343	49.08
559.466	62.08
559.589	41.08
559.712	48.08
559.834	54.08
559.957	55.08
560.08	51.08
560.203	57.08
560.325	72.08
560.448	61.08
560.571	63.08
560.694	50.08
560.817	61.08
560.939	42.08
561.062	62.08
561.185	40.08
561.308	53.08
561.43	53.08
561.553	47.08
561.676	48.08
561.799	72.08
561.921	64.08
562.044	63.08
562.167	54.08
562.29	87.08
562.413	70.08
562.535	48.08
562.658	54.08
562.781	53.08
562.903	81.08
563.026	88.08
563.149	131.08
563.272	115.08
563.394	114.08
563.517	120.08
563.64	80.08
563.763	43.08
563.885	46.08
564.008	72.08
564.131	71.08
564.254	33.08
564.376	35.08
564.499	9.08
564.622	43.08
564.744	49.08
564.867	42.08
564.99	29.08
565.113	44.08
565.235	34.08
565.358	33.08
565.481	26.08
565.603	30.08
565.726	26.08
565.849	61.08
565.971	54.08
566.094	28.08
566.217	34.08
566.34	32.08
566.462	35.08
566.585	40.08
566.708	44.08
566.83	33.08
566.953	49.08
567.076	43.08
567.198	35.08
567.321	27.08
567.444	34.08
567.566	19.08
567.689	17.08
567.812	40.08
567.934	46.08
568.057	34.08
568.18	25.08
568.302	17.08
568.425	24.08
568.548	28.08
568.67	23.08
568.793	38.08
568.916	32.08
569.038	31.08
569.161	30.08
569.283	41.08
569.406	28.08
569.529	28.08
569.651	20.08
569.774	38.08
569.897	37.08
570.019	29.08
570.142	51.08
570.265	27.08
570.387	29.08
570.51	48.08
570.632	42.08
570.755	43.08
570.878	38.08
571	37.08
571.123	26.08
571.246	26.08
571.368	24.08
571.491	30.08
571.613	4.08
571.736	16.08
571.859	9.08
571.981	21.08
572.104	12.08
572.226	24.08
572.349	18.08
572.472	37.08
572.594	21.08
572.717	33.08
572.839	44.08
572.962	39.08
573.085	48.08
573.207	33.08
573.33	42.08
573.452	44.08
573.575	47.08
573.697	34.08
573.82	31.08
573.943	15.08
574.065	40.08
574.188	31.08
574.31	48.08
574.433	19.08
574.555	26.08
574.678	38.08
574.801	31.08
574.923	26.08
575.046	40.08
575.168	42.08
575.291	41.08
575.413	42.08
575.536	35.08
575.659	46.08
575.781	47.08
575.904	64.08
576.026	77.08
576.149	80.08
576.271	128.08
576.394	200.08
576.516	561.08
576.639	3729.08
576.761	10422.08
576.884	8945.08
577.007	8900.08
577.129	8187.08
577.252	3806.08
577.374	1358.08
577.497	534.08
577.619	295.08
577.742	188.08
577.864	163.08
577.987	132.08
578.109	128.08
578.232	128.08
578.354	167.08
578.477	199.08
578.599	404.08
578.722	2010.08
578.844	9232.08
578.967	10022.08
579.089	8922.08
579.212	9287.08
579.334	5362.08
579.457	1958.08
579.579	737.08
579.702	329.08
579.824	206.08
579.947	127.08
580.069	124.08
580.192	88.08
580.314	96.08
580.437	84.08
580.559	82.08
580.682	54.08
580.804	53.08
580.927	66.08
581.049	62.08
581.172	61.08
581.294	48.08
581.417	55.08
581.539	50.08
581.662	62.08
581.784	46.08
581.907	46.08
582.029	49.08
582.152	43.08
582.274	62.08
582.396	40.08
582.519	34.08
582.641	20.08
582.764	39.08
582.886	47.08
583.009	38.08
583.131	31.08
583.254	43.08
583.376	40.08
583.499	40.08
583.621	48.08
583.743	54.08
583.866	31.08
583.988	17.08
584.111	26.08
584.233	46.08
584.356	46.08
584.478	44.08
584.601	17.08
584.723	34.08
584.845	43.08
584.968	16.08
585.09	16.08
585.213	33.08
585.335	31.08
585.458	36.08
585.58	13.08
585.702	28.08
585.825	40.08
585.947	29.08
586.07	15.08
586.192	11.08
586.315	37.08
586.437	18.08
586.559	18.08
586.682	7.08
586.804	40.08
586.927	22.08
587.049	24.08
587.171	28.08
587.294	42.08
587.416	39.08
587.539	38.08
587.661	14.08
587.783	43.08
587.906	26.08
588.028	34.08
588.151	36.08
588.273	35.08
588.395	33.08
588.518	17.08
588.64	20.08
588.763	36.08
588.885	28.08
589.007	51.08
589.13	17.08
589.252	16.08
589.375	47.08
589.497	45.08
589.619	44.08
589.742	36.08
589.864	45.08
589.986	29.08
590.109	20.08
590.231	18.08
590.354	41.08
590.476	18.08
590.598	22.08
590.721	15.08
590.843	33.08
590.965	37.08
591.088	33.08
591.21	14.08
591.332	30.08
591.455	10.08
591.577	13.08
591.7	21.08
591.822	35.08
591.944	26.08
592.067	24.08
592.189	21.08
592.311	33.08
592.434	24.08
592.556	29.08
592.678	28.08
592.801	18.08
592.923	26.08
593.045	25.08
593.168	29.08
593.29	34.08
593.412	32.08
593.535	29.08
593.657	16.08
593.779	21.08
593.902	19.08
594.024	28.08
594.146	21.08
594.269	35.08
594.391	14.08
594.513	3.08
594.636	4.08
594.758	13.08
594.88	29.08
595.003	24.08
595.125	27.08
595.247	22.08
595.37	33.08
595.492	22.08
595.614	44.08
595.737	24.08
595.859	27.08
595.981	28.08
596.104	34.08
596.226	36.08
596.348	31.08
596.471	17.08
596.593	30.08
596.715	30.08
596.838	21.08
596.96	13.08
597.082	15.08
597.204	30.08
597.327	46.08
597.449	8.08
597.571	26.08
597.694	30.08
597.816	26.08
597.938	35.08
598.061	34.08
598.183	21.08
598.305	24.08
598.427	24.08
598.55	15.08
598.672	22.08
598.794	17.08
598.917	18.08
599.039	28.08
599.161	30.08
599.283	34.08
599.406	37.08
599.528	21.08
599.65	34.08
599.773	11.08
599.895	54.08
600.017	37.08
600.139	32.08
600.262	10.08
600.384	22.08
600.506	30.08
600.628	42.08
600.751	36.08
600.873	0.08
600.995	15.08
601.118	33.08
601.24	36.08
601.362	35.08
601.484	44.08
601.607	28.08
601.729	13.08
601.851	8.08
601.973	16.08
602.096	30.08
602.218	30.08
602.34	24.08
602.462	31.08
602.585	25.08
602.707	15.08
602.829	35.08
602.951	28.08
603.074	5.08
603.196	29.08
603.318	13.08
603.44	25.08
603.563	23.08
603.685	18.08
603.807	32.08
603.929	33.08
604.052	26.08
604.174	52.08
604.296	28.08
604.418	21.08
604.541	50.08
604.663	36.08
604.785	24.08
604.907	5.08
605.03	8.08
605.152	55.08
605.274	26.08
605.396	16.08
605.519	2.08
605.641	32.08
605.763	16.08
605.885	16.08
606.008	19.08
606.13	20.08
606.252	24.08
606.374	7.08
606.496	24.08
606.619	20.08
606.741	16.08
606.863	21.08
606.985	40.08
607.108	33.08
607.23	19.08
607.352	14.08
607.474	14.08
607.596	13.08
607.719	8.08
607.841	15.08
607.963	28.08
608.085	14.08
608.207	33.08
608.33	8.08
608.452	21.08
608.574	9.08
608.696	22.08
608.819	21.08
608.941	14.08
609.063	25.08
609.185	14.08
609.307	39.08
609.43	32.08
609.552	26.08
609.674	10.08
609.796	33.08
609.918	37.08
610.041	42.08
610.163	24.08
610.285	27.08
610.407	38.08
610.529	10.08
610.652	33.08
610.774	38.08
610.896	25.08
611.018	20.08
611.14	20.08
611.263	9.08
611.385	21.08
611.507	32.08
611.629	23.08
611.751	36.08
611.873	56.08
611.996	39.08
612.118	34.08
612.24	17.08
612.362	32.08
612.484	52.08
612.607	48.08
612.729	50.08
612.851	48.08
612.973	30.08
613.095	17.08
613.218	22.08
613.34	52.08
613.462	18.08
613.584	5.08
613.706	21.08
613.828	33.08
613.951	11.08
614.073	18.08
614.195	7.08
614.317	34.08
614.439	36.08
614.561	28.08
614.684	36.08
614.806	24.08
614.928	26.08
615.05	38.08
615.172	38.08
615.294	32.08
615.417	20.08
615.539	22.08
615.661	26.08
615.783	21.08
615.905	16.08
616.027	-0.92
616.15	40.08
616.272	29.08
616.394	6.08
616.516	26.08
616.638	34.08
616.76	25.08
616.883	32.08
617.005	16.08
617.127	13.08
617.249	2.08
617.371	36.08
617.493	16.08
617.615	12.08
617.738	14.08
617.86	19.08
617.982	28.08
618.104	30.08
618.226	-0.92
618.348	9.08
618.471	20.08
618.593	39.08
618.715	20.08
618.837	26.08
618.959	20.08
619.081	23.08
619.203	25.08
619.326	39.08
619.448	39.08
619.57	35.08
619.692	35.08
619.814	34.08
619.936	34.08
620.058	36.08
620.181	34.08
620.303	29.08
620.425	25.08
620.547	11.08
620.669	24.08
620.791	12.08
620.913	14.08
621.036	12.08
621.158	33.08
621.28	32.08
621.402	-2.92
621.524	17.08
621.646	25.08
621.768	21.08
621.891	-3.92
622.013	27.08
622.135	15.08
622.257	-1.92
622.379	20.08
622.501	33.08
622.623	24.08
622.745	23.08
622.868	15.08
622.99	17.08
623.112	11.08
623.234	14.08
623.356	11.08
623.478	20.08
623.6	7.08
623.722	7.08
623.845	25.08
623.967	20.08
624.089	31.08
624.211	-1.92
624.333	10.08
624.455	19.08
624.577	28.08
624.699	26.08
624.822	18.08
624.944	24.08
625.066	11.08
625.188	3.08
625.31	20.08
625.432	31.08
625.554	35.08
625.676	41.08
625.799	22.08
625.921	22.08
626.043	31.08
626.165	22.08
626.287	-2.92
626.409	21.08
626.531	17.08
626.653	32.08
626.775	37.08
626.898	33.08
627.02	41.08
627.142	38.08
627.264	10.08
627.386	25.08
627.508	9.08
627.63	20.08
627.752	29.08
627.874	13.08
627.997	15.08
628.119	32.08
628.241	33.08
628.363	33.08
628.485	19.08
628.607	21.08
628.729	4.08
628.851	9.08
628.973	44.08
629.096	15.08
629.218	12.08
629.34	6.08
629.462	9.08
629.584	2.08
629.706	29.08
629.828	25.08
629.95	33.08
630.072	21.08
630.195	6.08
630.317	8.08
630.439	-7.92
630.561	21.08
630.683	14.08
630.805	18.08
630.927	15.08
631.049	12.08
631.171	4.08
631.293	20.08
631.416	8.08
631.538	15.08
631.66	15.08
631.782	14.08
631.904	18.08
632.026	13.08
632.148	-1.92
632.27	-1.92
632.392	4.08
632.514	14.08
632.637	23.08
632.759	-0.92
632.881	4.08
633.003	-4.92
633.125	-3.92
633.247	8.08
633.369	21.08
633.491	25.08
633.613	13.08
633.735	6.08
633.858	32.08
633.98	17.08
634.102	-6.92
634.224	11.08
634.346	10.08
634.468	25.08
634.59	6.08
634.712	16.08
634.834	26.08
634.956	-1.92
635.078	4.08
635.201	-6.92
635.323	14.08
635.445	1.08
635.567	-5.92
635.689	24.08
635.811	20.08
635.933	8.08
636.055	14.08
636.177	-1.92
636.299	20.08
636.421	14.08
636.544	15.08
636.666	31.08
636.788	24.08
636.91	14.08
637.032	0.08
637.154	14.08
637.276	37.08
637.398	30.08
637.52	7.08
637.642	4.08
637.764	20.08
637.887	21.08
638.009	4.08
638.131	18.08
638.253	8.08
638.375	12.08
638.497	8.08
638.619	5.08
638.741	4.08
638.863	-3.92
638.985	5.08
639.107	15.08
639.23	0.08
639.352	9.08
639.474	5.08
639.596	10.08
639.718	6.08
639.84	3.08
639.962	9.08
640.084	34.08
640.206	29.08
640.328	5.08
640.45	23.08
640.573	4.08
640.695	14.08
640.817	18.08
640.939	22.08
641.061	6.08
641.183	16.08
641.305	11.08
641.427	11.08
641.549	9.08
641.671	18.08
641.793	15.08
641.915	37.08
642.038	6.08
642.16	8.08
642.282	5.08
642.404	19.08
642.526	24.08
642.648	12.08
642.77	11.08
642.892	16.08
643.014	29.08
643.136	30.08
643.258	14.08
643.381	31.08
643.503	38.08
643.625	18.08
643.747	9.08
643.869	25.08
643.991	15.08
644.113	8.08
644.235	21.08
644.357	29.08
644.479	11.08
644.601	8.08
644.723	13.08
644.846	27.08
644.968	16.08
645.09	13.08
645.212	10.08
645.334	17.08
645.456	4.08
645.578	11.08
645.7	7.08
645.822	17.08
645.944	10.08
646.066	13.08
646.188	6.08
646.311	21.08
646.433	26.08
646.555	20.08
646.677	20.08
646.799	18.08
646.921	1.08
647.043	42.08
647.165	6.08
647.287	20.08
647.409	17.08
647.531	22.08
647.654	7.08
647.776	16.08
647.898	7.08
648.02	11.08
648.142	6.08
648.264	6.08
648.386	8.08
648.508	-1.92
648.63	8.08
648.752	13.08
648.874	-7.92
648.997	16.08
649.119	24.08
649.241	0.08
649.363	29.08
649.485	22.08
649.607	4.08
649.729	9.08
649.851	16.08
649.973	16.08
650.095	18.08
650.217	13.08
650.34	-5.92
650.462	16.08
650.584	9.08
650.706	29.08
650.828	23.08
650.95	-3.92
651.072	20.08
651.194	6.08
651.316	8.08
651.438	12.08
651.56	6.08
651.683	6.08
651.805	6.08
651.927	20.08
652.049	-1.92
652.171	17.08
652.293	-1.92
652.415	5.08
652.537	-1.92
652.659	-6.92
652.781	10.08
652.903	26.08
653.026	30.08
653.148	2.08
653.27	15.08
653.392	16.08
653.514	4.08
653.636	10.08
653.758	13.08
653.88	7.08
654.002	2.08
654.124	4.08
654.247	12.08
654.369	12.08
654.491	16.08
654.613	-5.92
654.735	4.08
654.857	22.08
654.979	9.08
655.101	22.08
655.223	33.08
655.345	8.08
655.468	13.08
655.59	16.08
655.712	6.08
655.834	21.08
655.956	11.08
656.078	4.08
656.2	9.08
656.322	20.08
656.444	-15.92
656.566	18.08
656.689	8.08
656.811	8.08
656.933	15.08
657.055	-12.92
657.177	12.08
657.299	1.08
657.421	19.08
657.543	7.08
657.665	10.08
657.787	19.08
657.91	16.08
658.032	9.08
658.154	5.08
658.276	32.08
658.398	-10.92
658.52	8.08
658.642	16.08
658.764	9.08
658.886	-9.92
659.009	13.08
659.131	27.08
659.253	17.08
659.375	12.08
659.497	8.08
659.619	25.08
659.741	5.08
659.863	22.08
659.985	-5.92
660.108	12.08
660.23	-1.92
660.352	-1.92
660.474	18.08
660.596	17.08
660.718	27.08
660.84	11.08
660.962	23.08
661.084	16.08
661.207	-11.92
661.329	4.08
661.451	9.08
661.573	3.08
661.695	39.08
661.817	29.08
661.939	24.08
662.061	29.08
662.184	-7.92
662.306	13.08
662.428	10.08
662.55	17.08
662.672	-11.92
662.794	5.08
662.916	9.08
663.038	0.08
663.161	12.08
663.283	26.08
663.405	20.08
663.527	-9.92
663.649	15.08
663.771	12.08
663.893	18.08
664.015	11.08
664.138	1.08
664.26	21.08
664.382	-11.92
664.504	6.08
664.626	-8.92
664.748	6.08
664.87	14.08
664.992	31.08
665.115	28.08
665.237	21.08
665.359	-6.92
665.481	19.08
665.603	20.08
665.725	-3.92
665.847	-4.92
665.97	0.08
666.092	13.08
666.214	24.08
666.336	5.08
666.458	2.08
666.58	6.08
666.702	8.08
666.825	9.08
666.947	-2.92
667.069	11.08
667.191	12.08
667.313	14.08
667.435	1.08
667.557	-0.92
667.68	7.08
667.802	12.08
667.924	6.08
668.046	17.08
668.168	5.08
668.29	21.08
668.412	4.08
668.535	12.08
668.657	21.08
668.779	7.08
668.901	6.08
669.023	29.08
669.145	5.08
669.267	5.08
669.39	13.08
669.512	5.08
669.634	20.08
669.756	7.08
669.878	10.08
670	11.08
670.123	9.08
670.245	22.08
670.367	17.08
670.489	20.08
670.611	0.08
670.733	-3.92
670.856	-4.92
670.978	11.08
671.1	16.08
671.222	2.08
671.344	-6.92
671.466	1.08
671.589	13.08
671.711	8.08
671.833	4.08
671.955	14.08
672.077	6.08
672.199	16.08
672.322	16.08
672.444	16.08
672.566	8.08
672.688	2.08
672.81	20.08
672.932	5.08
673.055	1.08
673.177	-9.92
673.299	19.08
673.421	-7.92
673.543	4.08
673.665	25.08
673.788	24.08
673.91	0.08
674.032	-1.92
674.154	1.08
674.276	18.08
674.399	3.08
674.521	15.08
674.643	36.08
674.765	11.08
674.887	12.08
675.009	7.08
675.132	18.08
675.254	10.08
675.376	5.08
675.498	6.08
675.62	16.08
675.743	3.08
675.865	28.08
675.987	-1.92
676.109	1.08
676.231	29.08
676.354	45.08
676.476	10.08
676.598	25.08
676.72	10.08
676.842	18.08
676.965	9.08
677.087	20.08
677.209	1.08
677.331	6.08
677.453	19.08
677.576	13.08
677.698	4.08
677.82	9.08
677.942	5.08
678.064	5.08
678.187	20.08
678.309	20.08
678.431	0.08
678.553	20.08
678.675	26.08
678.798	21.08
678.92	15.08
679.042	1.08
679.164	4.08
679.286	17.08
679.409	10.08
679.531	-4.92
679.653	14.08
679.775	8.08
679.898	6.08
680.02	-0.92
680.142	4.08
680.264	26.08
680.386	5.08
680.509	24.08
680.631	21.08
680.753	16.08
680.875	5.08
680.998	26.08
681.12	12.08
681.242	0.08
681.364	-0.92
681.486	26.08
681.609	3.08
681.731	-1.92
681.853	-7.92
681.975	8.08
682.098	9.08
682.22	20.08
682.342	15.08
682.464	22.08
682.587	21.08
682.709	10.08
682.831	-15.92
682.953	-1.92
683.076	-1.92
683.198	15.08
683.32	11.08
683.442	7.08
683.565	17.08
683.687	7.08
683.809	4.08
683.931	2.08
684.054	7.08
684.176	7.08
684.298	9.08
684.42	-2.92
684.543	17.08
684.665	2.08
684.787	-0.92
684.909	17.08
685.032	13.08
685.154	-6.92
685.276	17.08
685.398	19.08
685.521	16.08
685.643	16.08
685.765	10.08
685.887	10.08
686.01	12.08
686.132	-7.92
686.254	19.08
686.377	24.08
686.499	14.08
686.621	22.08
686.743	24.08
686.866	23.08
686.988	46.08
687.11	17.08
687.232	2.08
687.355	-11.92
687.477	4.08
687.599	19.08
687.722	18.08
687.844	13.08
687.966	2.08
688.088	12.08
688.211	25.08
688.333	15.08
688.455	5.08
688.578	17.08
688.7	26.08
688.822	18.08
688.944	-0.92
689.067	27.08
689.189	0.08
689.311	1.08
689.434	5.08
689.556	4.08
689.678	14.08
689.801	-2.92
689.923	1.08
690.045	28.08
690.167	33.08
690.29	21.08
690.412	17.08
690.534	16.08
690.657	21.08
690.779	9.08
690.901	24.08
691.024	13.08
691.146	12.08
691.268	0.08
691.391	30.08
691.513	15.08
691.635	26.08
691.758	18.08
691.88	31.08
692.002	2.08
692.125	13.08
692.247	9.08
692.369	14.08
692.492	13.08
692.614	15.08
692.736	-2.92
692.859	-0.92
692.981	5.08
693.103	8.08
693.226	13.08
693.348	32.08
693.47	13.08
693.593	39.08
693.715	29.08
693.837	25.08
693.96	6.08
694.082	11.08
694.204	33.08
694.327	12.08
694.449	-5.92
694.571	4.08
694.694	19.08
694.816	18.08
694.938	14.08
695.061	11.08
695.183	13.08
695.305	5.08
695.428	15.08
695.55	-8.92
695.672	16.08
695.795	8.08
695.917	23.08
696.04	4.08
696.162	9.08
696.284	15.08
696.407	7.08
696.529	-1.92
696.651	25.08
696.774	5.08
696.896	33.08
697.019	9.08
697.141	13.08
697.263	21.08
697.386	12.08
697.508	-3.92
697.63	22.08
697.753	18.08
697.875	14.08
697.998	9.08
698.12	6.08
698.242	12.08
698.365	11.08
698.487	15.08
698.61	23.08
698.732	15.08
698.854	20.08
698.977	6.08
699.099	17.08
699.221	-11.92
699.344	0.08
699.466	10.08
699.589	16.08
699.711	-2.92
699.834	3.08
699.956	0.08
700.078	12.08
700.201	0.08
700.323	26.08
700.446	18.08
700.568	7.08
700.69	21.08
700.813	16.08
700.935	15.08
701.058	8.08
701.18	21.08
701.302	9.08
701.425	6.08
701.547	17.08
701.67	8.08
701.792	20.08
701.915	1.08
702.037	11.08
702.159	-2.92
702.282	20.08
702.404	9.08
702.527	10.08
702.649	28.08
702.772	13.08
702.894	1.08
703.017	8.08
703.139	7.08
703.261	21.08
703.384	8.08
703.506	9.08
703.629	1.08
703.751	14.08
703.874	2.08
703.996	-11.92
704.119	-8.92
704.241	12.08
704.364	-18.92
704.486	9.08
704.608	18.08
704.731	6.08
704.853	17.08
704.976	-4.92
705.098	7.08
705.221	14.08
705.343	17.08
705.466	8.08
705.588	8.08
705.711	22.08
705.833	14.08
705.956	18.08
706.078	18.08
706.201	0.08
706.323	8.08
706.446	5.08
