Data from LowRes_mercury_15_20_11_07_2024_HR4C61881__49__15-23-37-171.txt Node

Date: Thu Nov 07 15:23:37 EST 2024
User: crc00042
Spectrometer: HR4C6188
Trigger mode: 4
Integration Time (sec): 1.000000E-1
Scans to average: 1
Electric dark correction enabled: true
Nonlinearity correction enabled: false
Boxcar width: 0
XAxis mode: Wavelengths
Number of Pixels in Spectrum: 3648
>>>>>Begin Spectral Data<<<<<
245.66	-80.08
245.797	-80.08
245.934	-80.08
246.071	-69.08
246.208	-2.08
246.344	5.92
246.481	-9.08
246.618	-0.08
246.755	0.92
246.892	-3.08
247.029	3.92
247.165	-7.08
247.302	-6.08
247.439	2.92
247.576	15.92
247.713	-14.08
247.849	15.92
247.986	-6.08
248.123	0.92
248.26	-9.08
248.396	24.92
248.533	-0.08
248.67	-8.08
248.806	9.92
248.943	-14.08
249.08	-16.08
249.216	13.92
249.353	-10.08
249.49	-8.08
249.626	-6.08
249.763	-5.08
249.9	-1.08
250.036	-0.08
250.173	13.92
250.309	11.92
250.446	0.92
250.582	-7.08
250.719	-7.08
250.856	1.92
250.992	-12.08
251.129	-16.08
251.265	-7.08
251.402	-16.08
251.538	-6.08
251.675	8.92
251.811	15.92
251.948	33.92
252.084	-2.08
252.221	3.92
252.357	-17.08
252.493	6.92
252.63	-6.08
252.766	17.92
252.903	5.92
253.039	7.92
253.175	-10.08
253.312	10.92
253.448	-13.08
253.585	-23.08
253.721	1.92
253.857	-17.08
253.994	-5.08
254.13	1.92
254.266	22.92
254.403	-2.08
254.539	-9.08
254.675	-5.08
254.811	3.92
254.948	-3.08
255.084	-8.08
255.22	-33.08
255.356	0.92
255.493	-8.08
255.629	4.92
255.765	3.92
255.901	23.92
256.037	-12.08
256.174	-11.08
256.31	4.92
256.446	-18.08
256.582	-7.08
256.718	5.92
256.854	5.92
256.991	5.92
257.127	17.92
257.263	-11.08
257.399	2.92
257.535	-2.08
257.671	-0.08
257.807	-1.08
257.943	-9.08
258.079	-10.08
258.215	-5.08
258.351	6.92
258.487	9.92
258.623	12.92
258.759	1.92
258.895	-4.08
259.031	12.92
259.167	-16.08
259.303	-1.08
259.439	-5.08
259.575	5.92
259.711	3.92
259.847	-17.08
259.983	4.92
260.119	-9.08
260.255	5.92
260.391	5.92
260.527	3.92
260.663	7.92
260.799	6.92
260.934	4.92
261.07	-10.08
261.206	-32.08
261.342	-19.08
261.478	-5.08
261.614	-1.08
261.749	-11.08
261.885	4.92
262.021	18.92
262.157	15.92
262.293	-1.08
262.428	4.92
262.564	13.92
262.7	-7.08
262.836	-9.08
262.971	5.92
263.107	9.92
263.243	26.92
263.378	3.92
263.514	-22.08
263.65	3.92
263.785	-7.08
263.921	2.92
264.057	10.92
264.192	-6.08
264.328	8.92
264.464	-5.08
264.599	6.92
264.735	22.92
264.871	-6.08
265.006	-1.08
265.142	4.92
265.277	-0.08
265.413	9.92
265.548	19.92
265.684	13.92
265.819	-8.08
265.955	-20.08
266.091	-11.08
266.226	-17.08
266.362	15.92
266.497	-1.08
266.633	-3.08
266.768	-8.08
266.903	2.92
267.039	-9.08
267.174	25.92
267.31	-19.08
267.445	-11.08
267.581	-0.08
267.716	19.92
267.851	-8.08
267.987	3.92
268.122	14.92
268.258	-0.08
268.393	5.92
268.528	4.92
268.664	-1.08
268.799	-17.08
268.934	12.92
269.07	-0.08
269.205	1.92
269.34	8.92
269.476	-2.08
269.611	-4.08
269.746	4.92
269.881	14.92
270.017	32.92
270.152	2.92
270.287	5.92
270.422	9.92
270.558	-5.08
270.693	6.92
270.828	7.92
270.963	5.92
271.098	-23.08
271.234	-11.08
271.369	14.92
271.504	3.92
271.639	-4.08
271.774	-15.08
271.909	-5.08
272.045	-24.08
272.18	-7.08
272.315	1.92
272.45	-6.08
272.585	-8.08
272.72	-1.08
272.855	-2.08
272.99	5.92
273.125	-21.08
273.26	-33.08
273.395	-8.08
273.53	0.92
273.665	9.92
273.8	8.92
273.935	13.92
274.07	10.92
274.205	-7.08
274.34	-26.08
274.475	-9.08
274.61	21.92
274.745	-15.08
274.88	6.92
275.015	-7.08
275.15	-0.08
275.285	21.92
275.42	-9.08
275.555	17.92
275.69	18.92
275.825	2.92
275.959	31.92
276.094	-9.08
276.229	-22.08
276.364	11.92
276.499	-0.08
276.634	-5.08
276.768	-7.08
276.903	11.92
277.038	7.92
277.173	-4.08
277.308	-20.08
277.442	-9.08
277.577	-3.08
277.712	-1.08
277.847	-6.08
277.981	2.92
278.116	-21.08
278.251	2.92
278.386	7.92
278.52	13.92
278.655	-2.08
278.79	23.92
278.924	-25.08
279.059	3.92
279.194	-26.08
279.328	12.92
279.463	-14.08
279.598	19.92
279.732	10.92
279.867	22.92
280.001	11.92
280.136	-7.08
280.271	-1.08
280.405	3.92
280.54	-4.08
280.674	-7.08
280.809	24.92
280.943	14.92
281.078	-0.08
281.213	17.92
281.347	13.92
281.482	12.92
281.616	8.92
281.751	-0.08
281.885	-10.08
282.02	12.92
282.154	-0.08
282.288	-9.08
282.423	-0.08
282.557	-19.08
282.692	3.92
282.826	0.92
282.961	-7.08
283.095	2.92
283.229	-0.08
283.364	-20.08
283.498	-10.08
283.633	12.92
283.767	18.92
283.901	5.92
284.036	25.92
284.17	1.92
284.304	7.92
284.439	21.92
284.573	-2.08
284.707	20.92
284.842	-7.08
284.976	-19.08
285.11	2.92
285.244	6.92
285.379	42.92
285.513	7.92
285.647	4.92
285.781	6.92
285.916	16.92
286.05	-5.08
286.184	9.92
286.318	2.92
286.453	-12.08
286.587	6.92
286.721	-18.08
286.855	6.92
286.989	26.92
287.123	3.92
287.258	-4.08
287.392	-12.08
287.526	-1.08
287.66	6.92
287.794	-1.08
287.928	-7.08
288.062	9.92
288.196	-4.08
288.33	8.92
288.464	30.92
288.598	18.92
288.733	18.92
288.867	24.92
289.001	6.92
289.135	-0.08
289.269	-0.08
289.403	-6.08
289.537	2.92
289.671	-0.08
289.805	-9.08
289.939	7.92
290.073	5.92
290.207	3.92
290.34	-21.08
290.474	0.92
290.608	-8.08
290.742	-14.08
290.876	-0.08
291.01	0.92
291.144	17.92
291.278	19.92
291.412	2.92
291.546	5.92
291.679	12.92
291.813	-1.08
291.947	-4.08
292.081	-6.08
292.215	13.92
292.349	11.92
292.482	12.92
292.616	3.92
292.75	17.92
292.884	11.92
293.018	-5.08
293.151	-21.08
293.285	-0.08
293.419	-15.08
293.553	-9.08
293.686	-16.08
293.82	10.92
293.954	15.92
294.088	27.92
294.221	9.92
294.355	-13.08
294.489	3.92
294.622	-1.08
294.756	15.92
294.89	8.92
295.023	11.92
295.157	18.92
295.291	20.92
295.424	26.92
295.558	3.92
295.691	-10.08
295.825	3.92
295.959	-1.08
296.092	16.92
296.226	14.92
296.359	-1.08
296.493	14.92
296.627	5.92
296.76	-4.08
296.894	-8.08
297.027	-1.08
297.161	-17.08
297.294	-9.08
297.428	-4.08
297.561	2.92
297.695	-12.08
297.828	15.92
297.962	-4.08
298.095	-8.08
298.229	2.92
298.362	-21.08
298.495	-17.08
298.629	3.92
298.762	6.92
298.896	-9.08
299.029	-18.08
299.162	-17.08
299.296	-13.08
299.429	-2.08
299.563	-8.08
299.696	25.92
299.829	12.92
299.963	22.92
300.096	-3.08
300.229	-6.08
300.363	4.92
300.496	1.92
300.629	-21.08
300.763	-22.08
300.896	-5.08
301.029	9.92
301.162	0.92
301.296	-9.08
301.429	7.92
301.562	-15.08
301.695	12.92
301.829	10.92
301.962	17.92
302.095	5.92
302.228	-3.08
302.362	8.92
302.495	-3.08
302.628	-8.08
302.761	-4.08
302.894	6.92
303.027	21.92
303.161	-13.08
303.294	-13.08
303.427	16.92
303.56	2.92
303.693	11.92
303.826	-1.08
303.959	12.92
304.092	11.92
304.225	7.92
304.359	-22.08
304.492	-0.08
304.625	0.92
304.758	11.92
304.891	-19.08
305.024	0.92
305.157	-24.08
305.29	-17.08
305.423	2.92
305.556	4.92
305.689	18.92
305.822	1.92
305.955	14.92
306.088	-4.08
306.221	-0.08
306.354	-9.08
306.487	-0.08
306.62	-12.08
306.752	-14.08
306.885	5.92
307.018	3.92
307.151	10.92
307.284	12.92
307.417	-16.08
307.55	-3.08
307.683	5.92
307.816	7.92
307.948	9.92
308.081	21.92
308.214	4.92
308.347	21.92
308.48	-12.08
308.613	-21.08
308.745	0.92
308.878	-1.08
309.011	-4.08
309.144	10.92
309.277	2.92
309.409	17.92
309.542	11.92
309.675	7.92
309.808	-2.08
309.94	23.92
310.073	-3.08
310.206	-6.08
310.339	7.92
310.471	-28.08
310.604	-0.08
310.737	9.92
310.869	-8.08
311.002	-5.08
311.135	3.92
311.267	-11.08
311.4	9.92
311.533	2.92
311.665	-8.08
311.798	-9.08
311.93	15.92
312.063	26.92
312.196	43.92
312.328	71.92
312.461	58.92
312.593	30.92
312.726	38.92
312.859	98.92
312.991	161.92
313.124	60.92
313.256	15.92
313.389	11.92
313.521	6.92
313.654	-1.08
313.786	-17.08
313.919	-13.08
314.051	9.92
314.184	2.92
314.316	-11.08
314.449	-4.08
314.581	-10.08
314.714	-6.08
314.846	1.92
314.978	-13.08
315.111	-8.08
315.243	19.92
315.376	17.92
315.508	-1.08
315.641	1.92
315.773	19.92
315.905	8.92
316.038	6.92
316.17	5.92
316.302	-1.08
316.435	-12.08
316.567	12.92
316.699	13.92
316.832	-13.08
316.964	1.92
317.096	-13.08
317.229	-22.08
317.361	-20.08
317.493	-11.08
317.625	-13.08
317.758	3.92
317.89	-1.08
318.022	1.92
318.155	-17.08
318.287	11.92
318.419	2.92
318.551	-1.08
318.683	-12.08
318.816	-4.08
318.948	15.92
319.08	-2.08
319.212	4.92
319.344	19.92
319.477	5.92
319.609	32.92
319.741	8.92
319.873	0.92
320.005	-14.08
320.137	28.92
320.269	-3.08
320.401	-6.08
320.534	4.92
320.666	-30.08
320.798	-9.08
320.93	-15.08
321.062	-1.08
321.194	-18.08
321.326	13.92
321.458	15.92
321.59	6.92
321.722	-8.08
321.854	-13.08
321.986	-4.08
322.118	-7.08
322.25	-9.08
322.382	-2.08
322.514	-1.08
322.646	-15.08
322.778	5.92
322.91	2.92
323.042	5.92
323.174	-3.08
323.306	-3.08
323.438	-24.08
323.57	5.92
323.702	9.92
323.834	2.92
323.966	-23.08
324.097	2.92
324.229	15.92
324.361	11.92
324.493	15.92
324.625	3.92
324.757	-2.08
324.889	4.92
325.021	17.92
325.152	25.92
325.284	31.92
325.416	-3.08
325.548	22.92
325.68	5.92
325.811	15.92
325.943	-3.08
326.075	-21.08
326.207	2.92
326.339	27.92
326.47	7.92
326.602	12.92
326.734	15.92
326.866	28.92
326.997	-6.08
327.129	-14.08
327.261	-36.08
327.392	-10.08
327.524	1.92
327.656	8.92
327.787	5.92
327.919	5.92
328.051	8.92
328.182	21.92
328.314	14.92
328.446	-8.08
328.577	-2.08
328.709	12.92
328.841	5.92
328.972	2.92
329.104	4.92
329.235	9.92
329.367	-0.08
329.499	-6.08
329.63	9.92
329.762	9.92
329.893	25.92
330.025	4.92
330.156	1.92
330.288	10.92
330.419	-2.08
330.551	11.92
330.683	19.92
330.814	5.92
330.946	11.92
331.077	-11.08
331.208	-6.08
331.34	3.92
331.471	-21.08
331.603	-5.08
331.734	5.92
331.866	-6.08
331.997	0.92
332.129	-3.08
332.26	-4.08
332.392	27.92
332.523	7.92
332.654	-20.08
332.786	2.92
332.917	-0.08
333.048	13.92
333.18	18.92
333.311	2.92
333.443	5.92
333.574	2.92
333.705	15.92
333.837	36.92
333.968	126.92
334.099	234.92
334.231	197.92
334.362	55.92
334.493	35.92
334.624	18.92
334.756	7.92
334.887	12.92
335.018	9.92
335.15	-2.08
335.281	9.92
335.412	34.92
335.543	16.92
335.675	27.92
335.806	-1.08
335.937	-18.08
336.068	-1.08
336.199	21.92
336.331	6.92
336.462	21.92
336.593	14.92
336.724	-15.08
336.855	-2.08
336.986	9.92
337.118	6.92
337.249	3.92
337.38	0.92
337.511	-1.08
337.642	2.92
337.773	13.92
337.904	13.92
338.035	10.92
338.166	-0.08
338.298	11.92
338.429	-8.08
338.56	18.92
338.691	24.92
338.822	9.92
338.953	15.92
339.084	17.92
339.215	36.92
339.346	20.92
339.477	7.92
339.608	5.92
339.739	9.92
339.87	5.92
340.001	3.92
340.132	14.92
340.263	12.92
340.394	20.92
340.525	12.92
340.656	9.92
340.787	-10.08
340.918	25.92
341.049	18.92
341.179	13.92
341.31	17.92
341.441	21.92
341.572	12.92
341.703	8.92
341.834	7.92
341.965	12.92
342.096	-12.08
342.227	12.92
342.357	5.92
342.488	5.92
342.619	8.92
342.75	15.92
342.881	8.92
343.012	39.92
343.142	37.92
343.273	-8.08
343.404	10.92
343.535	42.92
343.666	37.92
343.796	31.92
343.927	28.92
344.058	28.92
344.189	28.92
344.319	23.92
344.45	34.92
344.581	2.92
344.712	12.92
344.842	27.92
344.973	5.92
345.104	8.92
345.234	24.92
345.365	0.92
345.496	13.92
345.626	41.92
345.757	29.92
345.888	15.92
346.018	33.92
346.149	17.92
346.28	50.92
346.41	11.92
346.541	28.92
346.672	35.92
346.802	29.92
346.933	32.92
347.063	9.92
347.194	19.92
347.325	14.92
347.455	41.92
347.586	41.92
347.716	0.92
347.847	35.92
347.977	33.92
348.108	55.92
348.238	66.92
348.369	21.92
348.499	48.92
348.63	29.92
348.76	48.92
348.891	55.92
349.021	56.92
349.152	40.92
349.282	51.92
349.413	45.92
349.543	49.92
349.674	17.92
349.804	41.92
349.935	11.92
350.065	16.92
350.196	24.92
350.326	36.92
350.456	26.92
350.587	30.92
350.717	16.92
350.848	40.92
350.978	21.92
351.108	13.92
351.239	36.92
351.369	11.92
351.499	24.92
351.63	38.92
351.76	16.92
351.89	20.92
352.021	20.92
352.151	-3.08
352.281	47.92
352.412	25.92
352.542	27.92
352.672	22.92
352.803	8.92
352.933	7.92
353.063	11.92
353.193	17.92
353.324	1.92
353.454	16.92
353.584	44.92
353.714	15.92
353.845	21.92
353.975	7.92
354.105	19.92
354.235	32.92
354.365	31.92
354.496	7.92
354.626	36.92
354.756	41.92
354.886	17.92
355.016	16.92
355.146	11.92
355.277	7.92
355.407	12.92
355.537	34.92
355.667	38.92
355.797	33.92
355.927	8.92
356.057	22.92
356.187	-3.08
356.318	15.92
356.448	32.92
356.578	25.92
356.708	30.92
356.838	23.92
356.968	15.92
357.098	23.92
357.228	20.92
357.358	22.92
357.488	25.92
357.618	60.92
357.748	31.92
357.878	26.92
358.008	20.92
358.138	5.92
358.268	5.92
358.398	37.92
358.528	2.92
358.658	23.92
358.788	22.92
358.918	17.92
359.048	26.92
359.178	23.92
359.308	34.92
359.438	28.92
359.568	23.92
359.698	34.92
359.827	17.92
359.957	18.92
360.087	35.92
360.217	15.92
360.347	26.92
360.477	44.92
360.607	8.92
360.737	40.92
360.866	20.92
360.996	13.92
361.126	13.92
361.256	49.92
361.386	43.92
361.516	37.92
361.645	16.92
361.775	43.92
361.905	30.92
362.035	41.92
362.165	27.92
362.294	41.92
362.424	57.92
362.554	60.92
362.684	25.92
362.813	20.92
362.943	48.92
363.073	55.92
363.203	66.92
363.332	72.92
363.462	86.92
363.592	114.92
363.721	117.92
363.851	141.92
363.981	186.92
364.111	245.92
364.24	303.92
364.37	468.92
364.5	829.92
364.629	1758.92
364.759	3777.92
364.888	6234.92
365.018	9306.92
365.148	14747.92
365.277	12776.92
365.407	4688.92
365.537	3079.92
365.666	3957.92
365.796	1800.92
365.925	788.92
366.055	735.92
366.184	1015.92
366.314	1358.92
366.444	2449.92
366.573	2088.92
366.703	664.92
366.832	211.92
366.962	111.92
367.091	92.92
367.221	74.92
367.35	40.92
367.48	61.92
367.609	52.92
367.739	46.92
367.868	20.92
367.998	51.92
368.127	67.92
368.257	57.92
368.386	61.92
368.516	67.92
368.645	25.92
368.775	53.92
368.904	39.92
369.033	9.92
369.163	21.92
369.292	33.92
369.422	53.92
369.551	60.92
369.68	33.92
369.81	41.92
369.939	29.92
370.069	47.92
370.198	30.92
370.327	25.92
370.457	27.92
370.586	47.92
370.715	35.92
370.845	31.92
370.974	40.92
371.103	62.92
371.233	53.92
371.362	53.92
371.491	45.92
371.621	59.92
371.75	52.92
371.879	41.92
372.008	25.92
372.138	47.92
372.267	61.92
372.396	67.92
372.525	37.92
372.655	21.92
372.784	17.92
372.913	21.92
373.042	31.92
373.172	35.92
373.301	7.92
373.43	7.92
373.559	18.92
373.688	43.92
373.818	23.92
373.947	11.92
374.076	10.92
374.205	9.92
374.334	6.92
374.463	17.92
374.593	31.92
374.722	14.92
374.851	14.92
374.98	11.92
375.109	14.92
375.238	36.92
375.367	38.92
375.496	-5.08
375.625	2.92
375.755	28.92
375.884	28.92
376.013	25.92
376.142	-6.08
376.271	19.92
376.4	20.92
376.529	37.92
376.658	42.92
376.787	29.92
376.916	15.92
377.045	20.92
377.174	13.92
377.303	36.92
377.432	40.92
377.561	18.92
377.69	5.92
377.819	38.92
377.948	18.92
378.077	19.92
378.206	16.92
378.335	28.92
378.464	16.92
378.593	39.92
378.722	14.92
378.851	13.92
378.98	11.92
379.108	3.92
379.237	19.92
379.366	9.92
379.495	14.92
379.624	29.92
379.753	6.92
379.882	23.92
380.011	-13.08
380.14	6.92
380.268	30.92
380.397	8.92
380.526	34.92
380.655	7.92
380.784	-9.08
380.913	11.92
381.041	11.92
381.17	-13.08
381.299	1.92
381.428	28.92
381.557	22.92
381.685	14.92
381.814	27.92
381.943	-0.08
382.072	7.92
382.2	16.92
382.329	3.92
382.458	12.92
382.587	8.92
382.715	23.92
382.844	31.92
382.973	22.92
383.102	15.92
383.23	-1.08
383.359	2.92
383.488	12.92
383.616	1.92
383.745	-1.08
383.874	13.92
384.003	14.92
384.131	3.92
384.26	7.92
384.389	34.92
384.517	15.92
384.646	16.92
384.774	36.92
384.903	30.92
385.032	25.92
385.16	19.92
385.289	9.92
385.418	6.92
385.546	22.92
385.675	28.92
385.803	8.92
385.932	22.92
386.06	-6.08
386.189	17.92
386.318	35.92
386.446	20.92
386.575	37.92
386.703	24.92
386.832	17.92
386.96	2.92
387.089	18.92
387.217	21.92
387.346	-0.08
387.474	14.92
387.603	19.92
387.731	19.92
387.86	27.92
387.988	38.92
388.117	25.92
388.245	32.92
388.374	6.92
388.502	37.92
388.631	1.92
388.759	18.92
388.888	21.92
389.016	11.92
389.144	9.92
389.273	16.92
389.401	34.92
389.53	7.92
389.658	40.92
389.786	19.92
389.915	7.92
390.043	8.92
390.172	42.92
390.3	36.92
390.428	17.92
390.557	26.92
390.685	31.92
390.813	44.92
390.942	26.92
391.07	33.92
391.198	13.92
391.327	-2.08
391.455	-18.08
391.583	18.92
391.712	19.92
391.84	8.92
391.968	13.92
392.096	23.92
392.225	27.92
392.353	34.92
392.481	17.92
392.609	32.92
392.738	27.92
392.866	29.92
392.994	-2.08
393.122	43.92
393.251	37.92
393.379	19.92
393.507	1.92
393.635	-1.08
393.764	30.92
393.892	21.92
394.02	7.92
394.148	17.92
394.276	38.92
394.404	47.92
394.533	31.92
394.661	40.92
394.789	44.92
394.917	29.92
395.045	11.92
395.173	23.92
395.302	10.92
395.43	24.92
395.558	29.92
395.686	13.92
395.814	34.92
395.942	19.92
396.07	30.92
396.198	34.92
396.326	46.92
396.454	45.92
396.582	30.92
396.711	20.92
396.839	42.92
396.967	41.92
397.095	14.92
397.223	7.92
397.351	45.92
397.479	52.92
397.607	40.92
397.735	53.92
397.863	55.92
397.991	47.92
398.119	30.92
398.247	55.92
398.375	33.92
398.503	36.92
398.631	35.92
398.759	50.92
398.887	39.92
399.015	38.92
399.143	56.92
399.271	62.92
399.399	59.92
399.526	65.92
399.654	74.92
399.782	72.92
399.91	94.92
400.038	87.92
400.166	90.92
400.294	80.92
400.422	66.92
400.55	95.92
400.678	115.92
400.805	121.92
400.933	120.92
401.061	115.92
401.189	106.92
401.317	147.92
401.445	88.92
401.573	83.92
401.7	60.92
401.828	47.92
401.956	48.92
402.084	52.92
402.212	52.92
402.34	48.92
402.467	40.92
402.595	35.92
402.723	23.92
402.851	51.92
402.978	46.92
403.106	63.92
403.234	86.92
403.362	111.92
403.489	121.92
403.617	158.92
403.745	189.92
403.873	288.92
404	545.92
404.128	1447.92
404.256	3848.92
404.384	5015.92
404.511	5318.92
404.639	7102.92
404.767	11222.92
404.894	14510.92
405.022	4857.92
405.15	1241.92
405.277	421.92
405.405	217.92
405.533	121.92
405.66	92.92
405.788	47.92
405.916	63.92
406.043	51.92
406.171	51.92
406.299	55.92
406.426	57.92
406.554	63.92
406.681	62.92
406.809	54.92
406.937	55.92
407.064	77.92
407.192	131.92
407.319	291.92
407.447	507.92
407.574	522.92
407.702	616.92
407.83	846.92
407.957	1553.92
408.085	919.92
408.212	282.92
408.34	99.92
408.467	65.92
408.595	51.92
408.722	47.92
408.85	50.92
408.977	18.92
409.105	22.92
409.232	29.92
409.36	19.92
409.487	11.92
409.615	31.92
409.742	21.92
409.87	34.92
409.997	45.92
410.125	33.92
410.252	36.92
410.379	20.92
410.507	34.92
410.634	23.92
410.762	15.92
410.889	40.92
411.017	31.92
411.144	30.92
411.271	20.92
411.399	27.92
411.526	14.92
411.653	14.92
411.781	36.92
411.908	34.92
412.036	23.92
412.163	42.92
412.29	31.92
412.418	19.92
412.545	41.92
412.672	34.92
412.8	58.92
412.927	17.92
413.054	40.92
413.182	22.92
413.309	34.92
413.436	17.92
413.564	20.92
413.691	32.92
413.818	51.92
413.945	10.92
414.073	22.92
414.2	26.92
414.327	35.92
414.454	31.92
414.582	40.92
414.709	7.92
414.836	19.92
414.963	31.92
415.091	34.92
415.218	23.92
415.345	16.92
415.472	15.92
415.6	28.92
415.727	34.92
415.854	32.92
415.981	22.92
416.108	2.92
416.236	13.92
416.363	19.92
416.49	13.92
416.617	16.92
416.744	37.92
416.871	32.92
416.998	29.92
417.126	18.92
417.253	14.92
417.38	10.92
417.507	21.92
417.634	26.92
417.761	40.92
417.888	27.92
418.015	18.92
418.143	18.92
418.27	48.92
418.397	22.92
418.524	37.92
418.651	18.92
418.778	27.92
418.905	70.92
419.032	43.92
419.159	52.92
419.286	60.92
419.413	41.92
419.54	59.92
419.667	37.92
419.794	38.92
419.921	35.92
420.048	54.92
420.175	47.92
420.302	38.92
420.429	50.92
420.556	40.92
420.683	19.92
420.81	55.92
420.937	67.92
421.064	66.92
421.191	54.92
421.318	78.92
421.445	72.92
421.572	46.92
421.699	55.92
421.826	41.92
421.953	30.92
422.08	30.92
422.207	-9.08
422.334	9.92
422.461	38.92
422.588	13.92
422.714	21.92
422.841	45.92
422.968	31.92
423.095	11.92
423.222	6.92
423.349	28.92
423.476	25.92
423.603	12.92
423.729	-4.08
423.856	12.92
423.983	28.92
424.11	17.92
424.237	17.92
424.364	28.92
424.491	17.92
424.617	3.92
424.744	13.92
424.871	31.92
424.998	12.92
425.125	21.92
425.251	20.92
425.378	9.92
425.505	13.92
425.632	33.92
425.758	17.92
425.885	24.92
426.012	32.92
426.139	44.92
426.266	27.92
426.392	11.92
426.519	31.92
426.646	25.92
426.772	27.92
426.899	25.92
427.026	31.92
427.153	20.92
427.279	33.92
427.406	23.92
427.533	21.92
427.659	5.92
427.786	19.92
427.913	22.92
428.039	5.92
428.166	22.92
428.293	12.92
428.419	30.92
428.546	21.92
428.673	13.92
428.799	6.92
428.926	33.92
429.053	30.92
429.179	35.92
429.306	19.92
429.433	33.92
429.559	39.92
429.686	9.92
429.812	17.92
429.939	17.92
430.066	33.92
430.192	24.92
430.319	26.92
430.445	13.92
430.572	29.92
430.699	30.92
430.825	15.92
430.952	39.92
431.078	14.92
431.205	26.92
431.331	31.92
431.458	39.92
431.584	29.92
431.711	14.92
431.837	21.92
431.964	16.92
432.09	23.92
432.217	7.92
432.343	22.92
432.47	42.92
432.596	31.92
432.723	28.92
432.849	21.92
432.976	36.92
433.102	18.92
433.229	22.92
433.355	53.92
433.482	92.92
433.608	99.92
433.735	115.92
433.861	124.92
433.987	161.92
434.114	178.92
434.24	162.92
434.367	216.92
434.493	215.92
434.62	285.92
434.746	372.92
434.872	613.92
434.999	832.92
435.125	1703.92
435.252	5466.92
435.378	13253.92
435.504	15105.92
435.631	15327.92
435.757	15680.92
435.883	15680.92
436.01	15680.92
436.136	15680.92
436.262	15680.92
436.389	3374.92
436.515	1781.92
436.641	714.92
436.768	613.92
436.894	386.92
437.02	368.92
437.147	269.92
437.273	289.92
437.399	195.92
437.526	251.92
437.652	174.92
437.778	182.92
437.904	138.92
438.031	156.92
438.157	131.92
438.283	139.92
438.409	87.92
438.536	105.92
438.662	118.92
438.788	120.92
438.914	103.92
439.041	111.92
439.167	110.92
439.293	112.92
439.419	85.92
439.546	83.92
439.672	76.92
439.798	97.92
439.924	82.92
440.05	110.92
440.177	79.92
440.303	57.92
440.429	53.92
440.555	71.92
440.681	78.92
440.807	74.92
440.934	48.92
441.06	49.92
441.186	50.92
441.312	47.92
441.438	75.92
441.564	77.92
441.69	67.92
441.816	62.92
441.943	52.92
442.069	52.92
442.195	63.92
442.321	62.92
442.447	26.92
442.573	53.92
442.699	41.92
442.825	41.92
442.951	55.92
443.077	70.92
443.203	62.92
443.33	38.92
443.456	32.92
443.582	49.92
443.708	51.92
443.834	68.92
443.96	36.92
444.086	41.92
444.212	63.92
444.338	45.92
444.464	31.92
444.59	61.92
444.716	35.92
444.842	32.92
444.968	11.92
445.094	22.92
445.22	25.92
445.346	21.92
445.472	35.92
445.598	35.92
445.724	35.92
445.85	61.92
445.976	28.92
446.102	41.92
446.228	51.92
446.354	40.92
446.48	35.92
446.605	51.92
446.731	34.92
446.857	34.92
446.983	33.92
447.109	32.92
447.235	29.92
447.361	29.92
447.487	47.92
447.613	25.92
447.739	24.92
447.865	40.92
447.99	27.92
448.116	39.92
448.242	22.92
448.368	39.92
448.494	31.92
448.62	32.92
448.746	24.92
448.872	50.92
448.997	16.92
449.123	20.92
449.249	37.92
449.375	49.92
449.501	22.92
449.627	4.92
449.752	54.92
449.878	23.92
450.004	19.92
450.13	37.92
450.256	10.92
450.381	13.92
450.507	-5.08
450.633	9.92
450.759	19.92
450.884	28.92
451.01	31.92
451.136	35.92
451.262	36.92
451.388	29.92
451.513	16.92
451.639	19.92
451.765	31.92
451.89	40.92
452.016	26.92
452.142	32.92
452.268	44.92
452.393	27.92
452.519	3.92
452.645	17.92
452.771	13.92
452.896	-6.08
453.022	15.92
453.148	24.92
453.273	38.92
453.399	15.92
453.525	16.92
453.65	18.92
453.776	40.92
453.902	33.92
454.027	22.92
454.153	24.92
454.279	29.92
454.404	21.92
454.53	32.92
454.656	49.92
454.781	19.92
454.907	21.92
455.032	19.92
455.158	26.92
455.284	36.92
455.409	31.92
455.535	23.92
455.66	38.92
455.786	28.92
455.912	17.92
456.037	13.92
456.163	29.92
456.288	32.92
456.414	5.92
456.539	11.92
456.665	27.92
456.791	22.92
456.916	37.92
457.042	22.92
457.167	3.92
457.293	8.92
457.418	28.92
457.544	15.92
457.669	22.92
457.795	20.92
457.92	26.92
458.046	32.92
458.171	28.92
458.297	17.92
458.422	6.92
458.548	10.92
458.673	20.92
458.799	22.92
458.924	15.92
459.05	22.92
459.175	38.92
459.301	19.92
459.426	40.92
459.552	16.92
459.677	16.92
459.803	43.92
459.928	31.92
460.053	18.92
460.179	18.92
460.304	32.92
460.43	13.92
460.555	13.92
460.681	-0.08
460.806	23.92
460.931	22.92
461.057	36.92
461.182	26.92
461.308	33.92
461.433	24.92
461.558	15.92
461.684	36.92
461.809	29.92
461.934	5.92
462.06	32.92
462.185	13.92
462.311	8.92
462.436	30.92
462.561	26.92
462.687	5.92
462.812	24.92
462.937	10.92
463.063	12.92
463.188	12.92
463.313	31.92
463.439	27.92
463.564	8.92
463.689	18.92
463.814	30.92
463.94	25.92
464.065	38.92
464.19	22.92
464.316	13.92
464.441	4.92
464.566	23.92
464.692	23.92
464.817	37.92
464.942	4.92
465.067	24.92
465.193	9.92
465.318	20.92
465.443	22.92
465.568	11.92
465.694	13.92
465.819	17.92
465.944	28.92
466.069	21.92
466.194	31.92
466.32	34.92
466.445	21.92
466.57	26.92
466.695	26.92
466.82	36.92
466.946	36.92
467.071	35.92
467.196	34.92
467.321	34.92
467.446	19.92
467.572	39.92
467.697	-0.08
467.822	40.92
467.947	62.92
468.072	20.92
468.197	29.92
468.323	17.92
468.448	17.92
468.573	18.92
468.698	15.92
468.823	28.92
468.948	37.92
469.073	30.92
469.198	36.92
469.324	42.92
469.449	8.92
469.574	55.92
469.699	51.92
469.824	47.92
469.949	44.92
470.074	41.92
470.199	49.92
470.324	36.92
470.449	41.92
470.574	25.92
470.7	36.92
470.825	49.92
470.95	48.92
471.075	42.92
471.2	44.92
471.325	41.92
471.45	31.92
471.575	12.92
471.7	33.92
471.825	16.92
471.95	21.92
472.075	14.92
472.2	23.92
472.325	17.92
472.45	12.92
472.575	17.92
472.7	24.92
472.825	34.92
472.95	34.92
473.075	37.92
473.2	43.92
473.325	46.92
473.45	45.92
473.575	41.92
473.7	40.92
473.825	36.92
473.95	38.92
474.075	35.92
474.2	6.92
474.325	18.92
474.45	23.92
474.574	8.92
474.699	19.92
474.824	22.92
474.949	10.92
475.074	2.92
475.199	31.92
475.324	40.92
475.449	8.92
475.574	25.92
475.699	18.92
475.824	-4.08
475.949	18.92
476.073	13.92
476.198	19.92
476.323	38.92
476.448	7.92
476.573	19.92
476.698	27.92
476.823	32.92
476.947	16.92
477.072	27.92
477.197	25.92
477.322	19.92
477.447	11.92
477.572	28.92
477.697	1.92
477.821	-1.08
477.946	1.92
478.071	10.92
478.196	9.92
478.321	20.92
478.445	15.92
478.57	17.92
478.695	25.92
478.82	25.92
478.945	24.92
479.069	10.92
479.194	9.92
479.319	13.92
479.444	26.92
479.569	-1.08
479.693	-1.08
479.818	11.92
479.943	12.92
480.068	13.92
480.192	36.92
480.317	13.92
480.442	10.92
480.567	6.92
480.691	8.92
480.816	15.92
480.941	29.92
481.066	31.92
481.19	21.92
481.315	24.92
481.44	12.92
481.564	11.92
481.689	25.92
481.814	30.92
481.938	10.92
482.063	19.92
482.188	35.92
482.313	37.92
482.437	24.92
482.562	28.92
482.687	12.92
482.811	8.92
482.936	14.92
483.061	15.92
483.185	18.92
483.31	18.92
483.435	15.92
483.559	8.92
483.684	10.92
483.808	41.92
483.933	12.92
484.058	19.92
484.182	3.92
484.307	11.92
484.432	3.92
484.556	4.92
484.681	12.92
484.805	26.92
484.93	16.92
485.055	20.92
485.179	50.92
485.304	14.92
485.428	32.92
485.553	12.92
485.678	22.92
485.802	26.92
485.927	25.92
486.051	32.92
486.176	3.92
486.3	12.92
486.425	36.92
486.549	30.92
486.674	33.92
486.799	20.92
486.923	-1.08
487.048	14.92
487.172	8.92
487.297	19.92
487.421	23.92
487.546	22.92
487.67	24.92
487.795	12.92
487.919	7.92
488.044	18.92
488.168	34.92
488.293	24.92
488.417	12.92
488.542	18.92
488.666	18.92
488.791	21.92
488.915	23.92
489.04	34.92
489.164	19.92
489.289	25.92
489.413	18.92
489.538	25.92
489.662	18.92
489.786	14.92
489.911	27.92
490.035	5.92
490.16	10.92
490.284	3.92
490.409	10.92
490.533	23.92
490.658	56.92
490.782	21.92
490.906	52.92
491.031	124.92
491.155	127.92
491.28	131.92
491.404	179.92
491.528	252.92
491.653	143.92
491.777	62.92
491.902	16.92
492.026	28.92
492.15	22.92
492.275	30.92
492.399	25.92
492.524	24.92
492.648	41.92
492.772	33.92
492.897	33.92
493.021	5.92
493.145	14.92
493.27	26.92
493.394	18.92
493.518	31.92
493.643	15.92
493.767	35.92
493.891	2.92
494.016	16.92
494.14	22.92
494.264	11.92
494.389	34.92
494.513	11.92
494.637	4.92
494.762	27.92
494.886	29.92
495.01	39.92
495.134	23.92
495.259	19.92
495.383	36.92
495.507	19.92
495.632	29.92
495.756	60.92
495.88	21.92
496.004	13.92
496.129	0.92
496.253	25.92
496.377	27.92
496.501	42.92
496.626	25.92
496.75	22.92
496.874	21.92
496.998	10.92
497.123	18.92
497.247	15.92
497.371	15.92
497.495	17.92
497.62	25.92
497.744	22.92
497.868	16.92
497.992	7.92
498.116	27.92
498.241	37.92
498.365	3.92
498.489	10.92
498.613	47.92
498.737	2.92
498.862	20.92
498.986	13.92
499.11	24.92
499.234	22.92
499.358	15.92
499.482	17.92
499.607	14.92
499.731	19.92
499.855	18.92
499.979	25.92
500.103	29.92
500.227	15.92
500.351	16.92
500.476	17.92
500.6	26.92
500.724	23.92
500.848	31.92
500.972	22.92
501.096	7.92
501.22	27.92
501.344	6.92
501.469	10.92
501.593	23.92
501.717	33.92
501.841	25.92
501.965	17.92
502.089	-0.08
502.213	12.92
502.337	8.92
502.461	10.92
502.585	18.92
502.709	21.92
502.834	21.92
502.958	18.92
503.082	31.92
503.206	17.92
503.33	25.92
503.454	29.92
503.578	25.92
503.702	19.92
503.826	22.92
503.95	27.92
504.074	20.92
504.198	11.92
504.322	10.92
504.446	15.92
504.57	25.92
504.694	25.92
504.818	13.92
504.942	35.92
505.066	23.92
505.19	29.92
505.314	17.92
505.438	35.92
505.562	23.92
505.686	19.92
505.81	20.92
505.934	23.92
506.058	-1.08
506.182	36.92
506.306	19.92
506.43	24.92
506.554	10.92
506.678	22.92
506.802	17.92
506.926	24.92
507.05	39.92
507.174	44.92
507.298	39.92
507.422	26.92
507.546	21.92
507.67	23.92
507.794	11.92
507.918	35.92
508.042	21.92
508.165	23.92
508.289	12.92
508.413	10.92
508.537	11.92
508.661	27.92
508.785	11.92
508.909	25.92
509.033	32.92
509.157	24.92
509.281	22.92
509.405	16.92
509.528	60.92
509.652	36.92
509.776	16.92
509.9	35.92
510.024	39.92
510.148	30.92
510.272	33.92
510.396	37.92
510.519	26.92
510.643	53.92
510.767	43.92
510.891	43.92
511.015	23.92
511.139	21.92
511.263	49.92
511.386	41.92
511.51	32.92
511.634	44.92
511.758	20.92
511.882	23.92
512.006	66.92
512.129	60.92
512.253	86.92
512.377	89.92
512.501	77.92
512.625	92.92
512.748	78.92
512.872	52.92
512.996	36.92
513.12	59.92
513.244	46.92
513.367	65.92
513.491	54.92
513.615	57.92
513.739	65.92
513.862	68.92
513.986	76.92
514.11	88.92
514.234	80.92
514.358	97.92
514.481	125.92
514.605	106.92
514.729	105.92
514.853	113.92
514.976	97.92
515.1	78.92
515.224	99.92
515.348	97.92
515.471	83.92
515.595	96.92
515.719	117.92
515.842	220.92
515.966	271.92
516.09	286.92
516.214	301.92
516.337	338.92
516.461	223.92
516.585	91.92
516.708	41.92
516.832	24.92
516.956	21.92
517.08	24.92
517.203	8.92
517.327	17.92
517.451	34.92
517.574	34.92
517.698	18.92
517.822	13.92
517.945	21.92
518.069	24.92
518.193	33.92
518.316	13.92
518.44	39.92
518.564	23.92
518.687	9.92
518.811	1.92
518.935	22.92
519.058	15.92
519.182	17.92
519.306	30.92
519.429	17.92
519.553	28.92
519.676	34.92
519.8	24.92
519.924	16.92
520.047	31.92
520.171	21.92
520.294	9.92
520.418	5.92
520.542	1.92
520.665	41.92
520.789	-4.08
520.913	1.92
521.036	3.92
521.16	4.92
521.283	15.92
521.407	27.92
521.53	10.92
521.654	17.92
521.778	39.92
521.901	40.92
522.025	19.92
522.148	13.92
522.272	33.92
522.395	19.92
522.519	19.92
522.643	2.92
522.766	10.92
522.89	14.92
523.013	23.92
523.137	4.92
523.26	20.92
523.384	25.92
523.507	34.92
523.631	4.92
523.754	-4.08
523.878	14.92
524.002	22.92
524.125	12.92
524.249	-3.08
524.372	8.92
524.496	12.92
524.619	29.92
524.743	9.92
524.866	6.92
524.99	6.92
525.113	3.92
525.237	14.92
525.36	24.92
525.484	26.92
525.607	16.92
525.731	-4.08
525.854	11.92
525.978	41.92
526.101	3.92
526.224	9.92
526.348	25.92
526.471	10.92
526.595	16.92
526.718	2.92
526.842	-8.08
526.965	7.92
527.089	13.92
527.212	19.92
527.336	8.92
527.459	26.92
527.582	16.92
527.706	9.92
527.829	-1.08
527.953	23.92
528.076	-5.08
528.2	17.92
528.323	14.92
528.446	36.92
528.57	4.92
528.693	25.92
528.817	19.92
528.94	21.92
529.064	26.92
529.187	7.92
529.31	23.92
529.434	8.92
529.557	-0.08
529.68	19.92
529.804	18.92
529.927	24.92
530.051	19.92
530.174	11.92
530.297	23.92
530.421	44.92
530.544	31.92
530.668	13.92
530.791	9.92
530.914	22.92
531.038	4.92
531.161	25.92
531.284	-2.08
531.408	22.92
531.531	2.92
531.654	9.92
531.778	26.92
531.901	5.92
532.024	20.92
532.148	6.92
532.271	21.92
532.394	18.92
532.518	22.92
532.641	23.92
532.764	22.92
532.888	32.92
533.011	5.92
533.134	24.92
533.258	36.92
533.381	-14.08
533.504	10.92
533.628	25.92
533.751	16.92
533.874	34.92
533.997	3.92
534.121	13.92
534.244	21.92
534.367	18.92
534.491	20.92
534.614	18.92
534.737	14.92
534.86	20.92
534.984	6.92
535.107	8.92
535.23	25.92
535.354	21.92
535.477	11.92
535.6	19.92
535.723	18.92
535.847	12.92
535.97	7.92
536.093	14.92
536.216	14.92
536.34	28.92
536.463	1.92
536.586	19.92
536.709	19.92
536.833	34.92
536.956	13.92
537.079	24.92
537.202	42.92
537.325	12.92
537.449	9.92
537.572	19.92
537.695	2.92
537.818	-1.08
537.941	1.92
538.065	29.92
538.188	1.92
538.311	21.92
538.434	35.92
538.558	14.92
538.681	30.92
538.804	31.92
538.927	20.92
539.05	18.92
539.173	24.92
539.297	17.92
539.42	19.92
539.543	11.92
539.666	13.92
539.789	23.92
539.913	10.92
540.036	18.92
540.159	37.92
540.282	19.92
540.405	26.92
540.528	10.92
540.651	33.92
540.775	10.92
540.898	17.92
541.021	19.92
541.144	23.92
541.267	22.92
541.39	32.92
541.513	33.92
541.637	18.92
541.76	18.92
541.883	22.92
542.006	47.92
542.129	50.92
542.252	21.92
542.375	47.92
542.498	51.92
542.622	53.92
542.745	39.92
542.868	39.92
542.991	47.92
543.114	65.92
543.237	78.92
543.36	69.92
543.483	55.92
543.606	80.92
543.73	85.92
543.853	69.92
543.976	82.92
544.099	97.92
544.222	124.92
544.345	125.92
544.468	172.92
544.591	210.92
544.714	247.92
544.837	348.92
544.96	437.92
545.083	641.92
545.206	1067.92
545.329	2437.92
545.453	10761.92
545.576	15229.92
545.699	15680.92
545.822	15680.92
545.945	15680.92
546.068	15680.92
546.191	15680.92
546.314	15680.92
546.437	15680.92
546.56	15680.92
546.683	15680.92
546.806	15680.92
546.929	15680.92
547.052	15680.92
547.175	15680.92
547.298	15680.92
547.421	15680.92
547.544	15680.92
547.667	3393.92
547.79	1636.92
547.913	889.92
548.036	802.92
548.159	609.92
548.282	589.92
548.405	443.92
548.528	465.92
548.651	386.92
548.774	380.92
548.897	336.92
549.02	341.92
549.143	306.92
549.266	287.92
549.389	267.92
549.512	246.92
549.635	241.92
549.758	238.92
549.881	198.92
550.004	207.92
550.127	186.92
550.25	181.92
550.373	164.92
550.496	175.92
550.619	150.92
550.742	136.92
550.865	150.92
550.988	168.92
551.111	139.92
551.234	142.92
551.356	128.92
551.479	123.92
551.602	114.92
551.725	142.92
551.848	124.92
551.971	134.92
552.094	128.92
552.217	126.92
552.34	101.92
552.463	90.92
552.586	128.92
552.709	119.92
552.832	99.92
552.955	100.92
553.077	117.92
553.2	126.92
553.323	87.92
553.446	86.92
553.569	74.92
553.692	93.92
553.815	87.92
553.938	101.92
554.061	83.92
554.184	93.92
554.306	103.92
554.429	90.92
554.552	85.92
554.675	72.92
554.798	66.92
554.921	69.92
555.044	82.92
555.167	81.92
555.29	77.92
555.412	77.92
555.535	52.92
555.658	69.92
555.781	70.92
555.904	92.92
556.027	89.92
556.15	71.92
556.272	83.92
556.395	85.92
556.518	75.92
556.641	62.92
556.764	58.92
556.887	71.92
557.01	61.92
557.132	51.92
557.255	49.92
557.378	75.92
557.501	59.92
557.624	77.92
557.747	68.92
557.869	78.92
557.992	81.92
558.115	98.92
558.238	74.92
558.361	102.92
558.483	88.92
558.606	63.92
558.729	31.92
558.852	60.92
558.975	52.92
559.098	58.92
559.22	52.92
559.343	71.92
559.466	65.92
559.589	54.92
559.712	56.92
559.834	55.92
559.957	43.92
560.08	46.92
560.203	55.92
560.325	53.92
560.448	73.92
560.571	50.92
560.694	47.92
560.817	69.92
560.939	54.92
561.062	53.92
561.185	43.92
561.308	59.92
561.43	51.92
561.553	53.92
561.676	48.92
561.799	48.92
561.921	49.92
562.044	56.92
562.167	31.92
562.29	69.92
562.413	66.92
562.535	73.92
562.658	34.92
562.781	45.92
562.903	58.92
563.026	81.92
563.149	138.92
563.272	117.92
563.394	94.92
563.517	105.92
563.64	50.92
563.763	47.92
563.885	42.92
564.008	59.92
564.131	42.92
564.254	27.92
564.376	29.92
564.499	23.92
564.622	29.92
564.744	44.92
564.867	45.92
564.99	42.92
565.113	47.92
565.235	34.92
565.358	29.92
565.481	9.92
565.603	34.92
565.726	42.92
565.849	52.92
565.971	33.92
566.094	27.92
566.217	39.92
566.34	40.92
566.462	46.92
566.585	51.92
566.708	41.92
566.83	19.92
566.953	44.92
567.076	33.92
567.198	27.92
567.321	19.92
567.444	44.92
567.566	42.92
567.689	44.92
567.812	20.92
567.934	36.92
568.057	38.92
568.18	47.92
568.302	35.92
568.425	37.92
568.548	26.92
568.67	28.92
568.793	47.92
568.916	24.92
569.038	18.92
569.161	35.92
569.283	55.92
569.406	34.92
569.529	31.92
569.651	14.92
569.774	27.92
569.897	37.92
570.019	49.92
570.142	37.92
570.265	48.92
570.387	25.92
570.51	33.92
570.632	47.92
570.755	29.92
570.878	10.92
571	36.92
571.123	28.92
571.246	36.92
571.368	26.92
571.491	44.92
571.613	29.92
571.736	18.92
571.859	23.92
571.981	12.92
572.104	27.92
572.226	23.92
572.349	23.92
572.472	36.92
572.594	36.92
572.717	17.92
572.839	24.92
572.962	38.92
573.085	35.92
573.207	35.92
573.33	31.92
573.452	41.92
573.575	30.92
573.697	31.92
573.82	30.92
573.943	34.92
574.065	27.92
574.188	26.92
574.31	44.92
574.433	34.92
574.555	37.92
574.678	9.92
574.801	42.92
574.923	25.92
575.046	36.92
575.168	27.92
575.291	38.92
575.413	20.92
575.536	33.92
575.659	40.92
575.781	47.92
575.904	53.92
576.026	75.92
576.149	75.92
576.271	113.92
576.394	197.92
576.516	537.92
576.639	3625.92
576.761	9965.92
576.884	8713.92
577.007	8557.92
577.129	7859.92
577.252	3627.92
577.374	1265.92
577.497	501.92
577.619	263.92
577.742	171.92
577.864	151.92
577.987	116.92
578.109	142.92
578.232	129.92
578.354	136.92
578.477	187.92
578.599	376.92
578.722	1932.92
578.844	8937.92
578.967	9557.92
579.089	8635.92
579.212	8855.92
579.334	5224.92
579.457	1914.92
579.579	690.92
579.702	300.92
579.824	212.92
579.947	114.92
580.069	102.92
580.192	86.92
580.314	80.92
580.437	70.92
580.559	75.92
580.682	66.92
580.804	68.92
580.927	54.92
581.049	74.92
581.172	52.92
581.294	42.92
581.417	49.92
581.539	57.92
581.662	47.92
581.784	51.92
581.907	36.92
582.029	38.92
582.152	30.92
582.274	40.92
582.396	58.92
582.519	48.92
582.641	38.92
582.764	43.92
582.886	45.92
583.009	28.92
583.131	44.92
583.254	18.92
583.376	43.92
583.499	50.92
583.621	38.92
583.743	38.92
583.866	48.92
583.988	32.92
584.111	39.92
584.233	52.92
584.356	46.92
584.478	31.92
584.601	5.92
584.723	25.92
584.845	55.92
584.968	24.92
585.09	8.92
585.213	30.92
585.335	19.92
585.458	33.92
585.58	29.92
585.702	29.92
585.825	47.92
585.947	31.92
586.07	2.92
586.192	31.92
586.315	36.92
586.437	14.92
586.559	15.92
586.682	25.92
586.804	34.92
586.927	14.92
587.049	22.92
587.171	33.92
587.294	40.92
587.416	42.92
587.539	26.92
587.661	15.92
587.783	23.92
587.906	21.92
588.028	20.92
588.151	30.92
588.273	31.92
588.395	19.92
588.518	13.92
588.64	23.92
588.763	31.92
588.885	33.92
589.007	29.92
589.13	13.92
589.252	2.92
589.375	24.92
589.497	24.92
589.619	31.92
589.742	24.92
589.864	32.92
589.986	36.92
590.109	26.92
590.231	18.92
590.354	37.92
590.476	7.92
590.598	21.92
590.721	13.92
590.843	16.92
590.965	25.92
591.088	17.92
591.21	25.92
591.332	25.92
591.455	18.92
591.577	19.92
591.7	21.92
591.822	31.92
591.944	47.92
592.067	31.92
592.189	27.92
592.311	28.92
592.434	12.92
592.556	34.92
592.678	18.92
592.801	30.92
592.923	14.92
593.045	9.92
593.168	8.92
593.29	26.92
593.412	41.92
593.535	13.92
593.657	14.92
593.779	25.92
593.902	24.92
594.024	12.92
594.146	54.92
594.269	41.92
594.391	4.92
594.513	19.92
594.636	14.92
594.758	12.92
594.88	29.92
595.003	33.92
595.125	17.92
595.247	34.92
595.37	27.92
595.492	17.92
595.614	48.92
595.737	29.92
595.859	21.92
595.981	18.92
596.104	17.92
596.226	17.92
596.348	10.92
596.471	10.92
596.593	24.92
596.715	20.92
596.838	10.92
596.96	18.92
597.082	20.92
597.204	17.92
597.327	19.92
597.449	25.92
597.571	29.92
597.694	40.92
597.816	34.92
597.938	21.92
598.061	20.92
598.183	19.92
598.305	26.92
598.427	26.92
598.55	18.92
598.672	21.92
598.794	31.92
598.917	14.92
599.039	17.92
599.161	9.92
599.283	25.92
599.406	26.92
599.528	35.92
599.65	37.92
599.773	18.92
599.895	36.92
600.017	24.92
600.139	34.92
600.262	11.92
600.384	36.92
600.506	22.92
600.628	31.92
600.751	33.92
600.873	17.92
600.995	7.92
601.118	39.92
601.24	6.92
601.362	37.92
601.484	11.92
601.607	26.92
601.729	11.92
601.851	13.92
601.973	14.92
602.096	6.92
602.218	20.92
602.34	8.92
602.462	25.92
602.585	37.92
602.707	-5.08
602.829	25.92
602.951	22.92
603.074	23.92
603.196	32.92
603.318	10.92
603.44	25.92
603.563	22.92
603.685	16.92
603.807	24.92
603.929	30.92
604.052	33.92
604.174	37.92
604.296	27.92
604.418	22.92
604.541	27.92
604.663	14.92
604.785	8.92
604.907	22.92
605.03	13.92
605.152	45.92
605.274	20.92
605.396	25.92
605.519	20.92
605.641	14.92
605.763	24.92
605.885	29.92
606.008	27.92
606.13	31.92
606.252	27.92
606.374	-6.08
606.496	20.92
606.619	12.92
606.741	19.92
606.863	39.92
606.985	38.92
607.108	13.92
607.23	19.92
607.352	18.92
607.474	41.92
607.596	20.92
607.719	23.92
607.841	22.92
607.963	21.92
608.085	6.92
608.207	38.92
608.33	13.92
608.452	3.92
608.574	1.92
608.696	19.92
608.819	17.92
608.941	19.92
609.063	8.92
609.185	11.92
609.307	13.92
609.43	47.92
609.552	33.92
609.674	9.92
609.796	18.92
609.918	17.92
610.041	1.92
610.163	17.92
610.285	22.92
610.407	17.92
610.529	6.92
610.652	12.92
610.774	21.92
610.896	19.92
611.018	19.92
611.14	33.92
611.263	4.92
611.385	28.92
611.507	58.92
611.629	18.92
611.751	33.92
611.873	49.92
611.996	30.92
612.118	33.92
612.24	8.92
612.362	20.92
612.484	21.92
612.607	42.92
612.729	54.92
612.851	34.92
612.973	22.92
613.095	1.92
613.218	17.92
613.34	30.92
613.462	26.92
613.584	17.92
613.706	20.92
613.828	31.92
613.951	6.92
614.073	21.92
614.195	1.92
614.317	35.92
614.439	22.92
614.561	36.92
614.684	26.92
614.806	26.92
614.928	25.92
615.05	29.92
615.172	31.92
615.294	47.92
615.417	25.92
615.539	15.92
615.661	30.92
615.783	46.92
615.905	17.92
616.027	22.92
616.15	36.92
616.272	27.92
616.394	11.92
616.516	9.92
616.638	15.92
616.76	12.92
616.883	13.92
617.005	20.92
617.127	17.92
617.249	19.92
617.371	22.92
617.493	23.92
617.615	20.92
617.738	33.92
617.86	13.92
617.982	0.92
618.104	9.92
618.226	7.92
618.348	13.92
618.471	42.92
618.593	32.92
618.715	19.92
618.837	24.92
618.959	21.92
619.081	30.92
619.203	16.92
619.326	31.92
619.448	45.92
619.57	24.92
619.692	26.92
619.814	31.92
619.936	24.92
620.058	19.92
620.181	20.92
620.303	6.92
620.425	15.92
620.547	6.92
620.669	-0.08
620.791	1.92
620.913	7.92
621.036	10.92
621.158	21.92
621.28	15.92
621.402	-21.08
621.524	17.92
621.646	8.92
621.768	0.92
621.891	0.92
622.013	13.92
622.135	19.92
622.257	13.92
622.379	11.92
622.501	15.92
622.623	26.92
622.745	19.92
622.868	8.92
622.99	15.92
623.112	6.92
623.234	21.92
623.356	11.92
623.478	5.92
623.6	21.92
623.722	15.92
623.845	13.92
623.967	21.92
624.089	15.92
624.211	24.92
624.333	28.92
624.455	13.92
624.577	-6.08
624.699	13.92
624.822	19.92
624.944	25.92
625.066	9.92
625.188	9.92
625.31	6.92
625.432	31.92
625.554	14.92
625.676	30.92
625.799	26.92
625.921	25.92
626.043	10.92
626.165	18.92
626.287	-6.08
626.409	13.92
626.531	31.92
626.653	19.92
626.775	25.92
626.898	16.92
627.02	25.92
627.142	38.92
627.264	15.92
627.386	15.92
627.508	13.92
627.63	-6.08
627.752	13.92
627.874	17.92
627.997	23.92
628.119	18.92
628.241	10.92
628.363	20.92
628.485	21.92
628.607	13.92
628.729	10.92
628.851	14.92
628.973	3.92
629.096	-2.08
629.218	6.92
629.34	5.92
629.462	-8.08
629.584	6.92
629.706	18.92
629.828	35.92
629.95	12.92
630.072	3.92
630.195	10.92
630.317	7.92
630.439	18.92
630.561	20.92
630.683	14.92
630.805	22.92
630.927	12.92
631.049	28.92
631.171	7.92
631.293	20.92
631.416	12.92
631.538	19.92
631.66	12.92
631.782	24.92
631.904	15.92
632.026	2.92
632.148	13.92
632.27	7.92
632.392	31.92
632.514	7.92
632.637	18.92
632.759	2.92
632.881	3.92
633.003	0.92
633.125	18.92
633.247	5.92
633.369	21.92
633.491	10.92
633.613	27.92
633.735	0.92
633.858	10.92
633.98	4.92
634.102	9.92
634.224	4.92
634.346	6.92
634.468	25.92
634.59	-0.08
634.712	19.92
634.834	22.92
634.956	8.92
635.078	7.92
635.201	0.92
635.323	18.92
635.445	9.92
635.567	11.92
635.689	12.92
635.811	9.92
635.933	11.92
636.055	13.92
636.177	10.92
636.299	22.92
636.421	2.92
636.544	7.92
636.666	13.92
636.788	4.92
636.91	9.92
637.032	7.92
637.154	16.92
637.276	29.92
637.398	17.92
637.52	34.92
637.642	21.92
637.764	19.92
637.887	1.92
638.009	6.92
638.131	5.92
638.253	3.92
638.375	10.92
638.497	14.92
638.619	3.92
638.741	17.92
638.863	-12.08
638.985	3.92
639.107	2.92
639.23	15.92
639.352	16.92
639.474	1.92
639.596	24.92
639.718	9.92
639.84	10.92
639.962	25.92
640.084	25.92
640.206	29.92
640.328	10.92
640.45	23.92
640.573	13.92
640.695	-4.08
640.817	10.92
640.939	12.92
641.061	3.92
641.183	17.92
641.305	10.92
641.427	1.92
641.549	20.92
641.671	9.92
641.793	20.92
641.915	19.92
642.038	7.92
642.16	8.92
642.282	14.92
642.404	5.92
642.526	12.92
642.648	10.92
642.77	22.92
642.892	8.92
643.014	24.92
643.136	13.92
643.258	19.92
643.381	29.92
643.503	32.92
643.625	-10.08
643.747	-8.08
643.869	8.92
643.991	14.92
644.113	3.92
644.235	9.92
644.357	22.92
644.479	30.92
644.601	9.92
644.723	14.92
644.846	24.92
644.968	23.92
645.09	2.92
645.212	11.92
645.334	6.92
645.456	-0.08
645.578	6.92
645.7	10.92
645.822	11.92
645.944	12.92
646.066	5.92
646.188	-4.08
646.311	9.92
646.433	8.92
646.555	35.92
646.677	23.92
646.799	8.92
646.921	-1.08
647.043	40.92
647.165	21.92
647.287	15.92
647.409	26.92
647.531	28.92
647.654	3.92
647.776	20.92
647.898	7.92
648.02	-0.08
648.142	3.92
648.264	-8.08
648.386	6.92
648.508	1.92
648.63	22.92
648.752	16.92
648.874	3.92
648.997	17.92
649.119	19.92
649.241	-1.08
649.363	22.92
649.485	14.92
649.607	4.92
649.729	14.92
649.851	17.92
649.973	12.92
650.095	17.92
650.217	1.92
650.34	3.92
650.462	5.92
650.584	13.92
650.706	27.92
650.828	25.92
650.95	-4.08
651.072	29.92
651.194	6.92
651.316	13.92
651.438	8.92
651.56	0.92
651.683	9.92
651.805	26.92
651.927	21.92
652.049	10.92
652.171	14.92
652.293	5.92
652.415	-3.08
652.537	5.92
652.659	-8.08
652.781	13.92
652.903	17.92
653.026	39.92
653.148	11.92
653.27	17.92
653.392	7.92
653.514	5.92
653.636	5.92
653.758	-11.08
653.88	-6.08
654.002	1.92
654.124	-2.08
654.247	-1.08
654.369	16.92
654.491	11.92
654.613	5.92
654.735	-0.08
654.857	17.92
654.979	-2.08
655.101	21.92
655.223	34.92
655.345	13.92
655.468	19.92
655.59	15.92
655.712	9.92
655.834	18.92
655.956	23.92
656.078	10.92
656.2	9.92
656.322	11.92
656.444	1.92
656.566	5.92
656.689	3.92
656.811	27.92
656.933	14.92
657.055	-20.08
657.177	1.92
657.299	4.92
657.421	2.92
657.543	9.92
657.665	11.92
657.787	13.92
657.91	12.92
658.032	4.92
658.154	-10.08
658.276	24.92
658.398	-9.08
658.52	29.92
658.642	14.92
658.764	18.92
658.886	-19.08
659.009	10.92
659.131	13.92
659.253	7.92
659.375	19.92
659.497	5.92
659.619	7.92
659.741	7.92
659.863	8.92
659.985	1.92
660.108	1.92
660.23	10.92
660.352	-8.08
660.474	2.92
660.596	11.92
660.718	26.92
660.84	8.92
660.962	23.92
661.084	10.92
661.207	17.92
661.329	21.92
661.451	4.92
661.573	-1.08
661.695	21.92
661.817	9.92
661.939	27.92
662.061	29.92
662.184	10.92
662.306	-4.08
662.428	8.92
662.55	21.92
662.672	-2.08
662.794	1.92
662.916	-0.08
663.038	15.92
663.161	12.92
663.283	2.92
663.405	15.92
663.527	8.92
663.649	8.92
663.771	-0.08
663.893	11.92
664.015	3.92
664.138	-1.08
664.26	15.92
664.382	11.92
664.504	-3.08
664.626	-4.08
664.748	14.92
664.87	1.92
664.992	14.92
665.115	16.92
665.237	4.92
665.359	-5.08
665.481	10.92
665.603	2.92
665.725	2.92
665.847	-9.08
665.97	2.92
666.092	13.92
666.214	3.92
666.336	11.92
666.458	18.92
666.58	15.92
666.702	2.92
666.825	-5.08
666.947	-18.08
667.069	9.92
667.191	2.92
667.313	13.92
667.435	-15.08
667.557	-10.08
667.68	-2.08
667.802	19.92
667.924	2.92
668.046	8.92
668.168	11.92
668.29	24.92
668.412	12.92
668.535	1.92
668.657	-1.08
668.779	2.92
668.901	-2.08
669.023	1.92
669.145	7.92
669.267	29.92
669.39	19.92
669.512	16.92
669.634	5.92
669.756	-0.08
669.878	14.92
670	13.92
670.123	-8.08
670.245	1.92
670.367	17.92
670.489	22.92
670.611	5.92
670.733	-2.08
670.856	2.92
670.978	22.92
671.1	17.92
671.222	9.92
671.344	12.92
671.466	-1.08
671.589	-6.08
671.711	2.92
671.833	-9.08
671.955	-6.08
672.077	-0.08
672.199	30.92
672.322	18.92
672.444	19.92
672.566	16.92
672.688	6.92
672.81	22.92
672.932	12.92
673.055	4.92
673.177	2.92
673.299	9.92
673.421	-2.08
673.543	15.92
673.665	29.92
673.788	13.92
673.91	-3.08
674.032	-12.08
674.154	4.92
674.276	7.92
674.399	-12.08
674.521	-2.08
674.643	7.92
674.765	4.92
674.887	5.92
675.009	11.92
675.132	-0.08
675.254	11.92
675.376	12.92
675.498	18.92
675.62	26.92
675.743	8.92
675.865	19.92
675.987	19.92
676.109	15.92
676.231	18.92
676.354	35.92
676.476	13.92
676.598	8.92
676.72	5.92
676.842	14.92
676.965	19.92
677.087	7.92
677.209	5.92
677.331	19.92
677.453	2.92
677.576	8.92
677.698	-12.08
677.82	11.92
677.942	-1.08
678.064	-11.08
678.187	5.92
678.309	-7.08
678.431	-18.08
678.553	9.92
678.675	20.92
678.798	24.92
678.92	2.92
679.042	6.92
679.164	9.92
679.286	20.92
679.409	9.92
679.531	-12.08
679.653	-3.08
679.775	5.92
679.898	-13.08
680.02	-0.08
680.142	-3.08
680.264	11.92
680.386	8.92
680.509	17.92
680.631	9.92
680.753	21.92
680.875	8.92
680.998	14.92
681.12	9.92
681.242	5.92
681.364	-0.08
681.486	1.92
681.609	-6.08
681.731	-2.08
681.853	-0.08
681.975	23.92
682.098	33.92
682.22	46.92
682.342	10.92
682.464	7.92
682.587	7.92
682.709	5.92
682.831	-7.08
682.953	-1.08
683.076	4.92
683.198	9.92
683.32	9.92
683.442	13.92
683.565	9.92
683.687	2.92
683.809	22.92
683.931	4.92
684.054	5.92
684.176	2.92
684.298	3.92
684.42	-8.08
684.543	11.92
684.665	12.92
684.787	12.92
684.909	-10.08
685.032	19.92
685.154	-3.08
685.276	-4.08
685.398	15.92
685.521	-7.08
685.643	3.92
685.765	0.92
685.887	3.92
686.01	3.92
686.132	17.92
686.254	27.92
686.377	5.92
686.499	2.92
686.621	26.92
686.743	24.92
686.866	-4.08
686.988	32.92
687.11	27.92
687.232	14.92
687.355	7.92
687.477	14.92
687.599	17.92
687.722	5.92
687.844	-2.08
687.966	5.92
688.088	18.92
688.211	33.92
688.333	13.92
688.455	4.92
688.578	10.92
688.7	30.92
688.822	5.92
688.944	-4.08
689.067	39.92
689.189	1.92
689.311	5.92
689.434	14.92
689.556	9.92
689.678	6.92
689.801	10.92
689.923	14.92
690.045	21.92
690.167	34.92
690.29	10.92
690.412	4.92
690.534	11.92
690.657	-2.08
690.779	-3.08
690.901	6.92
691.024	19.92
691.146	7.92
691.268	1.92
691.391	18.92
691.513	21.92
691.635	3.92
691.758	19.92
691.88	20.92
692.002	8.92
692.125	9.92
692.247	4.92
692.369	-0.08
692.492	3.92
692.614	23.92
692.736	17.92
692.859	11.92
692.981	-5.08
693.103	-2.08
693.226	9.92
693.348	33.92
693.47	13.92
693.593	37.92
693.715	43.92
693.837	29.92
693.96	7.92
694.082	1.92
694.204	-4.08
694.327	12.92
694.449	-2.08
694.571	15.92
694.694	24.92
694.816	9.92
694.938	-4.08
695.061	1.92
695.183	10.92
695.305	3.92
695.428	12.92
695.55	10.92
695.672	-1.08
695.795	2.92
695.917	11.92
696.04	-0.08
696.162	-4.08
696.284	6.92
696.407	-3.08
696.529	11.92
696.651	31.92
696.774	-1.08
696.896	18.92
697.019	10.92
697.141	4.92
697.263	14.92
697.386	6.92
697.508	6.92
697.63	3.92
697.753	10.92
697.875	3.92
697.998	11.92
698.12	20.92
698.242	7.92
698.365	4.92
698.487	8.92
698.61	9.92
698.732	18.92
698.854	29.92
698.977	13.92
699.099	16.92
699.221	-16.08
699.344	-6.08
699.466	-2.08
699.589	0.92
699.711	11.92
699.834	1.92
699.956	18.92
700.078	16.92
700.201	-2.08
700.323	33.92
700.446	21.92
700.568	2.92
700.69	3.92
700.813	10.92
700.935	3.92
701.058	3.92
701.18	19.92
701.302	26.92
701.425	5.92
701.547	10.92
701.67	0.92
701.792	20.92
701.915	6.92
702.037	1.92
702.159	-0.08
702.282	5.92
702.404	-8.08
702.527	10.92
702.649	43.92
702.772	19.92
702.894	1.92
703.017	31.92
703.139	16.92
703.261	29.92
703.384	9.92
703.506	2.92
703.629	14.92
703.751	23.92
703.874	19.92
703.996	13.92
704.119	10.92
704.241	4.92
704.364	-10.08
704.486	2.92
704.608	11.92
704.731	17.92
704.853	9.92
704.976	6.92
705.098	30.92
705.221	14.92
705.343	11.92
705.466	22.92
705.588	13.92
705.711	16.92
705.833	-1.08
705.956	3.92
706.078	25.92
706.201	16.92
706.323	-2.08
706.446	6.92
