Data from LowRes_mercury_15_20_11_07_2024_HR4C61881__12__15-23-33-471.txt Node

Date: Thu Nov 07 15:23:33 EST 2024
User: crc00042
Spectrometer: HR4C6188
Trigger mode: 4
Integration Time (sec): 1.000000E-1
Scans to average: 1
Electric dark correction enabled: true
Nonlinearity correction enabled: false
Boxcar width: 0
XAxis mode: Wavelengths
Number of Pixels in Spectrum: 3648
>>>>>Begin Spectral Data<<<<<
245.66	-55.92
245.797	-55.92
245.934	-55.92
246.071	-64.92
246.208	7.08
246.344	-6.92
246.481	-9.92
246.618	-13.92
246.755	-4.92
246.892	-4.92
247.029	-22.92
247.165	-10.92
247.302	12.08
247.439	18.08
247.576	1.08
247.713	5.08
247.849	26.08
247.986	12.08
248.123	5.08
248.26	-15.92
248.396	18.08
248.533	0.08
248.67	-3.92
248.806	5.08
248.943	-18.92
249.08	-10.92
249.216	20.08
249.353	-19.92
249.49	-8.92
249.626	-8.92
249.763	-27.92
249.9	-7.92
250.036	9.08
250.173	19.08
250.309	12.08
250.446	-17.92
250.582	-7.92
250.719	-30.92
250.856	-13.92
250.992	3.08
251.129	-2.92
251.265	5.08
251.402	-12.92
251.538	-0.92
251.675	12.08
251.811	19.08
251.948	19.08
252.084	-13.92
252.221	-3.92
252.357	4.08
252.493	26.08
252.63	5.08
252.766	10.08
252.903	-16.92
253.039	-9.92
253.175	3.08
253.312	7.08
253.448	-10.92
253.585	-19.92
253.721	11.08
253.857	-14.92
253.994	3.08
254.13	-0.92
254.266	12.08
254.403	6.08
254.539	14.08
254.675	-7.92
254.811	-1.92
254.948	-7.92
255.084	-9.92
255.22	-1.92
255.356	-17.92
255.493	-9.92
255.629	2.08
255.765	-2.92
255.901	-5.92
256.037	7.08
256.174	3.08
256.31	-2.92
256.446	20.08
256.582	9.08
256.718	-6.92
256.854	34.08
256.991	28.08
257.127	8.08
257.263	-9.92
257.399	-7.92
257.535	3.08
257.671	-8.92
257.807	-17.92
257.943	-16.92
258.079	-5.92
258.215	21.08
258.351	20.08
258.487	-4.92
258.623	23.08
258.759	-7.92
258.895	-3.92
259.031	11.08
259.167	-5.92
259.303	4.08
259.439	2.08
259.575	-1.92
259.711	-7.92
259.847	-13.92
259.983	9.08
260.119	-6.92
260.255	-15.92
260.391	-3.92
260.527	13.08
260.663	10.08
260.799	3.08
260.934	-7.92
261.07	-10.92
261.206	-27.92
261.342	-28.92
261.478	-2.92
261.614	20.08
261.749	8.08
261.885	13.08
262.021	13.08
262.157	11.08
262.293	5.08
262.428	-15.92
262.564	-3.92
262.7	13.08
262.836	5.08
262.971	24.08
263.107	15.08
263.243	5.08
263.378	0.08
263.514	-5.92
263.65	8.08
263.785	-20.92
263.921	1.08
264.057	-7.92
264.192	4.08
264.328	-5.92
264.464	-6.92
264.599	15.08
264.735	16.08
264.871	-16.92
265.006	-2.92
265.142	-0.92
265.277	-7.92
265.413	4.08
265.548	2.08
265.684	13.08
265.819	-17.92
265.955	-15.92
266.091	-11.92
266.226	-6.92
266.362	-10.92
266.497	4.08
266.633	-5.92
266.768	7.08
266.903	4.08
267.039	26.08
267.174	25.08
267.31	-0.92
267.445	-9.92
267.581	-16.92
267.716	1.08
267.851	1.08
267.987	10.08
268.122	19.08
268.258	9.08
268.393	3.08
268.528	-2.92
268.664	0.08
268.799	-7.92
268.934	11.08
269.07	-10.92
269.205	11.08
269.34	25.08
269.476	22.08
269.611	1.08
269.746	26.08
269.881	27.08
270.017	24.08
270.152	9.08
270.287	8.08
270.422	1.08
270.558	-11.92
270.693	25.08
270.828	-8.92
270.963	4.08
271.098	-14.92
271.234	-5.92
271.369	10.08
271.504	-6.92
271.639	-11.92
271.774	-18.92
271.909	-2.92
272.045	-38.92
272.18	-11.92
272.315	-0.92
272.45	14.08
272.585	-9.92
272.72	5.08
272.855	3.08
272.99	11.08
273.125	1.08
273.26	-18.92
273.395	-15.92
273.53	-27.92
273.665	27.08
273.8	8.08
273.935	-4.92
274.07	-9.92
274.205	3.08
274.34	1.08
274.475	11.08
274.61	11.08
274.745	-16.92
274.88	21.08
275.015	-23.92
275.15	0.08
275.285	13.08
275.42	0.08
275.555	21.08
275.69	13.08
275.825	2.08
275.959	14.08
276.094	3.08
276.229	-1.92
276.364	-7.92
276.499	7.08
276.634	-25.92
276.768	5.08
276.903	-0.92
277.038	8.08
277.173	6.08
277.308	-10.92
277.442	-10.92
277.577	-2.92
277.712	2.08
277.847	9.08
277.981	22.08
278.116	-14.92
278.251	6.08
278.386	6.08
278.52	15.08
278.655	14.08
278.79	15.08
278.924	-5.92
279.059	9.08
279.194	-10.92
279.328	27.08
279.463	15.08
279.598	30.08
279.732	8.08
279.867	-3.92
280.001	15.08
280.136	-2.92
280.271	11.08
280.405	13.08
280.54	-2.92
280.674	3.08
280.809	23.08
280.943	8.08
281.078	11.08
281.213	10.08
281.347	0.08
281.482	9.08
281.616	3.08
281.751	-6.92
281.885	-15.92
282.02	-10.92
282.154	6.08
282.288	-16.92
282.423	-9.92
282.557	-3.92
282.692	-5.92
282.826	12.08
282.961	22.08
283.095	4.08
283.229	-0.92
283.364	-7.92
283.498	2.08
283.633	7.08
283.767	4.08
283.901	-0.92
284.036	1.08
284.17	7.08
284.304	3.08
284.439	3.08
284.573	0.08
284.707	10.08
284.842	9.08
284.976	-3.92
285.11	0.08
285.244	-2.92
285.379	28.08
285.513	-11.92
285.647	18.08
285.781	10.08
285.916	14.08
286.05	13.08
286.184	13.08
286.318	4.08
286.453	-18.92
286.587	-16.92
286.721	-10.92
286.855	10.08
286.989	15.08
287.123	-1.92
287.258	-6.92
287.392	-4.92
287.526	-12.92
287.66	-5.92
287.794	-11.92
287.928	19.08
288.062	10.08
288.196	1.08
288.33	11.08
288.464	11.08
288.598	1.08
288.733	-1.92
288.867	16.08
289.001	17.08
289.135	7.08
289.269	1.08
289.403	8.08
289.537	21.08
289.671	16.08
289.805	-13.92
289.939	20.08
290.073	-2.92
290.207	6.08
290.34	1.08
290.474	20.08
290.608	18.08
290.742	-10.92
290.876	-1.92
291.01	-3.92
291.144	16.08
291.278	8.08
291.412	8.08
291.546	3.08
291.679	4.08
291.813	2.08
291.947	-11.92
292.081	-12.92
292.215	6.08
292.349	11.08
292.482	14.08
292.616	-1.92
292.75	15.08
292.884	-2.92
293.018	-7.92
293.151	-19.92
293.285	-6.92
293.419	0.08
293.553	9.08
293.686	-7.92
293.82	-4.92
293.954	14.08
294.088	31.08
294.221	9.08
294.355	-0.92
294.489	-4.92
294.622	-1.92
294.756	-2.92
294.89	2.08
295.023	14.08
295.157	6.08
295.291	16.08
295.424	11.08
295.558	5.08
295.691	-0.92
295.825	10.08
295.959	9.08
296.092	-0.92
296.226	0.08
296.359	-2.92
296.493	-3.92
296.627	0.08
296.76	5.08
296.894	-20.92
297.027	-2.92
297.161	-2.92
297.294	-19.92
297.428	-11.92
297.561	11.08
297.695	-11.92
297.828	-7.92
297.962	8.08
298.095	-25.92
298.229	-3.92
298.362	-30.92
298.495	-10.92
298.629	-14.92
298.762	1.08
298.896	-3.92
299.029	-6.92
299.162	0.08
299.296	15.08
299.429	12.08
299.563	14.08
299.696	8.08
299.829	-0.92
299.963	22.08
300.096	8.08
300.229	8.08
300.363	11.08
300.496	0.08
300.629	-7.92
300.763	-20.92
300.896	-2.92
301.029	8.08
301.162	5.08
301.296	-11.92
301.429	6.08
301.562	-15.92
301.695	8.08
301.829	5.08
301.962	31.08
302.095	4.08
302.228	-5.92
302.362	1.08
302.495	-2.92
302.628	1.08
302.761	-0.92
302.894	-12.92
303.027	-1.92
303.161	-12.92
303.294	-20.92
303.427	15.08
303.56	-5.92
303.693	7.08
303.826	-0.92
303.959	-5.92
304.092	5.08
304.225	-14.92
304.359	20.08
304.492	-3.92
304.625	-14.92
304.758	22.08
304.891	-0.92
305.024	-4.92
305.157	5.08
305.29	-10.92
305.423	-21.92
305.556	19.08
305.689	21.08
305.822	6.08
305.955	-17.92
306.088	-9.92
306.221	2.08
306.354	-3.92
306.487	-3.92
306.62	-10.92
306.752	4.08
306.885	5.08
307.018	-9.92
307.151	-9.92
307.284	-2.92
307.417	0.08
307.55	15.08
307.683	7.08
307.816	17.08
307.948	-11.92
308.081	7.08
308.214	10.08
308.347	12.08
308.48	3.08
308.613	-5.92
308.745	-0.92
308.878	-0.92
309.011	9.08
309.144	-1.92
309.277	-3.92
309.409	15.08
309.542	5.08
309.675	17.08
309.808	3.08
309.94	10.08
310.073	-22.92
310.206	1.08
310.339	17.08
310.471	-19.92
310.604	18.08
310.737	5.08
310.869	12.08
311.002	-3.92
311.135	-3.92
311.267	-5.92
311.4	-6.92
311.533	20.08
311.665	-6.92
311.798	1.08
311.93	-7.92
312.063	18.08
312.196	37.08
312.328	75.08
312.461	49.08
312.593	15.08
312.726	57.08
312.859	93.08
312.991	177.08
313.124	60.08
313.256	37.08
313.389	8.08
313.521	1.08
313.654	-4.92
313.786	-0.92
313.919	-13.92
314.051	-8.92
314.184	10.08
314.316	29.08
314.449	-13.92
314.581	-6.92
314.714	-8.92
314.846	-2.92
314.978	-20.92
315.111	1.08
315.243	28.08
315.376	10.08
315.508	11.08
315.641	-2.92
315.773	33.08
315.905	13.08
316.038	8.08
316.17	5.08
316.302	5.08
316.435	15.08
316.567	-7.92
316.699	15.08
316.832	4.08
316.964	5.08
317.096	1.08
317.229	-0.92
317.361	-17.92
317.493	-2.92
317.625	-2.92
317.758	-8.92
317.89	12.08
318.022	0.08
318.155	-10.92
318.287	-2.92
318.419	25.08
318.551	0.08
318.683	10.08
318.816	5.08
318.948	-7.92
319.08	-3.92
319.212	-8.92
319.344	7.08
319.477	0.08
319.609	5.08
319.741	-3.92
319.873	0.08
320.005	8.08
320.137	-4.92
320.269	0.08
320.401	9.08
320.534	7.08
320.666	-11.92
320.798	0.08
320.93	4.08
321.062	-5.92
321.194	-6.92
321.326	4.08
321.458	17.08
321.59	9.08
321.722	-5.92
321.854	1.08
321.986	17.08
322.118	25.08
322.25	-21.92
322.382	26.08
322.514	-10.92
322.646	-4.92
322.778	7.08
322.91	-23.92
323.042	4.08
323.174	6.08
323.306	-0.92
323.438	-14.92
323.57	-17.92
323.702	18.08
323.834	-7.92
323.966	-25.92
324.097	2.08
324.229	17.08
324.361	-8.92
324.493	3.08
324.625	-8.92
324.757	9.08
324.889	3.08
325.021	16.08
325.152	16.08
325.284	17.08
325.416	2.08
325.548	23.08
325.68	-1.92
325.811	20.08
325.943	0.08
326.075	-7.92
326.207	10.08
326.339	5.08
326.47	3.08
326.602	10.08
326.734	13.08
326.866	24.08
326.997	-22.92
327.129	-9.92
327.261	-24.92
327.392	5.08
327.524	-3.92
327.656	-1.92
327.787	13.08
327.919	19.08
328.051	6.08
328.182	13.08
328.314	39.08
328.446	-7.92
328.577	-2.92
328.709	15.08
328.841	-20.92
328.972	-23.92
329.104	-8.92
329.235	7.08
329.367	-9.92
329.499	19.08
329.63	-4.92
329.762	9.08
329.893	31.08
330.025	1.08
330.156	1.08
330.288	12.08
330.419	18.08
330.551	20.08
330.683	-2.92
330.814	-9.92
330.946	13.08
331.077	-1.92
331.208	-13.92
331.34	-5.92
331.471	-4.92
331.603	7.08
331.734	-16.92
331.866	9.08
331.997	-2.92
332.129	-0.92
332.26	5.08
332.392	16.08
332.523	-8.92
332.654	-4.92
332.786	-7.92
332.917	-0.92
333.048	15.08
333.18	27.08
333.311	-15.92
333.443	2.08
333.574	11.08
333.705	14.08
333.837	42.08
333.968	123.08
334.099	215.08
334.231	196.08
334.362	57.08
334.493	58.08
334.624	31.08
334.756	16.08
334.887	5.08
335.018	8.08
335.15	7.08
335.281	-2.92
335.412	7.08
335.543	11.08
335.675	-4.92
335.806	8.08
335.937	-10.92
336.068	14.08
336.199	49.08
336.331	0.08
336.462	26.08
336.593	25.08
336.724	-3.92
336.855	25.08
336.986	11.08
337.118	12.08
337.249	17.08
337.38	11.08
337.511	17.08
337.642	15.08
337.773	1.08
337.904	2.08
338.035	4.08
338.166	-7.92
338.298	5.08
338.429	-6.92
338.56	20.08
338.691	19.08
338.822	12.08
338.953	4.08
339.084	33.08
339.215	26.08
339.346	10.08
339.477	1.08
339.608	-3.92
339.739	-0.92
339.87	11.08
340.001	-4.92
340.132	11.08
340.263	4.08
340.394	23.08
340.525	6.08
340.656	-2.92
340.787	-10.92
340.918	27.08
341.049	35.08
341.179	7.08
341.31	19.08
341.441	23.08
341.572	26.08
341.703	25.08
341.834	4.08
341.965	36.08
342.096	-1.92
342.227	30.08
342.357	16.08
342.488	13.08
342.619	20.08
342.75	10.08
342.881	11.08
343.012	42.08
343.142	42.08
343.273	14.08
343.404	18.08
343.535	44.08
343.666	31.08
343.796	26.08
343.927	20.08
344.058	39.08
344.189	25.08
344.319	13.08
344.45	24.08
344.581	31.08
344.712	24.08
344.842	23.08
344.973	26.08
345.104	19.08
345.234	19.08
345.365	21.08
345.496	19.08
345.626	41.08
345.757	38.08
345.888	14.08
346.018	32.08
346.149	23.08
346.28	29.08
346.41	19.08
346.541	22.08
346.672	4.08
346.802	33.08
346.933	31.08
347.063	23.08
347.194	32.08
347.325	33.08
347.455	40.08
347.586	34.08
347.716	26.08
347.847	34.08
347.977	29.08
348.108	37.08
348.238	47.08
348.369	42.08
348.499	52.08
348.63	38.08
348.76	51.08
348.891	56.08
349.021	40.08
349.152	61.08
349.282	51.08
349.413	33.08
349.543	55.08
349.674	10.08
349.804	29.08
349.935	27.08
350.065	36.08
350.196	16.08
350.326	22.08
350.456	19.08
350.587	21.08
350.717	29.08
350.848	21.08
350.978	36.08
351.108	11.08
351.239	36.08
351.369	9.08
351.499	20.08
351.63	-0.92
351.76	4.08
351.89	14.08
352.021	19.08
352.151	19.08
352.281	23.08
352.412	15.08
352.542	37.08
352.672	28.08
352.803	21.08
352.933	27.08
353.063	13.08
353.193	22.08
353.324	25.08
353.454	23.08
353.584	20.08
353.714	28.08
353.845	22.08
353.975	8.08
354.105	16.08
354.235	22.08
354.365	39.08
354.496	27.08
354.626	20.08
354.756	20.08
354.886	31.08
355.016	30.08
355.146	13.08
355.277	21.08
355.407	22.08
355.537	34.08
355.667	22.08
355.797	29.08
355.927	26.08
356.057	15.08
356.187	0.08
356.318	20.08
356.448	29.08
356.578	31.08
356.708	19.08
356.838	25.08
356.968	33.08
357.098	37.08
357.228	44.08
357.358	37.08
357.488	9.08
357.618	46.08
357.748	44.08
357.878	25.08
358.008	19.08
358.138	16.08
358.268	20.08
358.398	38.08
358.528	22.08
358.658	21.08
358.788	17.08
358.918	20.08
359.048	31.08
359.178	45.08
359.308	24.08
359.438	40.08
359.568	36.08
359.698	35.08
359.827	14.08
359.957	22.08
360.087	18.08
360.217	31.08
360.347	31.08
360.477	27.08
360.607	10.08
360.737	61.08
360.866	33.08
360.996	-1.92
361.126	15.08
361.256	38.08
361.386	38.08
361.516	50.08
361.645	0.08
361.775	41.08
361.905	24.08
362.035	22.08
362.165	38.08
362.294	48.08
362.424	39.08
362.554	58.08
362.684	21.08
362.813	36.08
362.943	58.08
363.073	54.08
363.203	52.08
363.332	81.08
363.462	63.08
363.592	92.08
363.721	117.08
363.851	157.08
363.981	223.08
364.111	249.08
364.24	325.08
364.37	496.08
364.5	853.08
364.629	1826.08
364.759	3894.08
364.888	6406.08
365.018	9490.08
365.148	14858.08
365.277	13125.08
365.407	4846.08
365.537	3163.08
365.666	4159.08
365.796	1854.08
365.925	815.08
366.055	765.08
366.184	1049.08
366.314	1416.08
366.444	2489.08
366.573	2142.08
366.703	659.08
366.832	221.08
366.962	132.08
367.091	104.08
367.221	72.08
367.35	59.08
367.48	90.08
367.609	60.08
367.739	49.08
367.868	26.08
367.998	44.08
368.127	55.08
368.257	58.08
368.386	36.08
368.516	42.08
368.645	43.08
368.775	53.08
368.904	35.08
369.033	25.08
369.163	28.08
369.292	71.08
369.422	52.08
369.551	51.08
369.68	45.08
369.81	56.08
369.939	45.08
370.069	51.08
370.198	32.08
370.327	24.08
370.457	37.08
370.586	54.08
370.715	53.08
370.845	32.08
370.974	31.08
371.103	61.08
371.233	59.08
371.362	47.08
371.491	29.08
371.621	61.08
371.75	44.08
371.879	45.08
372.008	49.08
372.138	48.08
372.267	46.08
372.396	56.08
372.525	35.08
372.655	39.08
372.784	15.08
372.913	30.08
373.042	29.08
373.172	39.08
373.301	-8.92
373.43	19.08
373.559	9.08
373.688	12.08
373.818	24.08
373.947	34.08
374.076	14.08
374.205	25.08
374.334	18.08
374.463	19.08
374.593	20.08
374.722	19.08
374.851	23.08
374.98	20.08
375.109	16.08
375.238	33.08
375.367	41.08
375.496	-5.92
375.625	8.08
375.755	27.08
375.884	40.08
376.013	28.08
376.142	1.08
376.271	1.08
376.4	23.08
376.529	13.08
376.658	23.08
376.787	21.08
376.916	19.08
377.045	15.08
377.174	21.08
377.303	9.08
377.432	33.08
377.561	33.08
377.69	12.08
377.819	27.08
377.948	16.08
378.077	14.08
378.206	-0.92
378.335	10.08
378.464	1.08
378.593	39.08
378.722	14.08
378.851	9.08
378.98	22.08
379.108	22.08
379.237	9.08
379.366	24.08
379.495	21.08
379.624	12.08
379.753	35.08
379.882	19.08
380.011	10.08
380.14	15.08
380.268	31.08
380.397	12.08
380.526	39.08
380.655	15.08
380.784	-4.92
380.913	7.08
381.041	12.08
381.17	13.08
381.299	10.08
381.428	21.08
381.557	0.08
381.685	0.08
381.814	3.08
381.943	12.08
382.072	7.08
382.2	23.08
382.329	31.08
382.458	13.08
382.587	37.08
382.715	33.08
382.844	15.08
382.973	41.08
383.102	17.08
383.23	18.08
383.359	3.08
383.488	3.08
383.616	16.08
383.745	0.08
383.874	23.08
384.003	5.08
384.131	16.08
384.26	6.08
384.389	29.08
384.517	6.08
384.646	2.08
384.774	23.08
384.903	32.08
385.032	29.08
385.16	4.08
385.289	9.08
385.418	12.08
385.546	29.08
385.675	36.08
385.803	26.08
385.932	32.08
386.06	7.08
386.189	16.08
386.318	15.08
386.446	19.08
386.575	28.08
386.703	17.08
386.832	4.08
386.96	-10.92
387.089	34.08
387.217	5.08
387.346	13.08
387.474	14.08
387.603	8.08
387.731	23.08
387.86	37.08
387.988	16.08
388.117	33.08
388.245	14.08
388.374	12.08
388.502	16.08
388.631	8.08
388.759	11.08
388.888	28.08
389.016	35.08
389.144	24.08
389.273	10.08
389.401	25.08
389.53	0.08
389.658	29.08
389.786	17.08
389.915	26.08
390.043	24.08
390.172	13.08
390.3	26.08
390.428	37.08
390.557	16.08
390.685	28.08
390.813	48.08
390.942	41.08
391.07	19.08
391.198	-1.92
391.327	20.08
391.455	-0.92
391.583	28.08
391.712	28.08
391.84	20.08
391.968	30.08
392.096	19.08
392.225	11.08
392.353	20.08
392.481	24.08
392.609	36.08
392.738	17.08
392.866	35.08
392.994	15.08
393.122	43.08
393.251	26.08
393.379	9.08
393.507	11.08
393.635	15.08
393.764	46.08
393.892	43.08
394.02	24.08
394.148	29.08
394.276	31.08
394.404	49.08
394.533	14.08
394.661	31.08
394.789	21.08
394.917	50.08
395.045	24.08
395.173	14.08
395.302	15.08
395.43	27.08
395.558	41.08
395.686	12.08
395.814	32.08
395.942	14.08
396.07	23.08
396.198	35.08
396.326	34.08
396.454	44.08
396.582	24.08
396.711	32.08
396.839	33.08
396.967	17.08
397.095	15.08
397.223	16.08
397.351	58.08
397.479	37.08
397.607	26.08
397.735	53.08
397.863	40.08
397.991	44.08
398.119	22.08
398.247	45.08
398.375	52.08
398.503	50.08
398.631	56.08
398.759	57.08
398.887	75.08
399.015	49.08
399.143	44.08
399.271	73.08
399.399	79.08
399.526	58.08
399.654	86.08
399.782	59.08
399.91	94.08
400.038	89.08
400.166	86.08
400.294	97.08
400.422	73.08
400.55	95.08
400.678	107.08
400.805	97.08
400.933	120.08
401.061	112.08
401.189	134.08
401.317	169.08
401.445	115.08
401.573	72.08
401.7	56.08
401.828	60.08
401.956	56.08
402.084	45.08
402.212	37.08
402.34	44.08
402.467	30.08
402.595	30.08
402.723	30.08
402.851	64.08
402.978	70.08
403.106	72.08
403.234	83.08
403.362	116.08
403.489	125.08
403.617	165.08
403.745	207.08
403.873	304.08
404	585.08
404.128	1512.08
404.256	3914.08
404.384	5178.08
404.511	5580.08
404.639	7336.08
404.767	11639.08
404.894	14705.08
405.022	4958.08
405.15	1321.08
405.277	421.08
405.405	241.08
405.533	122.08
405.66	121.08
405.788	59.08
405.916	88.08
406.043	53.08
406.171	76.08
406.299	49.08
406.426	63.08
406.554	58.08
406.681	63.08
406.809	60.08
406.937	63.08
407.064	82.08
407.192	153.08
407.319	306.08
407.447	538.08
407.574	572.08
407.702	643.08
407.83	852.08
407.957	1592.08
408.085	951.08
408.212	277.08
408.34	118.08
408.467	73.08
408.595	50.08
408.722	56.08
408.85	48.08
408.977	28.08
409.105	29.08
409.232	20.08
409.36	24.08
409.487	47.08
409.615	20.08
409.742	19.08
409.87	45.08
409.997	26.08
410.125	40.08
410.252	51.08
410.379	20.08
410.507	29.08
410.634	34.08
410.762	27.08
410.889	36.08
411.017	38.08
411.144	35.08
411.271	46.08
411.399	34.08
411.526	23.08
411.653	32.08
411.781	42.08
411.908	22.08
412.036	33.08
412.163	41.08
412.29	34.08
412.418	22.08
412.545	24.08
412.672	25.08
412.8	69.08
412.927	29.08
413.054	34.08
413.182	35.08
413.309	25.08
413.436	20.08
413.564	20.08
413.691	28.08
413.818	64.08
413.945	21.08
414.073	22.08
414.2	22.08
414.327	32.08
414.454	27.08
414.582	18.08
414.709	-12.92
414.836	24.08
414.963	32.08
415.091	30.08
415.218	28.08
415.345	27.08
415.472	31.08
415.6	15.08
415.727	19.08
415.854	28.08
415.981	26.08
416.108	14.08
416.236	29.08
416.363	31.08
416.49	23.08
416.617	29.08
416.744	52.08
416.871	45.08
416.998	30.08
417.126	18.08
417.253	12.08
417.38	26.08
417.507	17.08
417.634	29.08
417.761	23.08
417.888	33.08
418.015	34.08
418.143	37.08
418.27	57.08
418.397	27.08
418.524	29.08
418.651	19.08
418.778	39.08
418.905	60.08
419.032	41.08
419.159	58.08
419.286	56.08
419.413	48.08
419.54	49.08
419.667	19.08
419.794	27.08
419.921	48.08
420.048	43.08
420.175	51.08
420.302	32.08
420.429	60.08
420.556	63.08
420.683	73.08
420.81	43.08
420.937	43.08
421.064	58.08
421.191	42.08
421.318	57.08
421.445	73.08
421.572	54.08
421.699	63.08
421.826	45.08
421.953	36.08
422.08	12.08
422.207	5.08
422.334	1.08
422.461	22.08
422.588	14.08
422.714	14.08
422.841	30.08
422.968	28.08
423.095	14.08
423.222	18.08
423.349	23.08
423.476	42.08
423.603	20.08
423.729	17.08
423.856	21.08
423.983	45.08
424.11	11.08
424.237	13.08
424.364	16.08
424.491	23.08
424.617	10.08
424.744	1.08
424.871	13.08
424.998	7.08
425.125	15.08
425.251	27.08
425.378	8.08
425.505	17.08
425.632	13.08
425.758	3.08
425.885	23.08
426.012	25.08
426.139	32.08
426.266	21.08
426.392	31.08
426.519	40.08
426.646	31.08
426.772	25.08
426.899	15.08
427.026	20.08
427.153	17.08
427.279	37.08
427.406	39.08
427.533	27.08
427.659	29.08
427.786	34.08
427.913	22.08
428.039	24.08
428.166	10.08
428.293	12.08
428.419	15.08
428.546	36.08
428.673	3.08
428.799	27.08
428.926	26.08
429.053	41.08
429.179	42.08
429.306	21.08
429.433	35.08
429.559	34.08
429.686	21.08
429.812	29.08
429.939	20.08
430.066	29.08
430.192	13.08
430.319	17.08
430.445	28.08
430.572	31.08
430.699	10.08
430.825	6.08
430.952	14.08
431.078	29.08
431.205	43.08
431.331	22.08
431.458	29.08
431.584	32.08
431.711	35.08
431.837	22.08
431.964	28.08
432.09	19.08
432.217	6.08
432.343	20.08
432.47	35.08
432.596	12.08
432.723	14.08
432.849	7.08
432.976	24.08
433.102	33.08
433.229	31.08
433.355	54.08
433.482	73.08
433.608	99.08
433.735	105.08
433.861	110.08
433.987	161.08
434.114	206.08
434.24	192.08
434.367	229.08
434.493	220.08
434.62	285.08
434.746	379.08
434.872	608.08
434.999	829.08
435.125	1758.08
435.252	5571.08
435.378	13472.08
435.504	15257.08
435.631	15464.08
435.757	15682.08
435.883	15682.08
436.01	15682.08
436.136	15682.08
436.262	15682.08
436.389	3544.08
436.515	2589.08
436.641	886.08
436.768	641.08
436.894	421.08
437.02	427.08
437.147	290.08
437.273	319.08
437.399	206.08
437.526	276.08
437.652	180.08
437.778	191.08
437.904	151.08
438.031	161.08
438.157	136.08
438.283	168.08
438.409	108.08
438.536	133.08
438.662	131.08
438.788	128.08
438.914	109.08
439.041	128.08
439.167	132.08
439.293	103.08
439.419	74.08
439.546	103.08
439.672	88.08
439.798	104.08
439.924	91.08
440.05	85.08
440.177	76.08
440.303	68.08
440.429	62.08
440.555	92.08
440.681	44.08
440.807	75.08
440.934	57.08
441.06	55.08
441.186	57.08
441.312	56.08
441.438	29.08
441.564	77.08
441.69	65.08
441.816	50.08
441.943	47.08
442.069	67.08
442.195	51.08
442.321	62.08
442.447	41.08
442.573	51.08
442.699	32.08
442.825	34.08
442.951	52.08
443.077	63.08
443.203	42.08
443.33	33.08
443.456	40.08
443.582	48.08
443.708	39.08
443.834	65.08
443.96	60.08
444.086	49.08
444.212	59.08
444.338	71.08
444.464	65.08
444.59	60.08
444.716	37.08
444.842	41.08
444.968	24.08
445.094	29.08
445.22	14.08
445.346	25.08
445.472	41.08
445.598	46.08
445.724	29.08
445.85	29.08
445.976	41.08
446.102	47.08
446.228	54.08
446.354	35.08
446.48	13.08
446.605	42.08
446.731	29.08
446.857	29.08
446.983	30.08
447.109	27.08
447.235	37.08
447.361	23.08
447.487	43.08
447.613	60.08
447.739	29.08
447.865	8.08
447.99	39.08
448.116	38.08
448.242	34.08
448.368	35.08
448.494	56.08
448.62	54.08
448.746	28.08
448.872	41.08
448.997	15.08
449.123	19.08
449.249	36.08
449.375	43.08
449.501	24.08
449.627	17.08
449.752	48.08
449.878	12.08
450.004	11.08
450.13	25.08
450.256	12.08
450.381	19.08
450.507	14.08
450.633	8.08
450.759	45.08
450.884	19.08
451.01	38.08
451.136	33.08
451.262	33.08
451.388	35.08
451.513	17.08
451.639	32.08
451.765	19.08
451.89	20.08
452.016	36.08
452.142	36.08
452.268	14.08
452.393	46.08
452.519	11.08
452.645	39.08
452.771	12.08
452.896	18.08
453.022	17.08
453.148	29.08
453.273	27.08
453.399	33.08
453.525	14.08
453.65	15.08
453.776	46.08
453.902	27.08
454.027	33.08
454.153	25.08
454.279	29.08
454.404	20.08
454.53	28.08
454.656	53.08
454.781	18.08
454.907	15.08
455.032	9.08
455.158	40.08
455.284	35.08
455.409	12.08
455.535	19.08
455.66	29.08
455.786	25.08
455.912	21.08
456.037	8.08
456.163	27.08
456.288	23.08
456.414	23.08
456.539	29.08
456.665	51.08
456.791	32.08
456.916	34.08
457.042	17.08
457.167	12.08
457.293	23.08
457.418	13.08
457.544	14.08
457.669	28.08
457.795	12.08
457.92	27.08
458.046	34.08
458.171	36.08
458.297	18.08
458.422	18.08
458.548	10.08
458.673	28.08
458.799	29.08
458.924	9.08
459.05	23.08
459.175	14.08
459.301	4.08
459.426	36.08
459.552	17.08
459.677	12.08
459.803	41.08
459.928	44.08
460.053	28.08
460.179	22.08
460.304	36.08
460.43	14.08
460.555	8.08
460.681	21.08
460.806	4.08
460.931	17.08
461.057	22.08
461.182	8.08
461.308	47.08
461.433	45.08
461.558	10.08
461.684	57.08
461.809	27.08
461.934	25.08
462.06	20.08
462.185	5.08
462.311	23.08
462.436	44.08
462.561	21.08
462.687	11.08
462.812	29.08
462.937	6.08
463.063	6.08
463.188	35.08
463.313	39.08
463.439	32.08
463.564	14.08
463.689	24.08
463.814	12.08
463.94	16.08
464.065	38.08
464.19	22.08
464.316	27.08
464.441	24.08
464.566	19.08
464.692	11.08
464.817	22.08
464.942	8.08
465.067	11.08
465.193	6.08
465.318	8.08
465.443	22.08
465.568	39.08
465.694	31.08
465.819	21.08
465.944	25.08
466.069	29.08
466.194	23.08
466.32	16.08
466.445	22.08
466.57	38.08
466.695	20.08
466.82	14.08
466.946	31.08
467.071	28.08
467.196	5.08
467.321	33.08
467.446	28.08
467.572	26.08
467.697	25.08
467.822	30.08
467.947	42.08
468.072	19.08
468.197	14.08
468.323	21.08
468.448	25.08
468.573	29.08
468.698	30.08
468.823	26.08
468.948	37.08
469.073	33.08
469.198	43.08
469.324	44.08
469.449	35.08
469.574	41.08
469.699	54.08
469.824	46.08
469.949	32.08
470.074	32.08
470.199	55.08
470.324	53.08
470.449	61.08
470.574	24.08
470.7	20.08
470.825	47.08
470.95	59.08
471.075	18.08
471.2	33.08
471.325	57.08
471.45	39.08
471.575	24.08
471.7	38.08
471.825	16.08
471.95	22.08
472.075	19.08
472.2	21.08
472.325	12.08
472.45	6.08
472.575	27.08
472.7	30.08
472.825	45.08
472.95	34.08
473.075	44.08
473.2	29.08
473.325	40.08
473.45	18.08
473.575	39.08
473.7	56.08
473.825	18.08
473.95	38.08
474.075	28.08
474.2	15.08
474.325	16.08
474.45	41.08
474.574	18.08
474.699	28.08
474.824	30.08
474.949	11.08
475.074	13.08
475.199	30.08
475.324	8.08
475.449	20.08
475.574	16.08
475.699	12.08
475.824	15.08
475.949	19.08
476.073	24.08
476.198	18.08
476.323	23.08
476.448	9.08
476.573	17.08
476.698	18.08
476.823	24.08
476.947	28.08
477.072	24.08
477.197	31.08
477.322	25.08
477.447	19.08
477.572	13.08
477.697	13.08
477.821	6.08
477.946	11.08
478.071	28.08
478.196	31.08
478.321	28.08
478.445	20.08
478.57	16.08
478.695	6.08
478.82	17.08
478.945	19.08
479.069	11.08
479.194	26.08
479.319	19.08
479.444	37.08
479.569	13.08
479.693	25.08
479.818	13.08
479.943	20.08
480.068	1.08
480.192	40.08
480.317	21.08
480.442	16.08
480.567	15.08
480.691	27.08
480.816	11.08
480.941	-0.92
481.066	14.08
481.19	31.08
481.315	26.08
481.44	24.08
481.564	6.08
481.689	9.08
481.814	22.08
481.938	10.08
482.063	3.08
482.188	13.08
482.313	33.08
482.437	13.08
482.562	21.08
482.687	34.08
482.811	18.08
482.936	27.08
483.061	23.08
483.185	38.08
483.31	24.08
483.435	23.08
483.559	10.08
483.684	10.08
483.808	38.08
483.933	13.08
484.058	19.08
484.182	12.08
484.307	20.08
484.432	24.08
484.556	16.08
484.681	23.08
484.805	11.08
484.93	16.08
485.055	9.08
485.179	44.08
485.304	24.08
485.428	31.08
485.553	11.08
485.678	12.08
485.802	2.08
485.927	37.08
486.051	23.08
486.176	15.08
486.3	15.08
486.425	25.08
486.549	18.08
486.674	23.08
486.799	17.08
486.923	-1.92
487.048	5.08
487.172	13.08
487.297	15.08
487.421	28.08
487.546	21.08
487.67	19.08
487.795	20.08
487.919	8.08
488.044	25.08
488.168	21.08
488.293	23.08
488.417	26.08
488.542	28.08
488.666	27.08
488.791	29.08
488.915	24.08
489.04	29.08
489.164	13.08
489.289	23.08
489.413	0.08
489.538	10.08
489.662	24.08
489.786	9.08
489.911	9.08
490.035	28.08
490.16	16.08
490.284	25.08
490.409	-4.92
490.533	22.08
490.658	65.08
490.782	27.08
490.906	47.08
491.031	110.08
491.155	138.08
491.28	151.08
491.404	161.08
491.528	265.08
491.653	165.08
491.777	80.08
491.902	32.08
492.026	21.08
492.15	34.08
492.275	33.08
492.399	36.08
492.524	25.08
492.648	23.08
492.772	13.08
492.897	36.08
493.021	21.08
493.145	30.08
493.27	27.08
493.394	22.08
493.518	3.08
493.643	12.08
493.767	15.08
493.891	-7.92
494.016	30.08
494.14	17.08
494.264	15.08
494.389	16.08
494.513	8.08
494.637	9.08
494.762	32.08
494.886	23.08
495.01	17.08
495.134	13.08
495.259	40.08
495.383	21.08
495.507	11.08
495.632	40.08
495.756	52.08
495.88	34.08
496.004	28.08
496.129	14.08
496.253	26.08
496.377	13.08
496.501	25.08
496.626	11.08
496.75	25.08
496.874	33.08
496.998	15.08
497.123	39.08
497.247	0.08
497.371	-13.92
497.495	15.08
497.62	17.08
497.744	12.08
497.868	6.08
497.992	15.08
498.116	31.08
498.241	16.08
498.365	15.08
498.489	18.08
498.613	33.08
498.737	9.08
498.862	16.08
498.986	8.08
499.11	21.08
499.234	9.08
499.358	11.08
499.482	27.08
499.607	24.08
499.731	26.08
499.855	31.08
499.979	11.08
500.103	32.08
500.227	14.08
500.351	11.08
500.476	8.08
500.6	18.08
500.724	25.08
500.848	15.08
500.972	24.08
501.096	23.08
501.22	26.08
501.344	24.08
501.469	-0.92
501.593	15.08
501.717	30.08
501.841	29.08
501.965	21.08
502.089	32.08
502.213	24.08
502.337	12.08
502.461	19.08
502.585	10.08
502.709	18.08
502.834	1.08
502.958	6.08
503.082	12.08
503.206	32.08
503.33	24.08
503.454	25.08
503.578	30.08
503.702	45.08
503.826	24.08
503.95	34.08
504.074	22.08
504.198	0.08
504.322	11.08
504.446	-1.92
504.57	21.08
504.694	13.08
504.818	-1.92
504.942	16.08
505.066	31.08
505.19	16.08
505.314	26.08
505.438	33.08
505.562	25.08
505.686	19.08
505.81	22.08
505.934	34.08
506.058	15.08
506.182	34.08
506.306	29.08
506.43	4.08
506.554	10.08
506.678	20.08
506.802	15.08
506.926	20.08
507.05	26.08
507.174	44.08
507.298	35.08
507.422	25.08
507.546	16.08
507.67	20.08
507.794	5.08
507.918	12.08
508.042	33.08
508.165	30.08
508.289	25.08
508.413	37.08
508.537	32.08
508.661	21.08
508.785	30.08
508.909	28.08
509.033	23.08
509.157	19.08
509.281	25.08
509.405	37.08
509.528	53.08
509.652	49.08
509.776	32.08
509.9	23.08
510.024	32.08
510.148	25.08
510.272	33.08
510.396	38.08
510.519	14.08
510.643	39.08
510.767	27.08
510.891	42.08
511.015	30.08
511.139	50.08
511.263	41.08
511.386	31.08
511.51	28.08
511.634	47.08
511.758	44.08
511.882	28.08
512.006	36.08
512.129	59.08
512.253	90.08
512.377	63.08
512.501	83.08
512.625	85.08
512.748	96.08
512.872	74.08
512.996	53.08
513.12	59.08
513.244	45.08
513.367	57.08
513.491	52.08
513.615	76.08
513.739	60.08
513.862	58.08
513.986	80.08
514.11	100.08
514.234	77.08
514.358	118.08
514.481	122.08
514.605	103.08
514.729	109.08
514.853	108.08
514.976	105.08
515.1	89.08
515.224	95.08
515.348	79.08
515.471	65.08
515.595	90.08
515.719	137.08
515.842	214.08
515.966	288.08
516.09	277.08
516.214	292.08
516.337	316.08
516.461	228.08
516.585	96.08
516.708	51.08
516.832	29.08
516.956	20.08
517.08	20.08
517.203	9.08
517.327	7.08
517.451	14.08
517.574	49.08
517.698	13.08
517.822	3.08
517.945	20.08
518.069	11.08
518.193	36.08
518.316	23.08
518.44	35.08
518.564	1.08
518.687	12.08
518.811	19.08
518.935	38.08
519.058	28.08
519.182	23.08
519.306	30.08
519.429	15.08
519.553	47.08
519.676	17.08
519.8	11.08
519.924	13.08
520.047	15.08
520.171	19.08
520.294	19.08
520.418	29.08
520.542	23.08
520.665	29.08
520.789	23.08
520.913	13.08
521.036	14.08
521.16	24.08
521.283	7.08
521.407	16.08
521.53	-2.92
521.654	1.08
521.778	31.08
521.901	26.08
522.025	19.08
522.148	-1.92
522.272	21.08
522.395	31.08
522.519	24.08
522.643	6.08
522.766	3.08
522.89	38.08
523.013	38.08
523.137	8.08
523.26	15.08
523.384	19.08
523.507	3.08
523.631	16.08
523.754	20.08
523.878	12.08
524.002	25.08
524.125	16.08
524.249	-0.92
524.372	26.08
524.496	19.08
524.619	27.08
524.743	13.08
524.866	16.08
524.99	23.08
525.113	0.08
525.237	20.08
525.36	23.08
525.484	18.08
525.607	8.08
525.731	-6.92
525.854	17.08
525.978	30.08
526.101	1.08
526.224	16.08
526.348	11.08
526.471	29.08
526.595	35.08
526.718	31.08
526.842	6.08
526.965	31.08
527.089	15.08
527.212	20.08
527.336	8.08
527.459	14.08
527.582	18.08
527.706	24.08
527.829	23.08
527.953	26.08
528.076	5.08
528.2	11.08
528.323	22.08
528.446	17.08
528.57	9.08
528.693	29.08
528.817	6.08
528.94	15.08
529.064	30.08
529.187	9.08
529.31	8.08
529.434	14.08
529.557	7.08
529.68	11.08
529.804	13.08
529.927	18.08
530.051	4.08
530.174	2.08
530.297	11.08
530.421	22.08
530.544	21.08
530.668	1.08
530.791	-5.92
530.914	25.08
531.038	6.08
531.161	5.08
531.284	17.08
531.408	42.08
531.531	21.08
531.654	-3.92
531.778	6.08
531.901	-10.92
532.024	19.08
532.148	13.08
532.271	13.08
532.394	-3.92
532.518	21.08
532.641	10.08
532.764	19.08
532.888	24.08
533.011	11.08
533.134	23.08
533.258	35.08
533.381	24.08
533.504	5.08
533.628	7.08
533.751	18.08
533.874	5.08
533.997	34.08
534.121	16.08
534.244	14.08
534.367	11.08
534.491	21.08
534.614	27.08
534.737	29.08
534.86	22.08
534.984	18.08
535.107	34.08
535.23	24.08
535.354	15.08
535.477	7.08
535.6	16.08
535.723	10.08
535.847	18.08
535.97	3.08
536.093	24.08
536.216	13.08
536.34	19.08
536.463	13.08
536.586	22.08
536.709	17.08
536.833	35.08
536.956	6.08
537.079	28.08
537.202	21.08
537.325	-0.92
537.449	5.08
537.572	19.08
537.695	17.08
537.818	20.08
537.941	39.08
538.065	20.08
538.188	15.08
538.311	25.08
538.434	16.08
538.558	15.08
538.681	11.08
538.804	15.08
538.927	23.08
539.05	31.08
539.173	16.08
539.297	12.08
539.42	0.08
539.543	17.08
539.666	19.08
539.789	31.08
539.913	23.08
540.036	43.08
540.159	30.08
540.282	12.08
540.405	24.08
540.528	23.08
540.651	35.08
540.775	23.08
540.898	35.08
541.021	5.08
541.144	15.08
541.267	23.08
541.39	33.08
541.513	30.08
541.637	19.08
541.76	28.08
541.883	36.08
542.006	44.08
542.129	43.08
542.252	19.08
542.375	32.08
542.498	30.08
542.622	47.08
542.745	45.08
542.868	40.08
542.991	65.08
543.114	44.08
543.237	64.08
543.36	76.08
543.483	44.08
543.606	61.08
543.73	79.08
543.853	83.08
543.976	70.08
544.099	98.08
544.222	118.08
544.345	128.08
544.468	164.08
544.591	221.08
544.714	253.08
544.837	338.08
544.96	465.08
545.083	667.08
545.206	1106.08
545.329	2495.08
545.453	11165.08
545.576	15290.08
545.699	15682.08
545.822	15682.08
545.945	15682.08
546.068	15682.08
546.191	15682.08
546.314	15682.08
546.437	15682.08
546.56	15682.08
546.683	15682.08
546.806	15682.08
546.929	15682.08
547.052	15682.08
547.175	15682.08
547.298	15682.08
547.421	15682.08
547.544	15682.08
547.667	3800.08
547.79	4457.08
547.913	1364.08
548.036	956.08
548.159	664.08
548.282	682.08
548.405	516.08
548.528	505.08
548.651	389.08
548.774	404.08
548.897	347.08
549.02	354.08
549.143	330.08
549.266	325.08
549.389	290.08
549.512	261.08
549.635	252.08
549.758	240.08
549.881	208.08
550.004	217.08
550.127	203.08
550.25	180.08
550.373	166.08
550.496	179.08
550.619	160.08
550.742	175.08
550.865	137.08
550.988	146.08
551.111	170.08
551.234	157.08
551.356	143.08
551.479	143.08
551.602	136.08
551.725	117.08
551.848	132.08
551.971	132.08
552.094	129.08
552.217	122.08
552.34	116.08
552.463	102.08
552.586	110.08
552.709	119.08
552.832	94.08
552.955	112.08
553.077	111.08
553.2	116.08
553.323	83.08
553.446	100.08
553.569	93.08
553.692	109.08
553.815	97.08
553.938	96.08
554.061	100.08
554.184	99.08
554.306	86.08
554.429	97.08
554.552	85.08
554.675	73.08
554.798	80.08
554.921	75.08
555.044	78.08
555.167	71.08
555.29	59.08
555.412	67.08
555.535	86.08
555.658	77.08
555.781	87.08
555.904	73.08
556.027	82.08
556.15	85.08
556.272	58.08
556.395	73.08
556.518	69.08
556.641	83.08
556.764	83.08
556.887	67.08
557.01	76.08
557.132	62.08
557.255	62.08
557.378	70.08
557.501	45.08
557.624	80.08
557.747	74.08
557.869	60.08
557.992	83.08
558.115	90.08
558.238	84.08
558.361	80.08
558.483	99.08
558.606	86.08
558.729	42.08
558.852	63.08
558.975	64.08
559.098	52.08
559.22	54.08
559.343	43.08
559.466	52.08
559.589	72.08
559.712	60.08
559.834	45.08
559.957	47.08
560.08	39.08
560.203	40.08
560.325	63.08
560.448	56.08
560.571	55.08
560.694	40.08
560.817	71.08
560.939	75.08
561.062	35.08
561.185	46.08
561.308	61.08
561.43	42.08
561.553	56.08
561.676	47.08
561.799	64.08
561.921	60.08
562.044	53.08
562.167	43.08
562.29	75.08
562.413	73.08
562.535	60.08
562.658	32.08
562.781	52.08
562.903	59.08
563.026	95.08
563.149	140.08
563.272	120.08
563.394	103.08
563.517	109.08
563.64	49.08
563.763	55.08
563.885	62.08
564.008	39.08
564.131	46.08
564.254	42.08
564.376	47.08
564.499	31.08
564.622	32.08
564.744	33.08
564.867	44.08
564.99	36.08
565.113	41.08
565.235	37.08
565.358	29.08
565.481	40.08
565.603	13.08
565.726	28.08
565.849	36.08
565.971	41.08
566.094	17.08
566.217	36.08
566.34	29.08
566.462	44.08
566.585	46.08
566.708	52.08
566.83	32.08
566.953	46.08
567.076	35.08
567.198	37.08
567.321	27.08
567.444	40.08
567.566	22.08
567.689	33.08
567.812	14.08
567.934	41.08
568.057	27.08
568.18	37.08
568.302	36.08
568.425	25.08
568.548	23.08
568.67	32.08
568.793	45.08
568.916	40.08
569.038	24.08
569.161	26.08
569.283	20.08
569.406	28.08
569.529	21.08
569.651	19.08
569.774	20.08
569.897	20.08
570.019	59.08
570.142	29.08
570.265	29.08
570.387	44.08
570.51	44.08
570.632	54.08
570.755	17.08
570.878	25.08
571	16.08
571.123	24.08
571.246	32.08
571.368	35.08
571.491	38.08
571.613	39.08
571.736	37.08
571.859	37.08
571.981	14.08
572.104	11.08
572.226	21.08
572.349	15.08
572.472	23.08
572.594	23.08
572.717	25.08
572.839	20.08
572.962	29.08
573.085	17.08
573.207	24.08
573.33	39.08
573.452	41.08
573.575	47.08
573.697	19.08
573.82	32.08
573.943	31.08
574.065	28.08
574.188	26.08
574.31	52.08
574.433	40.08
574.555	44.08
574.678	32.08
574.801	24.08
574.923	25.08
575.046	42.08
575.168	34.08
575.291	34.08
575.413	28.08
575.536	55.08
575.659	63.08
575.781	56.08
575.904	65.08
576.026	77.08
576.149	60.08
576.271	136.08
576.394	192.08
576.516	544.08
576.639	3700.08
576.761	10311.08
576.884	8949.08
577.007	8810.08
577.129	8096.08
577.252	3755.08
577.374	1285.08
577.497	515.08
577.619	272.08
577.742	178.08
577.864	163.08
577.987	146.08
578.109	135.08
578.232	139.08
578.354	157.08
578.477	189.08
578.599	397.08
578.722	1981.08
578.844	9259.08
578.967	9980.08
579.089	8908.08
579.212	9214.08
579.334	5354.08
579.457	1940.08
579.579	740.08
579.702	335.08
579.824	213.08
579.947	133.08
580.069	105.08
580.192	85.08
580.314	91.08
580.437	67.08
580.559	107.08
580.682	84.08
580.804	55.08
580.927	55.08
581.049	69.08
581.172	51.08
581.294	50.08
581.417	36.08
581.539	33.08
581.662	56.08
581.784	60.08
581.907	57.08
582.029	52.08
582.152	29.08
582.274	40.08
582.396	59.08
582.519	37.08
582.641	34.08
582.764	36.08
582.886	45.08
583.009	25.08
583.131	37.08
583.254	49.08
583.376	48.08
583.499	27.08
583.621	16.08
583.743	44.08
583.866	39.08
583.988	37.08
584.111	56.08
584.233	34.08
584.356	44.08
584.478	37.08
584.601	26.08
584.723	33.08
584.845	29.08
584.968	15.08
585.09	29.08
585.213	38.08
585.335	22.08
585.458	21.08
585.58	21.08
585.702	44.08
585.825	39.08
585.947	33.08
586.07	5.08
586.192	29.08
586.315	40.08
586.437	19.08
586.559	24.08
586.682	10.08
586.804	37.08
586.927	10.08
587.049	15.08
587.171	47.08
587.294	42.08
587.416	35.08
587.539	15.08
587.661	17.08
587.783	19.08
587.906	18.08
588.028	34.08
588.151	24.08
588.273	43.08
588.395	27.08
588.518	31.08
588.64	30.08
588.763	51.08
588.885	40.08
589.007	26.08
589.13	33.08
589.252	23.08
589.375	16.08
589.497	33.08
589.619	22.08
589.742	33.08
589.864	41.08
589.986	31.08
590.109	11.08
590.231	19.08
590.354	33.08
590.476	31.08
590.598	13.08
590.721	14.08
590.843	30.08
590.965	25.08
591.088	46.08
591.21	36.08
591.332	43.08
591.455	12.08
591.577	23.08
591.7	21.08
591.822	26.08
591.944	22.08
592.067	29.08
592.189	19.08
592.311	39.08
592.434	4.08
592.556	24.08
592.678	20.08
592.801	15.08
592.923	25.08
593.045	31.08
593.168	14.08
593.29	28.08
593.412	38.08
593.535	6.08
593.657	10.08
593.779	19.08
593.902	19.08
594.024	20.08
594.146	27.08
594.269	20.08
594.391	-3.92
594.513	31.08
594.636	32.08
594.758	16.08
594.88	46.08
595.003	21.08
595.125	10.08
595.247	15.08
595.37	24.08
595.492	15.08
595.614	35.08
595.737	26.08
595.859	23.08
595.981	20.08
596.104	22.08
596.226	18.08
596.348	30.08
596.471	22.08
596.593	48.08
596.715	23.08
596.838	24.08
596.96	26.08
597.082	17.08
597.204	14.08
597.327	23.08
597.449	-6.92
597.571	16.08
597.694	17.08
597.816	30.08
597.938	24.08
598.061	14.08
598.183	8.08
598.305	40.08
598.427	20.08
598.55	35.08
598.672	24.08
598.794	41.08
598.917	39.08
599.039	23.08
599.161	26.08
599.283	34.08
599.406	34.08
599.528	31.08
599.65	33.08
599.773	25.08
599.895	31.08
600.017	33.08
600.139	36.08
600.262	27.08
600.384	27.08
600.506	24.08
600.628	32.08
600.751	13.08
600.873	28.08
600.995	23.08
601.118	26.08
601.24	6.08
601.362	37.08
601.484	47.08
601.607	40.08
601.729	20.08
601.851	19.08
601.973	21.08
602.096	37.08
602.218	19.08
602.34	22.08
602.462	16.08
602.585	29.08
602.707	11.08
602.829	29.08
602.951	10.08
603.074	0.08
603.196	16.08
603.318	-0.92
603.44	24.08
603.563	24.08
603.685	27.08
603.807	30.08
603.929	20.08
604.052	42.08
604.174	44.08
604.296	22.08
604.418	19.08
604.541	37.08
604.663	27.08
604.785	11.08
604.907	12.08
605.03	4.08
605.152	37.08
605.274	17.08
605.396	15.08
605.519	18.08
605.641	10.08
605.763	21.08
605.885	9.08
606.008	24.08
606.13	33.08
606.252	32.08
606.374	8.08
606.496	25.08
606.619	22.08
606.741	19.08
606.863	33.08
606.985	34.08
607.108	17.08
607.23	16.08
607.352	0.08
607.474	3.08
607.596	12.08
607.719	26.08
607.841	19.08
607.963	16.08
608.085	19.08
608.207	48.08
608.33	22.08
608.452	4.08
608.574	10.08
608.696	25.08
608.819	16.08
608.941	31.08
609.063	15.08
609.185	7.08
609.307	23.08
609.43	33.08
609.552	19.08
609.674	8.08
609.796	29.08
609.918	35.08
610.041	28.08
610.163	33.08
610.285	18.08
610.407	22.08
610.529	13.08
610.652	16.08
610.774	23.08
610.896	12.08
611.018	12.08
611.14	10.08
611.263	9.08
611.385	4.08
611.507	24.08
611.629	23.08
611.751	17.08
611.873	36.08
611.996	34.08
612.118	46.08
612.24	31.08
612.362	45.08
612.484	44.08
612.607	36.08
612.729	43.08
612.851	40.08
612.973	11.08
613.095	12.08
613.218	29.08
613.34	51.08
613.462	30.08
613.584	31.08
613.706	20.08
613.828	31.08
613.951	21.08
614.073	22.08
614.195	-3.92
614.317	42.08
614.439	26.08
614.561	24.08
614.684	17.08
614.806	32.08
614.928	22.08
615.05	8.08
615.172	4.08
615.294	17.08
615.417	5.08
615.539	16.08
615.661	30.08
615.783	32.08
615.905	13.08
616.027	15.08
616.15	33.08
616.272	25.08
616.394	-4.92
616.516	12.08
616.638	9.08
616.76	26.08
616.883	27.08
617.005	13.08
617.127	23.08
617.249	23.08
617.371	14.08
617.493	-5.92
617.615	16.08
617.738	6.08
617.86	15.08
617.982	30.08
618.104	24.08
618.226	15.08
618.348	15.08
618.471	11.08
618.593	15.08
618.715	23.08
618.837	22.08
618.959	11.08
619.081	29.08
619.203	15.08
619.326	20.08
619.448	28.08
619.57	33.08
619.692	26.08
619.814	33.08
619.936	27.08
620.058	27.08
620.181	37.08
620.303	16.08
620.425	19.08
620.547	21.08
620.669	20.08
620.791	26.08
620.913	17.08
621.036	3.08
621.158	19.08
621.28	24.08
621.402	2.08
621.524	13.08
621.646	29.08
621.768	17.08
621.891	-1.92
622.013	12.08
622.135	2.08
622.257	1.08
622.379	14.08
622.501	8.08
622.623	7.08
622.745	3.08
622.868	10.08
622.99	2.08
623.112	5.08
623.234	6.08
623.356	16.08
623.478	-0.92
623.6	20.08
623.722	11.08
623.845	21.08
623.967	16.08
624.089	20.08
624.211	11.08
624.333	19.08
624.455	5.08
624.577	20.08
624.699	31.08
624.822	7.08
624.944	1.08
625.066	26.08
625.188	11.08
625.31	12.08
625.432	25.08
625.554	7.08
625.676	27.08
625.799	32.08
625.921	33.08
626.043	15.08
626.165	26.08
626.287	13.08
626.409	9.08
626.531	20.08
626.653	24.08
626.775	23.08
626.898	36.08
627.02	23.08
627.142	41.08
627.264	35.08
627.386	28.08
627.508	34.08
627.63	21.08
627.752	19.08
627.874	24.08
627.997	23.08
628.119	21.08
628.241	9.08
628.363	21.08
628.485	23.08
628.607	1.08
628.729	20.08
628.851	4.08
628.973	3.08
629.096	-2.92
629.218	11.08
629.34	26.08
629.462	9.08
629.584	14.08
629.706	22.08
629.828	36.08
629.95	13.08
630.072	5.08
630.195	19.08
630.317	23.08
630.439	26.08
630.561	27.08
630.683	9.08
630.805	-0.92
630.927	31.08
631.049	16.08
631.171	11.08
631.293	16.08
631.416	8.08
631.538	9.08
631.66	19.08
631.782	28.08
631.904	31.08
632.026	3.08
632.148	30.08
632.27	29.08
632.392	16.08
632.514	33.08
632.637	14.08
632.759	12.08
632.881	16.08
633.003	8.08
633.125	8.08
633.247	23.08
633.369	14.08
633.491	16.08
633.613	33.08
633.735	11.08
633.858	16.08
633.98	21.08
634.102	-1.92
634.224	5.08
634.346	0.08
634.468	4.08
634.59	17.08
634.712	7.08
634.834	1.08
634.956	6.08
635.078	-1.92
635.201	-6.92
635.323	1.08
635.445	4.08
635.567	3.08
635.689	8.08
635.811	13.08
635.933	9.08
636.055	7.08
636.177	12.08
636.299	26.08
636.421	16.08
636.544	-11.92
636.666	12.08
636.788	19.08
636.91	17.08
637.032	4.08
637.154	22.08
637.276	26.08
637.398	29.08
637.52	28.08
637.642	8.08
637.764	7.08
637.887	17.08
638.009	0.08
638.131	5.08
638.253	15.08
638.375	19.08
638.497	24.08
638.619	-8.92
638.741	13.08
638.863	5.08
638.985	11.08
639.107	17.08
639.23	-1.92
639.352	35.08
639.474	3.08
639.596	16.08
639.718	17.08
639.84	13.08
639.962	11.08
640.084	24.08
640.206	25.08
640.328	4.08
640.45	6.08
640.573	10.08
640.695	13.08
640.817	17.08
640.939	33.08
641.061	25.08
641.183	15.08
641.305	17.08
641.427	3.08
641.549	14.08
641.671	12.08
641.793	3.08
641.915	5.08
642.038	20.08
642.16	17.08
642.282	27.08
642.404	-3.92
642.526	20.08
642.648	3.08
642.77	-0.92
642.892	8.08
643.014	25.08
643.136	21.08
643.258	0.08
643.381	25.08
643.503	25.08
643.625	18.08
643.747	0.08
643.869	6.08
643.991	26.08
644.113	11.08
644.235	12.08
644.357	3.08
644.479	18.08
644.601	-4.92
644.723	10.08
644.846	26.08
644.968	18.08
645.09	15.08
645.212	-0.92
645.334	19.08
645.456	25.08
645.578	24.08
645.7	6.08
645.822	28.08
645.944	24.08
646.066	20.08
646.188	13.08
646.311	34.08
646.433	15.08
646.555	38.08
646.677	25.08
646.799	12.08
646.921	14.08
647.043	25.08
647.165	5.08
647.287	-9.92
647.409	8.08
647.531	35.08
647.654	-5.92
647.776	13.08
647.898	27.08
648.02	19.08
648.142	15.08
648.264	10.08
648.386	-7.92
648.508	-10.92
648.63	1.08
648.752	11.08
648.874	4.08
648.997	1.08
649.119	11.08
649.241	-2.92
649.363	30.08
649.485	23.08
649.607	17.08
649.729	20.08
649.851	21.08
649.973	16.08
650.095	8.08
650.217	6.08
650.34	12.08
650.462	12.08
650.584	-9.92
650.706	21.08
650.828	28.08
650.95	-5.92
651.072	12.08
651.194	13.08
651.316	12.08
651.438	9.08
651.56	7.08
651.683	15.08
651.805	21.08
651.927	5.08
652.049	-12.92
652.171	-3.92
652.293	8.08
652.415	-7.92
652.537	-17.92
652.659	4.08
652.781	7.08
652.903	20.08
653.026	23.08
653.148	5.08
653.27	6.08
653.392	11.08
653.514	-3.92
653.636	1.08
653.758	11.08
653.88	5.08
654.002	16.08
654.124	-3.92
654.247	-15.92
654.369	-1.92
654.491	2.08
654.613	5.08
654.735	-2.92
654.857	0.08
654.979	13.08
655.101	13.08
655.223	40.08
655.345	17.08
655.468	24.08
655.59	8.08
655.712	15.08
655.834	5.08
655.956	24.08
656.078	10.08
656.2	4.08
656.322	-6.92
656.444	3.08
656.566	16.08
656.689	8.08
656.811	0.08
656.933	19.08
657.055	-3.92
657.177	19.08
657.299	8.08
657.421	13.08
657.543	23.08
657.665	7.08
657.787	9.08
657.91	3.08
658.032	10.08
658.154	12.08
658.276	7.08
658.398	-7.92
658.52	15.08
658.642	14.08
658.764	10.08
658.886	-28.92
659.009	14.08
659.131	11.08
659.253	16.08
659.375	2.08
659.497	2.08
659.619	25.08
659.741	-4.92
659.863	10.08
659.985	0.08
660.108	19.08
660.23	-9.92
660.352	15.08
660.474	4.08
660.596	16.08
660.718	17.08
660.84	10.08
660.962	16.08
661.084	-1.92
661.207	8.08
661.329	7.08
661.451	5.08
661.573	-2.92
661.695	22.08
661.817	26.08
661.939	33.08
662.061	21.08
662.184	3.08
662.306	8.08
662.428	0.08
662.55	18.08
662.672	12.08
662.794	7.08
662.916	13.08
663.038	-2.92
663.161	22.08
663.283	7.08
663.405	10.08
663.527	3.08
663.649	17.08
663.771	11.08
663.893	14.08
664.015	17.08
664.138	9.08
664.26	2.08
664.382	-2.92
664.504	-9.92
664.626	-16.92
664.748	2.08
664.87	8.08
664.992	33.08
665.115	13.08
665.237	15.08
665.359	2.08
665.481	-4.92
665.603	-2.92
665.725	-3.92
665.847	-1.92
665.97	6.08
666.092	10.08
666.214	-0.92
666.336	15.08
666.458	16.08
666.58	11.08
666.702	-23.92
666.825	8.08
666.947	-5.92
667.069	-1.92
667.191	6.08
667.313	28.08
667.435	-19.92
667.557	4.08
667.68	8.08
667.802	3.08
667.924	11.08
668.046	10.08
668.168	20.08
668.29	29.08
668.412	9.08
668.535	25.08
668.657	0.08
668.779	-4.92
668.901	3.08
669.023	13.08
669.145	-4.92
669.267	6.08
669.39	9.08
669.512	21.08
669.634	16.08
669.756	-11.92
669.878	14.08
670	17.08
670.123	6.08
670.245	36.08
670.367	25.08
670.489	25.08
670.611	-1.92
670.733	16.08
670.856	16.08
670.978	14.08
671.1	26.08
671.222	26.08
671.344	7.08
671.466	4.08
671.589	-6.92
671.711	7.08
671.833	-15.92
671.955	5.08
672.077	5.08
672.199	15.08
672.322	32.08
672.444	20.08
672.566	48.08
672.688	8.08
672.81	37.08
672.932	15.08
673.055	3.08
673.177	2.08
673.299	23.08
673.421	13.08
673.543	6.08
673.665	13.08
673.788	6.08
673.91	9.08
674.032	-4.92
674.154	6.08
674.276	17.08
674.399	-7.92
674.521	-2.92
674.643	-6.92
674.765	11.08
674.887	11.08
675.009	5.08
675.132	7.08
675.254	15.08
675.376	12.08
675.498	22.08
675.62	18.08
675.743	9.08
675.865	25.08
675.987	0.08
676.109	3.08
676.231	16.08
676.354	26.08
676.476	13.08
676.598	15.08
676.72	20.08
676.842	27.08
676.965	15.08
677.087	6.08
677.209	3.08
677.331	37.08
677.453	15.08
677.576	1.08
677.698	7.08
677.82	9.08
677.942	3.08
678.064	8.08
678.187	10.08
678.309	4.08
678.431	22.08
678.553	6.08
678.675	1.08
678.798	19.08
678.92	8.08
679.042	24.08
679.164	2.08
679.286	28.08
679.409	17.08
679.531	-6.92
679.653	-0.92
679.775	10.08
679.898	4.08
680.02	-0.92
680.142	3.08
680.264	8.08
680.386	-4.92
680.509	5.08
680.631	20.08
680.753	12.08
680.875	-4.92
680.998	0.08
681.12	-3.92
681.242	6.08
681.364	-6.92
681.486	5.08
681.609	-2.92
681.731	2.08
681.853	12.08
681.975	21.08
682.098	24.08
682.22	12.08
682.342	8.08
682.464	15.08
682.587	-0.92
682.709	11.08
682.831	-3.92
682.953	9.08
683.076	3.08
683.198	16.08
683.32	31.08
683.442	14.08
683.565	-0.92
683.687	4.08
683.809	5.08
683.931	-3.92
684.054	-1.92
684.176	10.08
684.298	15.08
684.42	9.08
684.543	1.08
684.665	3.08
684.787	2.08
684.909	4.08
685.032	16.08
685.154	-8.92
685.276	30.08
685.398	-12.92
685.521	0.08
685.643	10.08
685.765	8.08
685.887	16.08
686.01	8.08
686.132	-9.92
686.254	9.08
686.377	33.08
686.499	23.08
686.621	29.08
686.743	40.08
686.866	10.08
686.988	13.08
687.11	28.08
687.232	11.08
687.355	4.08
687.477	13.08
687.599	25.08
687.722	1.08
687.844	23.08
687.966	14.08
688.088	25.08
688.211	33.08
688.333	13.08
688.455	5.08
688.578	24.08
688.7	9.08
688.822	14.08
688.944	-11.92
689.067	29.08
689.189	11.08
689.311	-7.92
689.434	18.08
689.556	18.08
689.678	27.08
689.801	3.08
689.923	12.08
690.045	29.08
690.167	33.08
690.29	20.08
690.412	-4.92
690.534	7.08
690.657	-8.92
690.779	6.08
690.901	11.08
691.024	-2.92
691.146	-0.92
691.268	-8.92
691.391	9.08
691.513	13.08
691.635	11.08
691.758	27.08
691.88	16.08
692.002	-16.92
692.125	5.08
692.247	-8.92
692.369	7.08
692.492	-22.92
692.614	2.08
692.736	-1.92
692.859	-10.92
692.981	3.08
693.103	3.08
693.226	9.08
693.348	35.08
693.47	15.08
693.593	24.08
693.715	32.08
693.837	29.08
693.96	23.08
694.082	13.08
694.204	21.08
694.327	17.08
694.449	7.08
694.571	12.08
694.694	6.08
694.816	14.08
694.938	2.08
695.061	15.08
695.183	3.08
695.305	12.08
695.428	11.08
695.55	4.08
695.672	-12.92
695.795	21.08
695.917	26.08
696.04	7.08
696.162	-12.92
696.284	-3.92
696.407	12.08
696.529	13.08
696.651	12.08
696.774	13.08
696.896	25.08
697.019	19.08
697.141	11.08
697.263	13.08
697.386	6.08
697.508	-2.92
697.63	13.08
697.753	12.08
697.875	-3.92
697.998	8.08
698.12	9.08
698.242	13.08
698.365	27.08
698.487	12.08
698.61	31.08
698.732	10.08
698.854	15.08
698.977	-3.92
699.099	10.08
699.221	11.08
699.344	7.08
699.466	17.08
699.589	15.08
699.711	0.08
699.834	18.08
699.956	26.08
700.078	17.08
700.201	-5.92
700.323	22.08
700.446	13.08
700.568	-4.92
700.69	7.08
700.813	-6.92
700.935	-7.92
701.058	12.08
701.18	25.08
701.302	-6.92
701.425	-2.92
701.547	3.08
701.67	-2.92
701.792	0.08
701.915	-10.92
702.037	4.08
702.159	26.08
702.282	13.08
702.404	15.08
702.527	25.08
702.649	27.08
702.772	19.08
702.894	15.08
703.017	14.08
703.139	20.08
703.261	4.08
703.384	15.08
703.506	-10.92
703.629	9.08
703.751	15.08
703.874	17.08
703.996	-1.92
704.119	-12.92
704.241	11.08
704.364	0.08
704.486	19.08
704.608	13.08
704.731	-8.92
704.853	3.08
704.976	7.08
705.098	17.08
705.221	8.08
705.343	-1.92
705.466	28.08
705.588	16.08
705.711	6.08
705.833	12.08
705.956	8.08
706.078	15.08
706.201	15.08
706.323	3.08
706.446	6.08
