Data from LowRes_mercury_15_20_11_07_2024_HR4C61881__67__15-23-38-970.txt Node

Date: Thu Nov 07 15:23:38 EST 2024
User: crc00042
Spectrometer: HR4C6188
Trigger mode: 4
Integration Time (sec): 1.000000E-1
Scans to average: 1
Electric dark correction enabled: true
Nonlinearity correction enabled: false
Boxcar width: 0
XAxis mode: Wavelengths
Number of Pixels in Spectrum: 3648
>>>>>Begin Spectral Data<<<<<
245.66	-77.92
245.797	-77.92
245.934	-77.92
246.071	-63.92
246.208	25.08
246.344	-8.92
246.481	-13.92
246.618	-3.92
246.755	33.08
246.892	18.08
247.029	-7.92
247.165	-11.92
247.302	10.08
247.439	-12.92
247.576	-3.92
247.713	-15.92
247.849	28.08
247.986	-9.92
248.123	-11.92
248.26	-14.92
248.396	6.08
248.533	-17.92
248.67	-15.92
248.806	1.08
248.943	-15.92
249.08	11.08
249.216	15.08
249.353	-4.92
249.49	4.08
249.626	2.08
249.763	2.08
249.9	-17.92
250.036	4.08
250.173	13.08
250.309	-0.92
250.446	8.08
250.582	-4.92
250.719	-1.92
250.856	-8.92
250.992	-3.92
251.129	7.08
251.265	-5.92
251.402	10.08
251.538	3.08
251.675	18.08
251.811	6.08
251.948	19.08
252.084	-2.92
252.221	14.08
252.357	10.08
252.493	27.08
252.63	5.08
252.766	5.08
252.903	-10.92
253.039	-6.92
253.175	-8.92
253.312	1.08
253.448	1.08
253.585	-21.92
253.721	-0.92
253.857	10.08
253.994	-4.92
254.13	4.08
254.266	-2.92
254.403	5.08
254.539	-8.92
254.675	8.08
254.811	7.08
254.948	-4.92
255.084	-13.92
255.22	-8.92
255.356	-15.92
255.493	-1.92
255.629	4.08
255.765	8.08
255.901	13.08
256.037	9.08
256.174	-16.92
256.31	-11.92
256.446	0.08
256.582	2.08
256.718	-7.92
256.854	17.08
256.991	-3.92
257.127	16.08
257.263	21.08
257.399	-1.92
257.535	-18.92
257.671	12.08
257.807	-11.92
257.943	-15.92
258.079	-15.92
258.215	1.08
258.351	19.08
258.487	16.08
258.623	11.08
258.759	7.08
258.895	-13.92
259.031	5.08
259.167	-14.92
259.303	30.08
259.439	5.08
259.575	-17.92
259.711	-15.92
259.847	-7.92
259.983	8.08
260.119	-9.92
260.255	-14.92
260.391	-5.92
260.527	8.08
260.663	10.08
260.799	-3.92
260.934	1.08
261.07	-15.92
261.206	-25.92
261.342	-28.92
261.478	6.08
261.614	-1.92
261.749	21.08
261.885	1.08
262.021	9.08
262.157	10.08
262.293	-13.92
262.428	-13.92
262.564	-7.92
262.7	4.08
262.836	0.08
262.971	18.08
263.107	0.08
263.243	19.08
263.378	8.08
263.514	-23.92
263.65	-13.92
263.785	-21.92
263.921	-1.92
264.057	10.08
264.192	7.08
264.328	15.08
264.464	0.08
264.599	23.08
264.735	14.08
264.871	-2.92
265.006	13.08
265.142	-19.92
265.277	-1.92
265.413	0.08
265.548	-10.92
265.684	-3.92
265.819	-12.92
265.955	-17.92
266.091	-19.92
266.226	-14.92
266.362	3.08
266.497	20.08
266.633	-0.92
266.768	19.08
266.903	7.08
267.039	6.08
267.174	25.08
267.31	-5.92
267.445	-1.92
267.581	-10.92
267.716	-4.92
267.851	6.08
267.987	11.08
268.122	2.08
268.258	-0.92
268.393	-5.92
268.528	14.08
268.664	-12.92
268.799	-22.92
268.934	-0.92
269.07	8.08
269.205	10.08
269.34	30.08
269.476	-1.92
269.611	-13.92
269.746	26.08
269.881	7.08
270.017	18.08
270.152	12.08
270.287	-5.92
270.422	6.08
270.558	-2.92
270.693	-3.92
270.828	2.08
270.963	14.08
271.098	-11.92
271.234	-12.92
271.369	21.08
271.504	2.08
271.639	-21.92
271.774	-13.92
271.909	-10.92
272.045	-26.92
272.18	-20.92
272.315	-6.92
272.45	6.08
272.585	7.08
272.72	1.08
272.855	-6.92
272.99	20.08
273.125	-22.92
273.26	-15.92
273.395	-33.92
273.53	3.08
273.665	10.08
273.8	5.08
273.935	-8.92
274.07	0.08
274.205	-2.92
274.34	-12.92
274.475	-0.92
274.61	20.08
274.745	5.08
274.88	6.08
275.015	-13.92
275.15	-7.92
275.285	11.08
275.42	-14.92
275.555	1.08
275.69	-13.92
275.825	8.08
275.959	-0.92
276.094	0.08
276.229	-3.92
276.364	-13.92
276.499	1.08
276.634	-15.92
276.768	1.08
276.903	16.08
277.038	21.08
277.173	-1.92
277.308	-6.92
277.442	-17.92
277.577	-12.92
277.712	-2.92
277.847	-6.92
277.981	-0.92
278.116	-11.92
278.251	-3.92
278.386	16.08
278.52	-7.92
278.655	7.08
278.79	1.08
278.924	1.08
279.059	-7.92
279.194	-18.92
279.328	21.08
279.463	7.08
279.598	37.08
279.732	9.08
279.867	10.08
280.001	15.08
280.136	5.08
280.271	5.08
280.405	-7.92
280.54	7.08
280.674	-17.92
280.809	2.08
280.943	-10.92
281.078	6.08
281.213	16.08
281.347	21.08
281.482	3.08
281.616	7.08
281.751	-11.92
281.885	-24.92
282.02	-22.92
282.154	24.08
282.288	-12.92
282.423	-6.92
282.557	-1.92
282.692	-8.92
282.826	-3.92
282.961	7.08
283.095	-0.92
283.229	0.08
283.364	-1.92
283.498	-6.92
283.633	2.08
283.767	-9.92
283.901	2.08
284.036	-0.92
284.17	9.08
284.304	-2.92
284.439	-1.92
284.573	-20.92
284.707	13.08
284.842	-11.92
284.976	-4.92
285.11	0.08
285.244	9.08
285.379	36.08
285.513	-17.92
285.647	20.08
285.781	-14.92
285.916	22.08
286.05	12.08
286.184	40.08
286.318	5.08
286.453	-30.92
286.587	-11.92
286.721	-13.92
286.855	2.08
286.989	3.08
287.123	-8.92
287.258	-32.92
287.392	-5.92
287.526	-3.92
287.66	-7.92
287.794	-12.92
287.928	-8.92
288.062	1.08
288.196	-20.92
288.33	-6.92
288.464	12.08
288.598	-0.92
288.733	-10.92
288.867	2.08
289.001	9.08
289.135	16.08
289.269	6.08
289.403	8.08
289.537	0.08
289.671	-0.92
289.805	-3.92
289.939	10.08
290.073	-5.92
290.207	22.08
290.34	-1.92
290.474	1.08
290.608	31.08
290.742	-2.92
290.876	-17.92
291.01	-17.92
291.144	14.08
291.278	9.08
291.412	9.08
291.546	5.08
291.679	-26.92
291.813	-4.92
291.947	5.08
292.081	-21.92
292.215	-23.92
292.349	6.08
292.482	16.08
292.616	-4.92
292.75	-5.92
292.884	-4.92
293.018	0.08
293.151	-16.92
293.285	-1.92
293.419	-16.92
293.553	0.08
293.686	-0.92
293.82	8.08
293.954	7.08
294.088	7.08
294.221	-4.92
294.355	4.08
294.489	-1.92
294.622	-4.92
294.756	11.08
294.89	10.08
295.023	12.08
295.157	12.08
295.291	22.08
295.424	27.08
295.558	1.08
295.691	10.08
295.825	6.08
295.959	-7.92
296.092	-19.92
296.226	13.08
296.359	18.08
296.493	4.08
296.627	8.08
296.76	-0.92
296.894	5.08
297.027	-1.92
297.161	-3.92
297.294	-6.92
297.428	9.08
297.561	33.08
297.695	-13.92
297.828	-3.92
297.962	-8.92
298.095	-21.92
298.229	-24.92
298.362	-15.92
298.495	-16.92
298.629	-6.92
298.762	0.08
298.896	-3.92
299.029	-13.92
299.162	-4.92
299.296	17.08
299.429	-3.92
299.563	-8.92
299.696	6.08
299.829	-3.92
299.963	11.08
300.096	9.08
300.229	17.08
300.363	-10.92
300.496	12.08
300.629	-5.92
300.763	-12.92
300.896	0.08
301.029	-9.92
301.162	-4.92
301.296	-23.92
301.429	-3.92
301.562	-13.92
301.695	-5.92
301.829	4.08
301.962	-8.92
302.095	1.08
302.228	1.08
302.362	16.08
302.495	2.08
302.628	12.08
302.761	-5.92
302.894	14.08
303.027	4.08
303.161	-19.92
303.294	-23.92
303.427	9.08
303.56	-7.92
303.693	9.08
303.826	9.08
303.959	-5.92
304.092	0.08
304.225	7.08
304.359	7.08
304.492	4.08
304.625	-3.92
304.758	8.08
304.891	5.08
305.024	13.08
305.157	-5.92
305.29	-1.92
305.423	-6.92
305.556	2.08
305.689	16.08
305.822	10.08
305.955	-10.92
306.088	-4.92
306.221	15.08
306.354	-2.92
306.487	-14.92
306.62	-32.92
306.752	-10.92
306.885	-4.92
307.018	-3.92
307.151	17.08
307.284	-12.92
307.417	-20.92
307.55	10.08
307.683	5.08
307.816	14.08
307.948	11.08
308.081	16.08
308.214	3.08
308.347	32.08
308.48	-14.92
308.613	-17.92
308.745	-2.92
308.878	-9.92
309.011	-4.92
309.144	3.08
309.277	-14.92
309.409	2.08
309.542	4.08
309.675	27.08
309.808	15.08
309.94	14.08
310.073	3.08
310.206	-3.92
310.339	9.08
310.471	-14.92
310.604	35.08
310.737	-21.92
310.869	-5.92
311.002	-7.92
311.135	2.08
311.267	-41.92
311.4	-18.92
311.533	7.08
311.665	13.08
311.798	0.08
311.93	-0.92
312.063	9.08
312.196	36.08
312.328	68.08
312.461	47.08
312.593	20.08
312.726	31.08
312.859	86.08
312.991	157.08
313.124	32.08
313.256	29.08
313.389	-6.92
313.521	-1.92
313.654	-10.92
313.786	-25.92
313.919	-9.92
314.051	7.08
314.184	-2.92
314.316	14.08
314.449	-14.92
314.581	-6.92
314.714	-8.92
314.846	-23.92
314.978	-20.92
315.111	-17.92
315.243	-7.92
315.376	-0.92
315.508	10.08
315.641	3.08
315.773	3.08
315.905	6.08
316.038	11.08
316.17	13.08
316.302	8.08
316.435	6.08
316.567	8.08
316.699	12.08
316.832	-13.92
316.964	16.08
317.096	-6.92
317.229	-8.92
317.361	-16.92
317.493	1.08
317.625	-12.92
317.758	16.08
317.89	24.08
318.022	-5.92
318.155	-14.92
318.287	11.08
318.419	-2.92
318.551	-8.92
318.683	-8.92
318.816	-0.92
318.948	-17.92
319.08	-12.92
319.212	6.08
319.344	8.08
319.477	-10.92
319.609	17.08
319.741	8.08
319.873	2.08
320.005	-3.92
320.137	8.08
320.269	7.08
320.401	-8.92
320.534	-13.92
320.666	-8.92
320.798	-6.92
320.93	5.08
321.062	1.08
321.194	-3.92
321.326	5.08
321.458	4.08
321.59	-1.92
321.722	-12.92
321.854	0.08
321.986	1.08
322.118	2.08
322.25	-18.92
322.382	-4.92
322.514	-3.92
322.646	-11.92
322.778	18.08
322.91	-6.92
323.042	5.08
323.174	8.08
323.306	13.08
323.438	-17.92
323.57	-6.92
323.702	-16.92
323.834	2.08
323.966	-21.92
324.097	1.08
324.229	7.08
324.361	8.08
324.493	8.08
324.625	-8.92
324.757	4.08
324.889	-17.92
325.021	6.08
325.152	17.08
325.284	22.08
325.416	-2.92
325.548	26.08
325.68	-2.92
325.811	30.08
325.943	13.08
326.075	-7.92
326.207	9.08
326.339	6.08
326.47	5.08
326.602	12.08
326.734	29.08
326.866	3.08
326.997	-17.92
327.129	-5.92
327.261	-14.92
327.392	-20.92
327.524	-6.92
327.656	-9.92
327.787	12.08
327.919	-9.92
328.051	-1.92
328.182	20.08
328.314	30.08
328.446	2.08
328.577	19.08
328.709	6.08
328.841	-8.92
328.972	0.08
329.104	-21.92
329.235	-7.92
329.367	-9.92
329.499	-5.92
329.63	8.08
329.762	6.08
329.893	-11.92
330.025	5.08
330.156	4.08
330.288	13.08
330.419	2.08
330.551	17.08
330.683	16.08
330.814	5.08
330.946	8.08
331.077	-1.92
331.208	-11.92
331.34	-6.92
331.471	1.08
331.603	-1.92
331.734	-19.92
331.866	14.08
331.997	-12.92
332.129	-3.92
332.26	2.08
332.392	9.08
332.523	-1.92
332.654	-9.92
332.786	13.08
332.917	2.08
333.048	4.08
333.18	20.08
333.311	11.08
333.443	5.08
333.574	7.08
333.705	22.08
333.837	46.08
333.968	107.08
334.099	228.08
334.231	207.08
334.362	37.08
334.493	29.08
334.624	36.08
334.756	29.08
334.887	-0.92
335.018	11.08
335.15	22.08
335.281	13.08
335.412	0.08
335.543	6.08
335.675	19.08
335.806	9.08
335.937	-1.92
336.068	7.08
336.199	20.08
336.331	-6.92
336.462	-18.92
336.593	10.08
336.724	6.08
336.855	10.08
336.986	26.08
337.118	3.08
337.249	25.08
337.38	6.08
337.511	4.08
337.642	10.08
337.773	23.08
337.904	6.08
338.035	26.08
338.166	17.08
338.298	9.08
338.429	-1.92
338.56	23.08
338.691	9.08
338.822	5.08
338.953	21.08
339.084	14.08
339.215	12.08
339.346	1.08
339.477	18.08
339.608	14.08
339.739	-1.92
339.87	16.08
340.001	8.08
340.132	4.08
340.263	3.08
340.394	5.08
340.525	3.08
340.656	20.08
340.787	-1.92
340.918	25.08
341.049	14.08
341.179	18.08
341.31	9.08
341.441	8.08
341.572	-10.92
341.703	11.08
341.834	5.08
341.965	21.08
342.096	8.08
342.227	11.08
342.357	5.08
342.488	-2.92
342.619	21.08
342.75	5.08
342.881	5.08
343.012	13.08
343.142	32.08
343.273	2.08
343.404	24.08
343.535	39.08
343.666	43.08
343.796	47.08
343.927	37.08
344.058	45.08
344.189	37.08
344.319	32.08
344.45	21.08
344.581	24.08
344.712	2.08
344.842	11.08
344.973	16.08
345.104	24.08
345.234	14.08
345.365	23.08
345.496	11.08
345.626	15.08
345.757	29.08
345.888	-1.92
346.018	23.08
346.149	28.08
346.28	50.08
346.41	7.08
346.541	18.08
346.672	17.08
346.802	27.08
346.933	26.08
347.063	29.08
347.194	20.08
347.325	12.08
347.455	36.08
347.586	21.08
347.716	20.08
347.847	32.08
347.977	39.08
348.108	30.08
348.238	29.08
348.369	36.08
348.499	58.08
348.63	43.08
348.76	56.08
348.891	50.08
349.021	57.08
349.152	53.08
349.282	60.08
349.413	56.08
349.543	43.08
349.674	16.08
349.804	33.08
349.935	21.08
350.065	24.08
350.196	24.08
350.326	33.08
350.456	14.08
350.587	32.08
350.717	35.08
350.848	10.08
350.978	13.08
351.108	-9.92
351.239	27.08
351.369	18.08
351.499	19.08
351.63	28.08
351.76	4.08
351.89	7.08
352.021	33.08
352.151	18.08
352.281	19.08
352.412	41.08
352.542	28.08
352.672	4.08
352.803	14.08
352.933	17.08
353.063	11.08
353.193	23.08
353.324	13.08
353.454	34.08
353.584	25.08
353.714	2.08
353.845	19.08
353.975	-0.92
354.105	5.08
354.235	17.08
354.365	33.08
354.496	13.08
354.626	17.08
354.756	20.08
354.886	13.08
355.016	29.08
355.146	24.08
355.277	23.08
355.407	8.08
355.537	3.08
355.667	22.08
355.797	41.08
355.927	13.08
356.057	35.08
356.187	22.08
356.318	21.08
356.448	12.08
356.578	28.08
356.708	36.08
356.838	32.08
356.968	43.08
357.098	39.08
357.228	25.08
357.358	17.08
357.488	10.08
357.618	50.08
357.748	34.08
357.878	29.08
358.008	15.08
358.138	28.08
358.268	18.08
358.398	27.08
358.528	-0.92
358.658	13.08
358.788	31.08
358.918	42.08
359.048	33.08
359.178	28.08
359.308	46.08
359.438	26.08
359.568	58.08
359.698	51.08
359.827	12.08
359.957	14.08
360.087	29.08
360.217	23.08
360.347	47.08
360.477	39.08
360.607	23.08
360.737	34.08
360.866	38.08
360.996	30.08
361.126	19.08
361.256	43.08
361.386	28.08
361.516	39.08
361.645	17.08
361.775	15.08
361.905	10.08
362.035	31.08
362.165	26.08
362.294	23.08
362.424	50.08
362.554	24.08
362.684	26.08
362.813	38.08
362.943	42.08
363.073	51.08
363.203	62.08
363.332	76.08
363.462	81.08
363.592	100.08
363.721	114.08
363.851	177.08
363.981	194.08
364.111	229.08
364.24	305.08
364.37	483.08
364.5	826.08
364.629	1790.08
364.759	3819.08
364.888	6234.08
365.018	9331.08
365.148	14778.08
365.277	12865.08
365.407	4713.08
365.537	3083.08
365.666	3967.08
365.796	1794.08
365.925	765.08
366.055	746.08
366.184	1011.08
366.314	1390.08
366.444	2435.08
366.573	2084.08
366.703	654.08
366.832	205.08
366.962	95.08
367.091	77.08
367.221	85.08
367.35	53.08
367.48	86.08
367.609	53.08
367.739	74.08
367.868	36.08
367.998	28.08
368.127	52.08
368.257	47.08
368.386	45.08
368.516	40.08
368.645	41.08
368.775	33.08
368.904	29.08
369.033	24.08
369.163	22.08
369.292	38.08
369.422	42.08
369.551	42.08
369.68	35.08
369.81	45.08
369.939	25.08
370.069	52.08
370.198	38.08
370.327	33.08
370.457	26.08
370.586	29.08
370.715	33.08
370.845	16.08
370.974	36.08
371.103	47.08
371.233	49.08
371.362	28.08
371.491	24.08
371.621	48.08
371.75	32.08
371.879	18.08
372.008	40.08
372.138	60.08
372.267	57.08
372.396	60.08
372.525	36.08
372.655	50.08
372.784	14.08
372.913	17.08
373.042	19.08
373.172	38.08
373.301	0.08
373.43	-3.92
373.559	10.08
373.688	17.08
373.818	30.08
373.947	29.08
374.076	0.08
374.205	29.08
374.334	8.08
374.463	0.08
374.593	17.08
374.722	26.08
374.851	31.08
374.98	8.08
375.109	18.08
375.238	18.08
375.367	32.08
375.496	-10.92
375.625	-3.92
375.755	12.08
375.884	30.08
376.013	22.08
376.142	-9.92
376.271	6.08
376.4	24.08
376.529	33.08
376.658	28.08
376.787	19.08
376.916	34.08
377.045	18.08
377.174	22.08
377.303	7.08
377.432	43.08
377.561	24.08
377.69	18.08
377.819	53.08
377.948	24.08
378.077	-0.92
378.206	11.08
378.335	2.08
378.464	24.08
378.593	27.08
378.722	14.08
378.851	20.08
378.98	29.08
379.108	7.08
379.237	1.08
379.366	21.08
379.495	17.08
379.624	12.08
379.753	3.08
379.882	21.08
380.011	-5.92
380.14	10.08
380.268	14.08
380.397	-1.92
380.526	26.08
380.655	0.08
380.784	-9.92
380.913	-11.92
381.041	4.08
381.17	11.08
381.299	7.08
381.428	19.08
381.557	21.08
381.685	18.08
381.814	13.08
381.943	13.08
382.072	8.08
382.2	3.08
382.329	0.08
382.458	15.08
382.587	9.08
382.715	18.08
382.844	22.08
382.973	7.08
383.102	8.08
383.23	10.08
383.359	-0.92
383.488	40.08
383.616	8.08
383.745	12.08
383.874	20.08
384.003	13.08
384.131	-9.92
384.26	16.08
384.389	20.08
384.517	5.08
384.646	12.08
384.774	14.08
384.903	41.08
385.032	31.08
385.16	10.08
385.289	19.08
385.418	12.08
385.546	18.08
385.675	3.08
385.803	30.08
385.932	21.08
386.06	10.08
386.189	21.08
386.318	2.08
386.446	3.08
386.575	17.08
386.703	22.08
386.832	23.08
386.96	-15.92
387.089	11.08
387.217	19.08
387.346	16.08
387.474	39.08
387.603	9.08
387.731	26.08
387.86	39.08
387.988	22.08
388.117	32.08
388.245	35.08
388.374	18.08
388.502	28.08
388.631	12.08
388.759	18.08
388.888	34.08
389.016	-5.92
389.144	16.08
389.273	15.08
389.401	-5.92
389.53	2.08
389.658	21.08
389.786	8.08
389.915	10.08
390.043	2.08
390.172	25.08
390.3	45.08
390.428	56.08
390.557	25.08
390.685	43.08
390.813	38.08
390.942	29.08
391.07	10.08
391.198	22.08
391.327	23.08
391.455	3.08
391.583	44.08
391.712	32.08
391.84	25.08
391.968	18.08
392.096	10.08
392.225	25.08
392.353	32.08
392.481	23.08
392.609	29.08
392.738	15.08
392.866	29.08
392.994	11.08
393.122	36.08
393.251	12.08
393.379	0.08
393.507	11.08
393.635	13.08
393.764	27.08
393.892	42.08
394.02	17.08
394.148	13.08
394.276	17.08
394.404	37.08
394.533	7.08
394.661	32.08
394.789	46.08
394.917	25.08
395.045	18.08
395.173	1.08
395.302	13.08
395.43	8.08
395.558	29.08
395.686	27.08
395.814	36.08
395.942	18.08
396.07	31.08
396.198	47.08
396.326	31.08
396.454	41.08
396.582	29.08
396.711	7.08
396.839	29.08
396.967	19.08
397.095	6.08
397.223	41.08
397.351	51.08
397.479	36.08
397.607	29.08
397.735	38.08
397.863	52.08
397.991	30.08
398.119	20.08
398.247	25.08
398.375	34.08
398.503	26.08
398.631	65.08
398.759	61.08
398.887	46.08
399.015	43.08
399.143	47.08
399.271	61.08
399.399	71.08
399.526	68.08
399.654	62.08
399.782	49.08
399.91	97.08
400.038	86.08
400.166	83.08
400.294	93.08
400.422	74.08
400.55	101.08
400.678	123.08
400.805	117.08
400.933	88.08
401.061	117.08
401.189	114.08
401.317	146.08
401.445	118.08
401.573	107.08
401.7	58.08
401.828	45.08
401.956	47.08
402.084	54.08
402.212	34.08
402.34	17.08
402.467	38.08
402.595	27.08
402.723	37.08
402.851	41.08
402.978	68.08
403.106	69.08
403.234	83.08
403.362	99.08
403.489	106.08
403.617	141.08
403.745	176.08
403.873	286.08
404	543.08
404.128	1410.08
404.256	3883.08
404.384	4980.08
404.511	5316.08
404.639	7117.08
404.767	11249.08
404.894	14560.08
405.022	4895.08
405.15	1289.08
405.277	407.08
405.405	250.08
405.533	121.08
405.66	128.08
405.788	45.08
405.916	43.08
406.043	37.08
406.171	46.08
406.299	48.08
406.426	49.08
406.554	50.08
406.681	61.08
406.809	51.08
406.937	69.08
407.064	41.08
407.192	101.08
407.319	297.08
407.447	501.08
407.574	542.08
407.702	619.08
407.83	851.08
407.957	1590.08
408.085	931.08
408.212	274.08
408.34	93.08
408.467	64.08
408.595	30.08
408.722	45.08
408.85	42.08
408.977	21.08
409.105	30.08
409.232	34.08
409.36	37.08
409.487	23.08
409.615	31.08
409.742	29.08
409.87	28.08
409.997	27.08
410.125	31.08
410.252	43.08
410.379	17.08
410.507	26.08
410.634	27.08
410.762	39.08
410.889	37.08
411.017	42.08
411.144	25.08
411.271	21.08
411.399	21.08
411.526	24.08
411.653	16.08
411.781	29.08
411.908	22.08
412.036	16.08
412.163	23.08
412.29	18.08
412.418	23.08
412.545	21.08
412.672	19.08
412.8	54.08
412.927	20.08
413.054	42.08
413.182	35.08
413.309	27.08
413.436	13.08
413.564	31.08
413.691	22.08
413.818	38.08
413.945	19.08
414.073	9.08
414.2	28.08
414.327	20.08
414.454	11.08
414.582	19.08
414.709	18.08
414.836	24.08
414.963	22.08
415.091	38.08
415.218	18.08
415.345	5.08
415.472	28.08
415.6	31.08
415.727	44.08
415.854	25.08
415.981	44.08
416.108	23.08
416.236	36.08
416.363	37.08
416.49	20.08
416.617	20.08
416.744	49.08
416.871	36.08
416.998	13.08
417.126	20.08
417.253	26.08
417.38	27.08
417.507	33.08
417.634	49.08
417.761	29.08
417.888	38.08
418.015	46.08
418.143	58.08
418.27	61.08
418.397	22.08
418.524	31.08
418.651	36.08
418.778	53.08
418.905	69.08
419.032	34.08
419.159	31.08
419.286	49.08
419.413	35.08
419.54	49.08
419.667	24.08
419.794	37.08
419.921	55.08
420.048	54.08
420.175	42.08
420.302	34.08
420.429	46.08
420.556	29.08
420.683	29.08
420.81	57.08
420.937	56.08
421.064	64.08
421.191	42.08
421.318	70.08
421.445	67.08
421.572	46.08
421.699	51.08
421.826	41.08
421.953	40.08
422.08	32.08
422.207	8.08
422.334	2.08
422.461	26.08
422.588	13.08
422.714	13.08
422.841	23.08
422.968	20.08
423.095	29.08
423.222	31.08
423.349	30.08
423.476	19.08
423.603	9.08
423.729	1.08
423.856	10.08
423.983	22.08
424.11	10.08
424.237	25.08
424.364	20.08
424.491	20.08
424.617	-4.92
424.744	0.08
424.871	4.08
424.998	10.08
425.125	12.08
425.251	18.08
425.378	21.08
425.505	25.08
425.632	22.08
425.758	11.08
425.885	33.08
426.012	25.08
426.139	44.08
426.266	35.08
426.392	30.08
426.519	21.08
426.646	13.08
426.772	37.08
426.899	-2.92
427.026	18.08
427.153	31.08
427.279	11.08
427.406	21.08
427.533	13.08
427.659	18.08
427.786	8.08
427.913	20.08
428.039	12.08
428.166	17.08
428.293	27.08
428.419	36.08
428.546	28.08
428.673	4.08
428.799	8.08
428.926	15.08
429.053	53.08
429.179	36.08
429.306	13.08
429.433	45.08
429.559	62.08
429.686	1.08
429.812	4.08
429.939	16.08
430.066	36.08
430.192	10.08
430.319	22.08
430.445	37.08
430.572	32.08
430.699	12.08
430.825	22.08
430.952	20.08
431.078	22.08
431.205	30.08
431.331	28.08
431.458	30.08
431.584	26.08
431.711	25.08
431.837	26.08
431.964	26.08
432.09	20.08
432.217	6.08
432.343	16.08
432.47	37.08
432.596	7.08
432.723	15.08
432.849	9.08
432.976	22.08
433.102	8.08
433.229	12.08
433.355	52.08
433.482	78.08
433.608	111.08
433.735	95.08
433.861	119.08
433.987	177.08
434.114	203.08
434.24	174.08
434.367	204.08
434.493	221.08
434.62	267.08
434.746	392.08
434.872	613.08
434.999	840.08
435.125	1696.08
435.252	5472.08
435.378	13332.08
435.504	15136.08
435.631	15344.08
435.757	15679.08
435.883	15679.08
436.01	15679.08
436.136	15679.08
436.262	15679.08
436.389	3406.08
436.515	1910.08
436.641	728.08
436.768	620.08
436.894	375.08
437.02	347.08
437.147	262.08
437.273	291.08
437.399	204.08
437.526	235.08
437.652	180.08
437.778	188.08
437.904	134.08
438.031	136.08
438.157	114.08
438.283	134.08
438.409	110.08
438.536	118.08
438.662	125.08
438.788	120.08
438.914	103.08
439.041	91.08
439.167	110.08
439.293	107.08
439.419	79.08
439.546	88.08
439.672	89.08
439.798	83.08
439.924	80.08
440.05	93.08
440.177	70.08
440.303	84.08
440.429	66.08
440.555	80.08
440.681	66.08
440.807	69.08
440.934	60.08
441.06	54.08
441.186	55.08
441.312	61.08
441.438	48.08
441.564	64.08
441.69	55.08
441.816	45.08
441.943	25.08
442.069	64.08
442.195	52.08
442.321	50.08
442.447	32.08
442.573	39.08
442.699	35.08
442.825	40.08
442.951	27.08
443.077	51.08
443.203	53.08
443.33	48.08
443.456	37.08
443.582	36.08
443.708	34.08
443.834	54.08
443.96	45.08
444.086	35.08
444.212	56.08
444.338	46.08
444.464	43.08
444.59	72.08
444.716	33.08
444.842	48.08
444.968	27.08
445.094	39.08
445.22	34.08
445.346	39.08
445.472	43.08
445.598	31.08
445.724	16.08
445.85	26.08
445.976	22.08
446.102	34.08
446.228	49.08
446.354	37.08
446.48	36.08
446.605	32.08
446.731	28.08
446.857	30.08
446.983	17.08
447.109	34.08
447.235	35.08
447.361	25.08
447.487	29.08
447.613	34.08
447.739	27.08
447.865	48.08
447.99	40.08
448.116	33.08
448.242	40.08
448.368	23.08
448.494	19.08
448.62	43.08
448.746	25.08
448.872	33.08
448.997	17.08
449.123	28.08
449.249	27.08
449.375	53.08
449.501	27.08
449.627	25.08
449.752	46.08
449.878	13.08
450.004	27.08
450.13	32.08
450.256	12.08
450.381	28.08
450.507	24.08
450.633	26.08
450.759	37.08
450.884	25.08
451.01	31.08
451.136	15.08
451.262	38.08
451.388	21.08
451.513	16.08
451.639	25.08
451.765	36.08
451.89	34.08
452.016	46.08
452.142	28.08
452.268	21.08
452.393	12.08
452.519	11.08
452.645	17.08
452.771	29.08
452.896	10.08
453.022	13.08
453.148	33.08
453.273	23.08
453.399	38.08
453.525	11.08
453.65	12.08
453.776	16.08
453.902	9.08
454.027	32.08
454.153	45.08
454.279	18.08
454.404	14.08
454.53	37.08
454.656	43.08
454.781	6.08
454.907	28.08
455.032	17.08
455.158	47.08
455.284	27.08
455.409	14.08
455.535	21.08
455.66	20.08
455.786	34.08
455.912	18.08
456.037	0.08
456.163	41.08
456.288	30.08
456.414	15.08
456.539	10.08
456.665	43.08
456.791	29.08
456.916	21.08
457.042	24.08
457.167	10.08
457.293	14.08
457.418	20.08
457.544	23.08
457.669	21.08
457.795	19.08
457.92	25.08
458.046	20.08
458.171	21.08
458.297	20.08
458.422	16.08
458.548	4.08
458.673	26.08
458.799	28.08
458.924	21.08
459.05	22.08
459.175	19.08
459.301	9.08
459.426	46.08
459.552	30.08
459.677	30.08
459.803	36.08
459.928	24.08
460.053	18.08
460.179	25.08
460.304	27.08
460.43	24.08
460.555	29.08
460.681	7.08
460.806	10.08
460.931	26.08
461.057	20.08
461.182	13.08
461.308	17.08
461.433	32.08
461.558	20.08
461.684	43.08
461.809	42.08
461.934	16.08
462.06	24.08
462.185	8.08
462.311	21.08
462.436	24.08
462.561	16.08
462.687	13.08
462.812	11.08
462.937	13.08
463.063	6.08
463.188	16.08
463.313	18.08
463.439	19.08
463.564	8.08
463.689	20.08
463.814	37.08
463.94	20.08
464.065	31.08
464.19	29.08
464.316	20.08
464.441	13.08
464.566	20.08
464.692	22.08
464.817	23.08
464.942	14.08
465.067	16.08
465.193	-2.92
465.318	17.08
465.443	25.08
465.568	27.08
465.694	27.08
465.819	26.08
465.944	20.08
466.069	35.08
466.194	34.08
466.32	37.08
466.445	30.08
466.57	25.08
466.695	19.08
466.82	27.08
466.946	34.08
467.071	41.08
467.196	29.08
467.321	23.08
467.446	27.08
467.572	29.08
467.697	16.08
467.822	39.08
467.947	27.08
468.072	16.08
468.197	21.08
468.323	17.08
468.448	24.08
468.573	9.08
468.698	17.08
468.823	37.08
468.948	30.08
469.073	50.08
469.198	50.08
469.324	54.08
469.449	34.08
469.574	46.08
469.699	39.08
469.824	42.08
469.949	18.08
470.074	25.08
470.199	33.08
470.324	29.08
470.449	52.08
470.574	32.08
470.7	29.08
470.825	31.08
470.95	48.08
471.075	31.08
471.2	48.08
471.325	47.08
471.45	26.08
471.575	4.08
471.7	32.08
471.825	21.08
471.95	12.08
472.075	25.08
472.2	24.08
472.325	14.08
472.45	28.08
472.575	32.08
472.7	17.08
472.825	37.08
472.95	37.08
473.075	31.08
473.2	33.08
473.325	45.08
473.45	44.08
473.575	40.08
473.7	35.08
473.825	24.08
473.95	19.08
474.075	25.08
474.2	20.08
474.325	20.08
474.45	27.08
474.574	33.08
474.699	24.08
474.824	18.08
474.949	8.08
475.074	19.08
475.199	14.08
475.324	30.08
475.449	19.08
475.574	29.08
475.699	22.08
475.824	17.08
475.949	8.08
476.073	22.08
476.198	18.08
476.323	10.08
476.448	12.08
476.573	18.08
476.698	16.08
476.823	6.08
476.947	11.08
477.072	14.08
477.197	6.08
477.322	6.08
477.447	12.08
477.572	21.08
477.697	20.08
477.821	20.08
477.946	26.08
478.071	44.08
478.196	26.08
478.321	18.08
478.445	14.08
478.57	11.08
478.695	3.08
478.82	22.08
478.945	17.08
479.069	9.08
479.194	-1.92
479.319	25.08
479.444	29.08
479.569	20.08
479.693	16.08
479.818	13.08
479.943	29.08
480.068	17.08
480.192	29.08
480.317	26.08
480.442	12.08
480.567	5.08
480.691	20.08
480.816	23.08
480.941	5.08
481.066	19.08
481.19	20.08
481.315	22.08
481.44	10.08
481.564	0.08
481.689	13.08
481.814	21.08
481.938	20.08
482.063	9.08
482.188	0.08
482.313	24.08
482.437	12.08
482.562	17.08
482.687	30.08
482.811	31.08
482.936	22.08
483.061	17.08
483.185	12.08
483.31	28.08
483.435	27.08
483.559	31.08
483.684	28.08
483.808	38.08
483.933	33.08
484.058	16.08
484.182	18.08
484.307	17.08
484.432	17.08
484.556	5.08
484.681	3.08
484.805	-2.92
484.93	14.08
485.055	22.08
485.179	38.08
485.304	13.08
485.428	19.08
485.553	16.08
485.678	20.08
485.802	11.08
485.927	35.08
486.051	24.08
486.176	22.08
486.3	4.08
486.425	17.08
486.549	37.08
486.674	45.08
486.799	20.08
486.923	11.08
487.048	17.08
487.172	20.08
487.297	25.08
487.421	22.08
487.546	5.08
487.67	6.08
487.795	-9.92
487.919	7.08
488.044	23.08
488.168	20.08
488.293	6.08
488.417	-0.92
488.542	20.08
488.666	28.08
488.791	36.08
488.915	19.08
489.04	31.08
489.164	23.08
489.289	39.08
489.413	20.08
489.538	18.08
489.662	35.08
489.786	16.08
489.911	23.08
490.035	20.08
490.16	21.08
490.284	18.08
490.409	6.08
490.533	9.08
490.658	32.08
490.782	20.08
490.906	42.08
491.031	109.08
491.155	147.08
491.28	142.08
491.404	156.08
491.528	246.08
491.653	147.08
491.777	61.08
491.902	20.08
492.026	21.08
492.15	18.08
492.275	38.08
492.399	8.08
492.524	21.08
492.648	26.08
492.772	20.08
492.897	32.08
493.021	11.08
493.145	34.08
493.27	25.08
493.394	-8.92
493.518	-7.92
493.643	-4.92
493.767	14.08
493.891	12.08
494.016	17.08
494.14	4.08
494.264	32.08
494.389	16.08
494.513	10.08
494.637	12.08
494.762	32.08
494.886	26.08
495.01	25.08
495.134	16.08
495.259	22.08
495.383	14.08
495.507	16.08
495.632	38.08
495.756	26.08
495.88	16.08
496.004	18.08
496.129	12.08
496.253	27.08
496.377	10.08
496.501	24.08
496.626	18.08
496.75	22.08
496.874	30.08
496.998	5.08
497.123	35.08
497.247	0.08
497.371	25.08
497.495	31.08
497.62	9.08
497.744	15.08
497.868	13.08
497.992	20.08
498.116	4.08
498.241	28.08
498.365	8.08
498.489	11.08
498.613	20.08
498.737	6.08
498.862	9.08
498.986	-0.92
499.11	8.08
499.234	1.08
499.358	5.08
499.482	17.08
499.607	17.08
499.731	24.08
499.855	15.08
499.979	4.08
500.103	21.08
500.227	21.08
500.351	15.08
500.476	14.08
500.6	18.08
500.724	21.08
500.848	15.08
500.972	14.08
501.096	19.08
501.22	33.08
501.344	23.08
501.469	1.08
501.593	21.08
501.717	20.08
501.841	26.08
501.965	26.08
502.089	8.08
502.213	18.08
502.337	20.08
502.461	9.08
502.585	22.08
502.709	36.08
502.834	10.08
502.958	14.08
503.082	24.08
503.206	18.08
503.33	28.08
503.454	32.08
503.578	41.08
503.702	37.08
503.826	17.08
503.95	25.08
504.074	37.08
504.198	19.08
504.322	14.08
504.446	2.08
504.57	0.08
504.694	18.08
504.818	12.08
504.942	24.08
505.066	2.08
505.19	13.08
505.314	21.08
505.438	13.08
505.562	12.08
505.686	14.08
505.81	32.08
505.934	26.08
506.058	24.08
506.182	21.08
506.306	34.08
506.43	15.08
506.554	15.08
506.678	10.08
506.802	24.08
506.926	6.08
507.05	21.08
507.174	33.08
507.298	32.08
507.422	15.08
507.546	29.08
507.67	57.08
507.794	7.08
507.918	18.08
508.042	20.08
508.165	6.08
508.289	22.08
508.413	30.08
508.537	16.08
508.661	24.08
508.785	16.08
508.909	27.08
509.033	39.08
509.157	29.08
509.281	38.08
509.405	15.08
509.528	21.08
509.652	30.08
509.776	16.08
509.9	40.08
510.024	26.08
510.148	41.08
510.272	13.08
510.396	36.08
510.519	7.08
510.643	39.08
510.767	27.08
510.891	44.08
511.015	33.08
511.139	43.08
511.263	45.08
511.386	36.08
511.51	33.08
511.634	48.08
511.758	44.08
511.882	12.08
512.006	45.08
512.129	50.08
512.253	72.08
512.377	66.08
512.501	97.08
512.625	81.08
512.748	75.08
512.872	59.08
512.996	34.08
513.12	52.08
513.244	54.08
513.367	70.08
513.491	77.08
513.615	76.08
513.739	51.08
513.862	70.08
513.986	88.08
514.11	117.08
514.234	85.08
514.358	102.08
514.481	111.08
514.605	91.08
514.729	106.08
514.853	110.08
514.976	74.08
515.1	96.08
515.224	101.08
515.348	74.08
515.471	68.08
515.595	99.08
515.719	140.08
515.842	218.08
515.966	286.08
516.09	314.08
516.214	311.08
516.337	330.08
516.461	218.08
516.585	78.08
516.708	26.08
516.832	22.08
516.956	19.08
517.08	-6.92
517.203	-12.92
517.327	17.08
517.451	25.08
517.574	24.08
517.698	13.08
517.822	10.08
517.945	23.08
518.069	21.08
518.193	27.08
518.316	13.08
518.44	19.08
518.564	4.08
518.687	10.08
518.811	8.08
518.935	29.08
519.058	1.08
519.182	25.08
519.306	28.08
519.429	11.08
519.553	42.08
519.676	25.08
519.8	36.08
519.924	20.08
520.047	28.08
520.171	1.08
520.294	18.08
520.418	31.08
520.542	8.08
520.665	30.08
520.789	5.08
520.913	8.08
521.036	4.08
521.16	10.08
521.283	3.08
521.407	2.08
521.53	0.08
521.654	-9.92
521.778	25.08
521.901	20.08
522.025	8.08
522.148	5.08
522.272	16.08
522.395	17.08
522.519	-7.92
522.643	10.08
522.766	20.08
522.89	10.08
523.013	11.08
523.137	-2.92
523.26	-3.92
523.384	13.08
523.507	5.08
523.631	0.08
523.754	3.08
523.878	2.08
524.002	18.08
524.125	1.08
524.249	2.08
524.372	16.08
524.496	35.08
524.619	31.08
524.743	18.08
524.866	32.08
524.99	8.08
525.113	6.08
525.237	43.08
525.36	25.08
525.484	13.08
525.607	3.08
525.731	-4.92
525.854	13.08
525.978	19.08
526.101	5.08
526.224	0.08
526.348	-5.92
526.471	-1.92
526.595	20.08
526.718	7.08
526.842	5.08
526.965	31.08
527.089	3.08
527.212	11.08
527.336	4.08
527.459	12.08
527.582	6.08
527.706	14.08
527.829	21.08
527.953	29.08
528.076	21.08
528.2	11.08
528.323	16.08
528.446	33.08
528.57	22.08
528.693	25.08
528.817	2.08
528.94	3.08
529.064	36.08
529.187	3.08
529.31	15.08
529.434	16.08
529.557	13.08
529.68	4.08
529.804	5.08
529.927	8.08
530.051	6.08
530.174	-7.92
530.297	5.08
530.421	44.08
530.544	24.08
530.668	24.08
530.791	11.08
530.914	27.08
531.038	9.08
531.161	-4.92
531.284	5.08
531.408	8.08
531.531	4.08
531.654	-8.92
531.778	26.08
531.901	2.08
532.024	21.08
532.148	16.08
532.271	23.08
532.394	26.08
532.518	20.08
532.641	15.08
532.764	26.08
532.888	25.08
533.011	12.08
533.134	-12.92
533.258	12.08
533.381	15.08
533.504	21.08
533.628	7.08
533.751	12.08
533.874	20.08
533.997	25.08
534.121	4.08
534.244	14.08
534.367	21.08
534.491	14.08
534.614	5.08
534.737	9.08
534.86	7.08
534.984	12.08
535.107	18.08
535.23	30.08
535.354	9.08
535.477	-4.92
535.6	6.08
535.723	21.08
535.847	16.08
535.97	17.08
536.093	28.08
536.216	12.08
536.34	23.08
536.463	-4.92
536.586	6.08
536.709	11.08
536.833	10.08
536.956	27.08
537.079	8.08
537.202	25.08
537.325	0.08
537.449	-2.92
537.572	27.08
537.695	23.08
537.818	5.08
537.941	13.08
538.065	21.08
538.188	25.08
538.311	34.08
538.434	14.08
538.558	23.08
538.681	19.08
538.804	19.08
538.927	22.08
539.05	5.08
539.173	17.08
539.297	3.08
539.42	7.08
539.543	19.08
539.666	12.08
539.789	22.08
539.913	24.08
540.036	24.08
540.159	30.08
540.282	11.08
540.405	2.08
540.528	17.08
540.651	26.08
540.775	8.08
540.898	17.08
541.021	34.08
541.144	34.08
541.267	14.08
541.39	21.08
541.513	42.08
541.637	15.08
541.76	9.08
541.883	23.08
542.006	50.08
542.129	46.08
542.252	28.08
542.375	37.08
542.498	48.08
542.622	48.08
542.745	25.08
542.868	34.08
542.991	43.08
543.114	48.08
543.237	59.08
543.36	58.08
543.483	56.08
543.606	59.08
543.73	74.08
543.853	62.08
543.976	84.08
544.099	108.08
544.222	117.08
544.345	116.08
544.468	157.08
544.591	226.08
544.714	270.08
544.837	369.08
544.96	438.08
545.083	658.08
545.206	1044.08
545.329	2387.08
545.453	10868.08
545.576	15237.08
545.699	15679.08
545.822	15679.08
545.945	15679.08
546.068	15679.08
546.191	15679.08
546.314	15679.08
546.437	15679.08
546.56	15679.08
546.683	15679.08
546.806	15679.08
546.929	15679.08
547.052	15679.08
547.175	15679.08
547.298	15679.08
547.421	15679.08
547.544	15679.08
547.667	3486.08
547.79	1952.08
547.913	948.08
548.036	848.08
548.159	629.08
548.282	604.08
548.405	472.08
548.528	476.08
548.651	388.08
548.774	390.08
548.897	349.08
549.02	357.08
549.143	318.08
549.266	291.08
549.389	274.08
549.512	242.08
549.635	236.08
549.758	240.08
549.881	193.08
550.004	212.08
550.127	201.08
550.25	180.08
550.373	171.08
550.496	179.08
550.619	158.08
550.742	143.08
550.865	138.08
550.988	147.08
551.111	154.08
551.234	150.08
551.356	114.08
551.479	140.08
551.602	119.08
551.725	115.08
551.848	109.08
551.971	121.08
552.094	115.08
552.217	109.08
552.34	119.08
552.463	95.08
552.586	109.08
552.709	97.08
552.832	101.08
552.955	121.08
553.077	102.08
553.2	102.08
553.323	69.08
553.446	89.08
553.569	92.08
553.692	86.08
553.815	98.08
553.938	108.08
554.061	100.08
554.184	97.08
554.306	96.08
554.429	75.08
554.552	84.08
554.675	70.08
554.798	70.08
554.921	75.08
555.044	59.08
555.167	73.08
555.29	72.08
555.412	50.08
555.535	55.08
555.658	69.08
555.781	72.08
555.904	76.08
556.027	88.08
556.15	74.08
556.272	70.08
556.395	90.08
556.518	84.08
556.641	73.08
556.764	74.08
556.887	71.08
557.01	61.08
557.132	37.08
557.255	66.08
557.378	57.08
557.501	61.08
557.624	68.08
557.747	64.08
557.869	65.08
557.992	81.08
558.115	101.08
558.238	95.08
558.361	100.08
558.483	77.08
558.606	70.08
558.729	52.08
558.852	82.08
558.975	62.08
559.098	64.08
559.22	68.08
559.343	54.08
559.466	50.08
559.589	40.08
559.712	52.08
559.834	62.08
559.957	61.08
560.08	50.08
560.203	64.08
560.325	67.08
560.448	62.08
560.571	48.08
560.694	44.08
560.817	59.08
560.939	62.08
561.062	64.08
561.185	61.08
561.308	60.08
561.43	38.08
561.553	57.08
561.676	38.08
561.799	63.08
561.921	46.08
562.044	62.08
562.167	41.08
562.29	58.08
562.413	67.08
562.535	66.08
562.658	51.08
562.781	62.08
562.903	80.08
563.026	81.08
563.149	141.08
563.272	122.08
563.394	124.08
563.517	109.08
563.64	72.08
563.763	41.08
563.885	49.08
564.008	46.08
564.131	46.08
564.254	36.08
564.376	45.08
564.499	14.08
564.622	12.08
564.744	36.08
564.867	33.08
564.99	50.08
565.113	54.08
565.235	46.08
565.358	28.08
565.481	15.08
565.603	16.08
565.726	34.08
565.849	41.08
565.971	52.08
566.094	22.08
566.217	34.08
566.34	40.08
566.462	40.08
566.585	54.08
566.708	49.08
566.83	30.08
566.953	43.08
567.076	37.08
567.198	41.08
567.321	28.08
567.444	32.08
567.566	32.08
567.689	28.08
567.812	26.08
567.934	39.08
568.057	28.08
568.18	46.08
568.302	32.08
568.425	22.08
568.548	12.08
568.67	27.08
568.793	9.08
568.916	24.08
569.038	40.08
569.161	31.08
569.283	34.08
569.406	34.08
569.529	28.08
569.651	12.08
569.774	11.08
569.897	12.08
570.019	30.08
570.142	28.08
570.265	45.08
570.387	41.08
570.51	25.08
570.632	31.08
570.755	28.08
570.878	25.08
571	31.08
571.123	17.08
571.246	36.08
571.368	26.08
571.491	23.08
571.613	22.08
571.736	9.08
571.859	31.08
571.981	23.08
572.104	21.08
572.226	25.08
572.349	16.08
572.472	35.08
572.594	20.08
572.717	43.08
572.839	23.08
572.962	40.08
573.085	41.08
573.207	23.08
573.33	14.08
573.452	40.08
573.575	34.08
573.697	27.08
573.82	12.08
573.943	35.08
574.065	40.08
574.188	30.08
574.31	47.08
574.433	46.08
574.555	48.08
574.678	33.08
574.801	53.08
574.923	42.08
575.046	42.08
575.168	13.08
575.291	28.08
575.413	25.08
575.536	16.08
575.659	48.08
575.781	48.08
575.904	44.08
576.026	62.08
576.149	82.08
576.271	128.08
576.394	199.08
576.516	513.08
576.639	3597.08
576.761	10081.08
576.884	8722.08
577.007	8626.08
577.129	7910.08
577.252	3665.08
577.374	1277.08
577.497	515.08
577.619	267.08
577.742	176.08
577.864	156.08
577.987	112.08
578.109	114.08
578.232	124.08
578.354	137.08
578.477	178.08
578.599	366.08
578.722	1936.08
578.844	9050.08
578.967	9723.08
579.089	8638.08
579.212	9011.08
579.334	5204.08
579.457	1904.08
579.579	720.08
579.702	331.08
579.824	212.08
579.947	128.08
580.069	127.08
580.192	79.08
580.314	102.08
580.437	99.08
580.559	90.08
580.682	33.08
580.804	52.08
580.927	60.08
581.049	65.08
581.172	54.08
581.294	47.08
581.417	58.08
581.539	59.08
581.662	43.08
581.784	50.08
581.907	36.08
582.029	26.08
582.152	23.08
582.274	45.08
582.396	51.08
582.519	32.08
582.641	26.08
582.764	17.08
582.886	56.08
583.009	24.08
583.131	38.08
583.254	20.08
583.376	49.08
583.499	27.08
583.621	9.08
583.743	48.08
583.866	26.08
583.988	37.08
584.111	47.08
584.233	33.08
584.356	38.08
584.478	28.08
584.601	10.08
584.723	10.08
584.845	36.08
584.968	22.08
585.09	11.08
585.213	41.08
585.335	22.08
585.458	35.08
585.58	35.08
585.702	28.08
585.825	30.08
585.947	35.08
586.07	20.08
586.192	31.08
586.315	28.08
586.437	17.08
586.559	15.08
586.682	13.08
586.804	31.08
586.927	10.08
587.049	17.08
587.171	8.08
587.294	25.08
587.416	59.08
587.539	14.08
587.661	21.08
587.783	27.08
587.906	17.08
588.028	33.08
588.151	28.08
588.273	48.08
588.395	16.08
588.518	21.08
588.64	25.08
588.763	30.08
588.885	33.08
589.007	34.08
589.13	27.08
589.252	9.08
589.375	22.08
589.497	30.08
589.619	27.08
589.742	36.08
589.864	33.08
589.986	22.08
590.109	11.08
590.231	26.08
590.354	21.08
590.476	8.08
590.598	10.08
590.721	25.08
590.843	12.08
590.965	25.08
591.088	39.08
591.21	22.08
591.332	32.08
591.455	25.08
591.577	8.08
591.7	5.08
591.822	16.08
591.944	25.08
592.067	31.08
592.189	14.08
592.311	35.08
592.434	26.08
592.556	27.08
592.678	25.08
592.801	26.08
592.923	23.08
593.045	29.08
593.168	20.08
593.29	25.08
593.412	30.08
593.535	20.08
593.657	5.08
593.779	19.08
593.902	2.08
594.024	12.08
594.146	37.08
594.269	44.08
594.391	10.08
594.513	27.08
594.636	18.08
594.758	18.08
594.88	33.08
595.003	42.08
595.125	9.08
595.247	28.08
595.37	21.08
595.492	11.08
595.614	25.08
595.737	18.08
595.859	3.08
595.981	17.08
596.104	12.08
596.226	22.08
596.348	1.08
596.471	18.08
596.593	26.08
596.715	18.08
596.838	12.08
596.96	18.08
597.082	28.08
597.204	30.08
597.327	18.08
597.449	5.08
597.571	33.08
597.694	29.08
597.816	13.08
597.938	6.08
598.061	13.08
598.183	23.08
598.305	38.08
598.427	7.08
598.55	13.08
598.672	31.08
598.794	20.08
598.917	8.08
599.039	9.08
599.161	27.08
599.283	16.08
599.406	23.08
599.528	42.08
599.65	31.08
599.773	13.08
599.895	36.08
600.017	36.08
600.139	19.08
600.262	12.08
600.384	13.08
600.506	35.08
600.628	28.08
600.751	18.08
600.873	21.08
600.995	24.08
601.118	37.08
601.24	13.08
601.362	32.08
601.484	15.08
601.607	23.08
601.729	13.08
601.851	20.08
601.973	10.08
602.096	16.08
602.218	22.08
602.34	11.08
602.462	12.08
602.585	19.08
602.707	4.08
602.829	22.08
602.951	17.08
603.074	16.08
603.196	6.08
603.318	-6.92
603.44	18.08
603.563	24.08
603.685	6.08
603.807	29.08
603.929	11.08
604.052	16.08
604.174	21.08
604.296	2.08
604.418	26.08
604.541	46.08
604.663	17.08
604.785	22.08
604.907	14.08
605.03	3.08
605.152	32.08
605.274	25.08
605.396	36.08
605.519	22.08
605.641	14.08
605.763	16.08
605.885	14.08
606.008	24.08
606.13	17.08
606.252	30.08
606.374	17.08
606.496	3.08
606.619	25.08
606.741	14.08
606.863	21.08
606.985	17.08
607.108	22.08
607.23	18.08
607.352	-3.92
607.474	14.08
607.596	17.08
607.719	27.08
607.841	19.08
607.963	6.08
608.085	0.08
608.207	20.08
608.33	12.08
608.452	-7.92
608.574	22.08
608.696	20.08
608.819	1.08
608.941	18.08
609.063	21.08
609.185	8.08
609.307	20.08
609.43	17.08
609.552	34.08
609.674	14.08
609.796	25.08
609.918	22.08
610.041	16.08
610.163	12.08
610.285	5.08
610.407	13.08
610.529	7.08
610.652	12.08
610.774	16.08
610.896	12.08
611.018	21.08
611.14	18.08
611.263	0.08
611.385	-9.92
611.507	22.08
611.629	16.08
611.751	22.08
611.873	37.08
611.996	24.08
612.118	21.08
612.24	19.08
612.362	17.08
612.484	26.08
612.607	45.08
612.729	38.08
612.851	32.08
612.973	26.08
613.095	14.08
613.218	13.08
613.34	25.08
613.462	16.08
613.584	18.08
613.706	14.08
613.828	28.08
613.951	15.08
614.073	8.08
614.195	5.08
614.317	25.08
614.439	21.08
614.561	10.08
614.684	14.08
614.806	15.08
614.928	33.08
615.05	12.08
615.172	12.08
615.294	29.08
615.417	9.08
615.539	25.08
615.661	20.08
615.783	33.08
615.905	23.08
616.027	16.08
616.15	34.08
616.272	3.08
616.394	-4.92
616.516	9.08
616.638	16.08
616.76	9.08
616.883	12.08
617.005	6.08
617.127	8.08
617.249	20.08
617.371	18.08
617.493	17.08
617.615	29.08
617.738	21.08
617.86	18.08
617.982	16.08
618.104	11.08
618.226	21.08
618.348	7.08
618.471	13.08
618.593	28.08
618.715	16.08
618.837	12.08
618.959	10.08
619.081	28.08
619.203	16.08
619.326	22.08
619.448	33.08
619.57	29.08
619.692	24.08
619.814	23.08
619.936	21.08
620.058	20.08
620.181	9.08
620.303	6.08
620.425	30.08
620.547	1.08
620.669	11.08
620.791	14.08
620.913	16.08
621.036	14.08
621.158	24.08
621.28	21.08
621.402	16.08
621.524	18.08
621.646	16.08
621.768	14.08
621.891	-6.92
622.013	8.08
622.135	11.08
622.257	-0.92
622.379	-1.92
622.501	8.08
622.623	5.08
622.745	3.08
622.868	0.08
622.99	13.08
623.112	9.08
623.234	1.08
623.356	16.08
623.478	9.08
623.6	17.08
623.722	20.08
623.845	26.08
623.967	10.08
624.089	16.08
624.211	11.08
624.333	38.08
624.455	21.08
624.577	0.08
624.699	16.08
624.822	11.08
624.944	0.08
625.066	12.08
625.188	14.08
625.31	26.08
625.432	32.08
625.554	-8.92
625.676	26.08
625.799	32.08
625.921	25.08
626.043	26.08
626.165	14.08
626.287	0.08
626.409	20.08
626.531	-1.92
626.653	18.08
626.775	21.08
626.898	28.08
627.02	29.08
627.142	40.08
627.264	33.08
627.386	10.08
627.508	12.08
627.63	0.08
627.752	11.08
627.874	12.08
627.997	23.08
628.119	23.08
628.241	29.08
628.363	38.08
628.485	17.08
628.607	23.08
628.729	17.08
628.851	-3.92
628.973	10.08
629.096	-0.92
629.218	-1.92
629.34	2.08
629.462	0.08
629.584	2.08
629.706	12.08
629.828	40.08
629.95	11.08
630.072	20.08
630.195	26.08
630.317	25.08
630.439	14.08
630.561	4.08
630.683	-2.92
630.805	16.08
630.927	14.08
631.049	21.08
631.171	9.08
631.293	15.08
631.416	20.08
631.538	9.08
631.66	28.08
631.782	11.08
631.904	21.08
632.026	0.08
632.148	12.08
632.27	16.08
632.392	11.08
632.514	14.08
632.637	18.08
632.759	3.08
632.881	7.08
633.003	9.08
633.125	2.08
633.247	9.08
633.369	12.08
633.491	7.08
633.613	26.08
633.735	6.08
633.858	17.08
633.98	7.08
634.102	10.08
634.224	-7.92
634.346	1.08
634.468	15.08
634.59	19.08
634.712	6.08
634.834	21.08
634.956	13.08
635.078	5.08
635.201	-12.92
635.323	-2.92
635.445	-3.92
635.567	-9.92
635.689	16.08
635.811	16.08
635.933	8.08
636.055	14.08
636.177	1.08
636.299	25.08
636.421	12.08
636.544	1.08
636.666	17.08
636.788	22.08
636.91	24.08
637.032	11.08
637.154	8.08
637.276	35.08
637.398	24.08
637.52	16.08
637.642	25.08
637.764	23.08
637.887	6.08
638.009	3.08
638.131	8.08
638.253	8.08
638.375	25.08
638.497	29.08
638.619	-3.92
638.741	12.08
638.863	-18.92
638.985	-5.92
639.107	-2.92
639.23	22.08
639.352	17.08
639.474	22.08
639.596	10.08
639.718	7.08
639.84	21.08
639.962	17.08
640.084	9.08
640.206	16.08
640.328	-2.92
640.45	-5.92
640.573	16.08
640.695	28.08
640.817	3.08
640.939	18.08
641.061	12.08
641.183	11.08
641.305	22.08
641.427	1.08
641.549	1.08
641.671	19.08
641.793	6.08
641.915	24.08
642.038	21.08
642.16	8.08
642.282	23.08
642.404	0.08
642.526	12.08
642.648	11.08
642.77	-6.92
642.892	19.08
643.014	21.08
643.136	5.08
643.258	27.08
643.381	16.08
643.503	13.08
643.625	6.08
643.747	-1.92
643.869	12.08
643.991	7.08
644.113	0.08
644.235	15.08
644.357	17.08
644.479	16.08
644.601	12.08
644.723	7.08
644.846	8.08
644.968	14.08
645.09	10.08
645.212	1.08
645.334	22.08
645.456	21.08
645.578	6.08
645.7	6.08
645.822	9.08
645.944	15.08
646.066	7.08
646.188	10.08
646.311	22.08
646.433	-4.92
646.555	28.08
646.677	14.08
646.799	14.08
646.921	12.08
647.043	12.08
647.165	-15.92
647.287	10.08
647.409	18.08
647.531	21.08
647.654	-3.92
647.776	10.08
647.898	24.08
648.02	25.08
648.142	14.08
648.264	-0.92
648.386	10.08
648.508	-1.92
648.63	11.08
648.752	9.08
648.874	1.08
648.997	-2.92
649.119	32.08
649.241	2.08
649.363	26.08
649.485	15.08
649.607	4.08
649.729	3.08
649.851	-5.92
649.973	2.08
650.095	20.08
650.217	-11.92
650.34	0.08
650.462	-6.92
650.584	13.08
650.706	12.08
650.828	26.08
650.95	17.08
651.072	31.08
651.194	12.08
651.316	3.08
651.438	18.08
651.56	7.08
651.683	-2.92
651.805	10.08
651.927	13.08
652.049	3.08
652.171	4.08
652.293	-1.92
652.415	-14.92
652.537	-16.92
652.659	-5.92
652.781	16.08
652.903	20.08
653.026	14.08
653.148	19.08
653.27	12.08
653.392	5.08
653.514	4.08
653.636	1.08
653.758	6.08
653.88	-3.92
654.002	-1.92
654.124	4.08
654.247	-5.92
654.369	33.08
654.491	10.08
654.613	12.08
654.735	-3.92
654.857	23.08
654.979	13.08
655.101	13.08
655.223	27.08
655.345	21.08
655.468	35.08
655.59	14.08
655.712	9.08
655.834	8.08
655.956	22.08
656.078	0.08
656.2	20.08
656.322	15.08
656.444	-6.92
656.566	12.08
656.689	12.08
656.811	2.08
656.933	25.08
657.055	-10.92
657.177	22.08
657.299	22.08
657.421	4.08
657.543	0.08
657.665	-4.92
657.787	13.08
657.91	16.08
658.032	23.08
658.154	0.08
658.276	8.08
658.398	-19.92
658.52	6.08
658.642	16.08
658.764	9.08
658.886	-5.92
659.009	12.08
659.131	22.08
659.253	9.08
659.375	5.08
659.497	11.08
659.619	6.08
659.741	2.08
659.863	8.08
659.985	1.08
660.108	17.08
660.23	-9.92
660.352	10.08
660.474	13.08
660.596	18.08
660.718	9.08
660.84	5.08
660.962	0.08
661.084	-9.92
661.207	5.08
661.329	12.08
661.451	-2.92
661.573	2.08
661.695	19.08
661.817	23.08
661.939	36.08
662.061	30.08
662.184	10.08
662.306	-3.92
662.428	4.08
662.55	6.08
662.672	-4.92
662.794	10.08
662.916	11.08
663.038	-1.92
663.161	14.08
663.283	13.08
663.405	13.08
663.527	2.08
663.649	-0.92
663.771	-0.92
663.893	-6.92
664.015	16.08
664.138	13.08
664.26	18.08
664.382	18.08
664.504	3.08
664.626	-4.92
664.748	-4.92
664.87	1.08
664.992	25.08
665.115	15.08
665.237	5.08
665.359	4.08
665.481	5.08
665.603	-1.92
665.725	-11.92
665.847	-26.92
665.97	-3.92
666.092	0.08
666.214	24.08
666.336	10.08
666.458	25.08
666.58	10.08
666.702	5.08
666.825	0.08
666.947	-7.92
667.069	4.08
667.191	17.08
667.313	12.08
667.435	4.08
667.557	-9.92
667.68	-2.92
667.802	2.08
667.924	12.08
668.046	4.08
668.168	24.08
668.29	29.08
668.412	3.08
668.535	11.08
668.657	6.08
668.779	-4.92
668.901	-5.92
669.023	6.08
669.145	25.08
669.267	3.08
669.39	8.08
669.512	-1.92
669.634	7.08
669.756	-15.92
669.878	-3.92
670	16.08
670.123	0.08
670.245	40.08
670.367	27.08
670.489	16.08
670.611	11.08
670.733	12.08
670.856	-8.92
670.978	25.08
671.1	16.08
671.222	9.08
671.344	20.08
671.466	10.08
671.589	-15.92
671.711	-15.92
671.833	4.08
671.955	10.08
672.077	-13.92
672.199	14.08
672.322	31.08
672.444	7.08
672.566	12.08
672.688	0.08
672.81	18.08
672.932	19.08
673.055	0.08
673.177	-10.92
673.299	5.08
673.421	-8.92
673.543	0.08
673.665	26.08
673.788	10.08
673.91	-12.92
674.032	-8.92
674.154	4.08
674.276	20.08
674.399	4.08
674.521	2.08
674.643	9.08
674.765	0.08
674.887	6.08
675.009	10.08
675.132	-0.92
675.254	14.08
675.376	-1.92
675.498	2.08
675.62	26.08
675.743	18.08
675.865	20.08
675.987	11.08
676.109	12.08
676.231	11.08
676.354	27.08
676.476	4.08
676.598	14.08
676.72	1.08
676.842	29.08
676.965	15.08
677.087	11.08
677.209	13.08
677.331	13.08
677.453	5.08
677.576	15.08
677.698	14.08
677.82	14.08
677.942	3.08
678.064	-8.92
678.187	16.08
678.309	8.08
678.431	7.08
678.553	4.08
678.675	26.08
678.798	9.08
678.92	9.08
679.042	2.08
679.164	-6.92
679.286	29.08
679.409	-11.92
679.531	-8.92
679.653	10.08
679.775	-5.92
679.898	2.08
680.02	-6.92
680.142	0.08
680.264	12.08
680.386	-12.92
680.509	-3.92
680.631	10.08
680.753	17.08
680.875	-9.92
680.998	13.08
681.12	-2.92
681.242	20.08
681.364	-8.92
681.486	13.08
681.609	-5.92
681.731	-10.92
681.853	-28.92
681.975	0.08
682.098	-3.92
682.22	20.08
682.342	18.08
682.464	38.08
682.587	2.08
682.709	5.08
682.831	1.08
682.953	6.08
683.076	-3.92
683.198	21.08
683.32	9.08
683.442	5.08
683.565	14.08
683.687	-4.92
683.809	16.08
683.931	-10.92
684.054	-1.92
684.176	5.08
684.298	5.08
684.42	11.08
684.543	5.08
684.665	-2.92
684.787	-2.92
684.909	13.08
685.032	16.08
685.154	-9.92
685.276	21.08
685.398	1.08
685.521	-13.92
685.643	14.08
685.765	18.08
685.887	11.08
686.01	16.08
686.132	10.08
686.254	-1.92
686.377	21.08
686.499	22.08
686.621	20.08
686.743	6.08
686.866	7.08
686.988	41.08
687.11	11.08
687.232	-1.92
687.355	1.08
687.477	9.08
687.599	10.08
687.722	-3.92
687.844	6.08
687.966	12.08
688.088	18.08
688.211	38.08
688.333	18.08
688.455	1.08
688.578	17.08
688.7	16.08
688.822	4.08
688.944	-1.92
689.067	35.08
689.189	14.08
689.311	-6.92
689.434	-1.92
689.556	14.08
689.678	17.08
689.801	-7.92
689.923	21.08
690.045	39.08
690.167	21.08
690.29	12.08
690.412	3.08
690.534	9.08
690.657	5.08
690.779	23.08
690.901	27.08
691.024	6.08
691.146	4.08
691.268	-1.92
691.391	31.08
691.513	18.08
691.635	17.08
691.758	4.08
691.88	20.08
692.002	-3.92
692.125	-4.92
692.247	-2.92
692.369	-0.92
692.492	0.08
692.614	13.08
692.736	-6.92
692.859	-1.92
692.981	5.08
693.103	-6.92
693.226	10.08
693.348	26.08
693.47	-1.92
693.593	23.08
693.715	28.08
693.837	32.08
693.96	13.08
694.082	5.08
694.204	8.08
694.327	4.08
694.449	-7.92
694.571	6.08
694.694	0.08
694.816	2.08
694.938	1.08
695.061	4.08
695.183	8.08
695.305	11.08
695.428	17.08
695.55	-2.92
695.672	-1.92
695.795	0.08
695.917	13.08
696.04	8.08
696.162	-1.92
696.284	-0.92
696.407	3.08
696.529	5.08
696.651	40.08
696.774	5.08
696.896	27.08
697.019	18.08
697.141	7.08
697.263	-7.92
697.386	15.08
697.508	-1.92
697.63	4.08
697.753	7.08
697.875	18.08
697.998	10.08
698.12	17.08
698.242	8.08
698.365	4.08
698.487	7.08
698.61	9.08
698.732	6.08
698.854	12.08
698.977	8.08
699.099	23.08
699.221	-11.92
699.344	5.08
699.466	6.08
699.589	2.08
699.711	1.08
699.834	11.08
699.956	11.08
700.078	19.08
700.201	3.08
700.323	20.08
700.446	17.08
700.568	2.08
700.69	2.08
700.813	12.08
700.935	3.08
701.058	0.08
701.18	-9.92
701.302	-6.92
701.425	-1.92
701.547	13.08
701.67	3.08
701.792	10.08
701.915	-13.92
702.037	-3.92
702.159	13.08
702.282	-1.92
702.404	-11.92
702.527	18.08
702.649	28.08
702.772	26.08
702.894	2.08
703.017	12.08
703.139	6.08
703.261	19.08
703.384	6.08
703.506	-4.92
703.629	4.08
703.751	-2.92
703.874	-6.92
703.996	-10.92
704.119	-10.92
704.241	17.08
704.364	-5.92
704.486	9.08
704.608	20.08
704.731	17.08
704.853	19.08
704.976	2.08
705.098	10.08
705.221	10.08
705.343	2.08
705.466	17.08
705.588	11.08
705.711	4.08
705.833	26.08
705.956	9.08
706.078	1.08
706.201	-10.92
706.323	21.08
706.446	-1.92
