Data from LowRes_mercury_15_20_11_07_2024_HR4C61881__22__15-23-34-471.txt Node

Date: Thu Nov 07 15:23:34 EST 2024
User: crc00042
Spectrometer: HR4C6188
Trigger mode: 4
Integration Time (sec): 1.000000E-1
Scans to average: 1
Electric dark correction enabled: true
Nonlinearity correction enabled: false
Boxcar width: 0
XAxis mode: Wavelengths
Number of Pixels in Spectrum: 3648
>>>>>Begin Spectral Data<<<<<
245.66	-44.92
245.797	-44.92
245.934	-44.92
246.071	-65.92
246.208	21.08
246.344	-2.92
246.481	-7.92
246.618	-2.92
246.755	15.08
246.892	-2.92
247.029	-13.92
247.165	-5.92
247.302	13.08
247.439	-10.92
247.576	26.08
247.713	-20.92
247.849	34.08
247.986	-19.92
248.123	-4.92
248.26	-12.92
248.396	4.08
248.533	8.08
248.67	-2.92
248.806	20.08
248.943	-8.92
249.08	-22.92
249.216	-10.92
249.353	-2.92
249.49	7.08
249.626	5.08
249.763	24.08
249.9	4.08
250.036	13.08
250.173	21.08
250.309	23.08
250.446	21.08
250.582	2.08
250.719	-9.92
250.856	-2.92
250.992	-8.92
251.129	-8.92
251.265	-22.92
251.402	3.08
251.538	1.08
251.675	-18.92
251.811	5.08
251.948	17.08
252.084	8.08
252.221	-1.92
252.357	-15.92
252.493	24.08
252.63	-6.92
252.766	13.08
252.903	-5.92
253.039	-7.92
253.175	-16.92
253.312	11.08
253.448	4.08
253.585	-22.92
253.721	-3.92
253.857	-6.92
253.994	5.08
254.13	11.08
254.266	-13.92
254.403	2.08
254.539	-1.92
254.675	15.08
254.811	-5.92
254.948	8.08
255.084	-6.92
255.22	-11.92
255.356	0.08
255.493	34.08
255.629	5.08
255.765	15.08
255.901	8.08
256.037	20.08
256.174	9.08
256.31	-0.92
256.446	-9.92
256.582	1.08
256.718	15.08
256.854	20.08
256.991	21.08
257.127	34.08
257.263	4.08
257.399	3.08
257.535	2.08
257.671	-11.92
257.807	-29.92
257.943	-11.92
258.079	-18.92
258.215	3.08
258.351	18.08
258.487	2.08
258.623	17.08
258.759	2.08
258.895	-6.92
259.031	1.08
259.167	3.08
259.303	19.08
259.439	2.08
259.575	6.08
259.711	8.08
259.847	-7.92
259.983	17.08
260.119	3.08
260.255	8.08
260.391	-0.92
260.527	2.08
260.663	45.08
260.799	11.08
260.934	-1.92
261.07	-19.92
261.206	-11.92
261.342	-7.92
261.478	3.08
261.614	10.08
261.749	-10.92
261.885	-4.92
262.021	19.08
262.157	24.08
262.293	9.08
262.428	-1.92
262.564	8.08
262.7	3.08
262.836	-4.92
262.971	11.08
263.107	4.08
263.243	11.08
263.378	-8.92
263.514	-0.92
263.65	-11.92
263.785	-2.92
263.921	-10.92
264.057	13.08
264.192	20.08
264.328	28.08
264.464	-1.92
264.599	3.08
264.735	25.08
264.871	-2.92
265.006	-3.92
265.142	-0.92
265.277	8.08
265.413	22.08
265.548	14.08
265.684	16.08
265.819	9.08
265.955	-18.92
266.091	6.08
266.226	-0.92
266.362	-2.92
266.497	16.08
266.633	-3.92
266.768	1.08
266.903	21.08
267.039	20.08
267.174	21.08
267.31	-11.92
267.445	-7.92
267.581	1.08
267.716	5.08
267.851	10.08
267.987	27.08
268.122	24.08
268.258	1.08
268.393	22.08
268.528	8.08
268.664	-12.92
268.799	-2.92
268.934	4.08
269.07	4.08
269.205	7.08
269.34	15.08
269.476	11.08
269.611	1.08
269.746	22.08
269.881	-0.92
270.017	22.08
270.152	-3.92
270.287	5.08
270.422	17.08
270.558	3.08
270.693	25.08
270.828	17.08
270.963	21.08
271.098	2.08
271.234	-19.92
271.369	3.08
271.504	-4.92
271.639	-7.92
271.774	9.08
271.909	-1.92
272.045	-13.92
272.18	-11.92
272.315	5.08
272.45	24.08
272.585	-14.92
272.72	20.08
272.855	8.08
272.99	15.08
273.125	-5.92
273.26	-0.92
273.395	2.08
273.53	5.08
273.665	22.08
273.8	9.08
273.935	3.08
274.07	0.08
274.205	8.08
274.34	-7.92
274.475	6.08
274.61	9.08
274.745	-12.92
274.88	45.08
275.015	-13.92
275.15	7.08
275.285	-0.92
275.42	-2.92
275.555	17.08
275.69	6.08
275.825	8.08
275.959	7.08
276.094	13.08
276.229	0.08
276.364	-9.92
276.499	5.08
276.634	6.08
276.768	-0.92
276.903	12.08
277.038	12.08
277.173	-14.92
277.308	-7.92
277.442	-12.92
277.577	-4.92
277.712	7.08
277.847	-5.92
277.981	8.08
278.116	1.08
278.251	19.08
278.386	27.08
278.52	0.08
278.655	2.08
278.79	16.08
278.924	5.08
279.059	3.08
279.194	12.08
279.328	39.08
279.463	14.08
279.598	23.08
279.732	10.08
279.867	17.08
280.001	15.08
280.136	7.08
280.271	14.08
280.405	26.08
280.54	13.08
280.674	-3.92
280.809	27.08
280.943	-0.92
281.078	-14.92
281.213	24.08
281.347	9.08
281.482	15.08
281.616	12.08
281.751	12.08
281.885	-3.92
282.02	-7.92
282.154	8.08
282.288	-4.92
282.423	-0.92
282.557	-19.92
282.692	-14.92
282.826	-7.92
282.961	15.08
283.095	7.08
283.229	8.08
283.364	6.08
283.498	-0.92
283.633	4.08
283.767	12.08
283.901	13.08
284.036	-2.92
284.17	-16.92
284.304	-1.92
284.439	2.08
284.573	6.08
284.707	17.08
284.842	2.08
284.976	-5.92
285.11	-5.92
285.244	25.08
285.379	55.08
285.513	-12.92
285.647	7.08
285.781	8.08
285.916	11.08
286.05	-4.92
286.184	14.08
286.318	20.08
286.453	15.08
286.587	-9.92
286.721	13.08
286.855	16.08
286.989	21.08
287.123	13.08
287.258	-5.92
287.392	-5.92
287.526	21.08
287.66	16.08
287.794	-3.92
287.928	5.08
288.062	8.08
288.196	10.08
288.33	20.08
288.464	28.08
288.598	-5.92
288.733	2.08
288.867	23.08
289.001	1.08
289.135	9.08
289.269	-17.92
289.403	-3.92
289.537	8.08
289.671	9.08
289.805	-7.92
289.939	-6.92
290.073	1.08
290.207	31.08
290.34	2.08
290.474	17.08
290.608	5.08
290.742	-2.92
290.876	-10.92
291.01	1.08
291.144	13.08
291.278	18.08
291.412	-3.92
291.546	4.08
291.679	-27.92
291.813	7.08
291.947	1.08
292.081	-3.92
292.215	-1.92
292.349	-3.92
292.482	16.08
292.616	8.08
292.75	10.08
292.884	10.08
293.018	0.08
293.151	-25.92
293.285	8.08
293.419	-2.92
293.553	-7.92
293.686	-1.92
293.82	22.08
293.954	29.08
294.088	18.08
294.221	9.08
294.355	3.08
294.489	1.08
294.622	-3.92
294.756	10.08
294.89	2.08
295.023	1.08
295.157	15.08
295.291	19.08
295.424	17.08
295.558	16.08
295.691	12.08
295.825	-0.92
295.959	19.08
296.092	9.08
296.226	10.08
296.359	6.08
296.493	2.08
296.627	-4.92
296.76	0.08
296.894	2.08
297.027	8.08
297.161	-0.92
297.294	-13.92
297.428	-13.92
297.561	27.08
297.695	3.08
297.828	-5.92
297.962	2.08
298.095	-3.92
298.229	32.08
298.362	6.08
298.495	-6.92
298.629	-8.92
298.762	1.08
298.896	-5.92
299.029	-6.92
299.162	-1.92
299.296	18.08
299.429	4.08
299.563	-9.92
299.696	-2.92
299.829	7.08
299.963	13.08
300.096	8.08
300.229	8.08
300.363	10.08
300.496	-4.92
300.629	-8.92
300.763	0.08
300.896	8.08
301.029	-4.92
301.162	-14.92
301.296	-7.92
301.429	-1.92
301.562	-18.92
301.695	-4.92
301.829	5.08
301.962	5.08
302.095	0.08
302.228	-22.92
302.362	1.08
302.495	-30.92
302.628	0.08
302.761	-3.92
302.894	6.08
303.027	17.08
303.161	-3.92
303.294	2.08
303.427	-4.92
303.56	-6.92
303.693	10.08
303.826	5.08
303.959	-6.92
304.092	12.08
304.225	-5.92
304.359	-6.92
304.492	10.08
304.625	7.08
304.758	6.08
304.891	-10.92
305.024	15.08
305.157	-17.92
305.29	-15.92
305.423	-7.92
305.556	-5.92
305.689	11.08
305.822	-5.92
305.955	5.08
306.088	-9.92
306.221	1.08
306.354	2.08
306.487	-19.92
306.62	-21.92
306.752	-19.92
306.885	11.08
307.018	-0.92
307.151	19.08
307.284	-0.92
307.417	-20.92
307.55	9.08
307.683	6.08
307.816	15.08
307.948	-9.92
308.081	12.08
308.214	9.08
308.347	20.08
308.48	-8.92
308.613	-8.92
308.745	22.08
308.878	-10.92
309.011	-1.92
309.144	27.08
309.277	3.08
309.409	15.08
309.542	-0.92
309.675	18.08
309.808	5.08
309.94	28.08
310.073	-4.92
310.206	-5.92
310.339	1.08
310.471	-4.92
310.604	23.08
310.737	-10.92
310.869	0.08
311.002	9.08
311.135	-1.92
311.267	-5.92
311.4	-6.92
311.533	14.08
311.665	5.08
311.798	7.08
311.93	23.08
312.063	23.08
312.196	43.08
312.328	76.08
312.461	55.08
312.593	27.08
312.726	62.08
312.859	88.08
312.991	165.08
313.124	57.08
313.256	22.08
313.389	11.08
313.521	-2.92
313.654	-2.92
313.786	-9.92
313.919	3.08
314.051	-9.92
314.184	10.08
314.316	1.08
314.449	-12.92
314.581	-9.92
314.714	-15.92
314.846	4.08
314.978	0.08
315.111	-2.92
315.243	8.08
315.376	4.08
315.508	13.08
315.641	-9.92
315.773	16.08
315.905	-1.92
316.038	12.08
316.17	4.08
316.302	12.08
316.435	5.08
316.567	5.08
316.699	28.08
316.832	2.08
316.964	12.08
317.096	4.08
317.229	-2.92
317.361	-21.92
317.493	3.08
317.625	-21.92
317.758	-9.92
317.89	20.08
318.022	2.08
318.155	-5.92
318.287	-11.92
318.419	6.08
318.551	6.08
318.683	7.08
318.816	-8.92
318.948	0.08
319.08	-1.92
319.212	-0.92
319.344	11.08
319.477	-1.92
319.609	11.08
319.741	2.08
319.873	-6.92
320.005	11.08
320.137	18.08
320.269	-9.92
320.401	-4.92
320.534	-1.92
320.666	-31.92
320.798	-9.92
320.93	-11.92
321.062	-2.92
321.194	-8.92
321.326	11.08
321.458	22.08
321.59	2.08
321.722	-7.92
321.854	5.08
321.986	-0.92
322.118	10.08
322.25	2.08
322.382	8.08
322.514	4.08
322.646	-6.92
322.778	20.08
322.91	-21.92
323.042	-9.92
323.174	4.08
323.306	-13.92
323.438	-23.92
323.57	4.08
323.702	8.08
323.834	-8.92
323.966	-3.92
324.097	19.08
324.229	15.08
324.361	5.08
324.493	5.08
324.625	4.08
324.757	-6.92
324.889	-5.92
325.021	13.08
325.152	19.08
325.284	36.08
325.416	7.08
325.548	11.08
325.68	16.08
325.811	13.08
325.943	-22.92
326.075	-4.92
326.207	-7.92
326.339	10.08
326.47	0.08
326.602	12.08
326.734	12.08
326.866	16.08
326.997	-10.92
327.129	4.08
327.261	11.08
327.392	-13.92
327.524	-3.92
327.656	6.08
327.787	16.08
327.919	13.08
328.051	18.08
328.182	19.08
328.314	24.08
328.446	14.08
328.577	22.08
328.709	15.08
328.841	-15.92
328.972	-10.92
329.104	-14.92
329.235	-23.92
329.367	-4.92
329.499	16.08
329.63	3.08
329.762	19.08
329.893	19.08
330.025	10.08
330.156	-9.92
330.288	21.08
330.419	21.08
330.551	8.08
330.683	11.08
330.814	3.08
330.946	5.08
331.077	-18.92
331.208	-10.92
331.34	-5.92
331.471	-20.92
331.603	8.08
331.734	-12.92
331.866	7.08
331.997	7.08
332.129	8.08
332.26	1.08
332.392	15.08
332.523	20.08
332.654	3.08
332.786	-9.92
332.917	2.08
333.048	10.08
333.18	15.08
333.311	18.08
333.443	-4.92
333.574	0.08
333.705	22.08
333.837	25.08
333.968	109.08
334.099	232.08
334.231	206.08
334.362	42.08
334.493	33.08
334.624	25.08
334.756	31.08
334.887	31.08
335.018	24.08
335.15	28.08
335.281	14.08
335.412	34.08
335.543	7.08
335.675	9.08
335.806	15.08
335.937	-6.92
336.068	18.08
336.199	33.08
336.331	4.08
336.462	-2.92
336.593	4.08
336.724	2.08
336.855	32.08
336.986	15.08
337.118	0.08
337.249	8.08
337.38	10.08
337.511	-2.92
337.642	13.08
337.773	-2.92
337.904	21.08
338.035	9.08
338.166	18.08
338.298	20.08
338.429	7.08
338.56	12.08
338.691	14.08
338.822	24.08
338.953	22.08
339.084	35.08
339.215	13.08
339.346	14.08
339.477	10.08
339.608	17.08
339.739	-1.92
339.87	-0.92
340.001	8.08
340.132	0.08
340.263	9.08
340.394	36.08
340.525	9.08
340.656	-7.92
340.787	1.08
340.918	28.08
341.049	1.08
341.179	2.08
341.31	19.08
341.441	5.08
341.572	24.08
341.703	16.08
341.834	-2.92
341.965	12.08
342.096	12.08
342.227	17.08
342.357	25.08
342.488	18.08
342.619	-6.92
342.75	21.08
342.881	6.08
343.012	28.08
343.142	37.08
343.273	14.08
343.404	26.08
343.535	46.08
343.666	25.08
343.796	25.08
343.927	20.08
344.058	33.08
344.189	34.08
344.319	24.08
344.45	34.08
344.581	35.08
344.712	29.08
344.842	26.08
344.973	35.08
345.104	23.08
345.234	9.08
345.365	-6.92
345.496	9.08
345.626	28.08
345.757	33.08
345.888	22.08
346.018	36.08
346.149	29.08
346.28	50.08
346.41	22.08
346.541	38.08
346.672	25.08
346.802	37.08
346.933	28.08
347.063	28.08
347.194	18.08
347.325	19.08
347.455	40.08
347.586	32.08
347.716	31.08
347.847	48.08
347.977	33.08
348.108	51.08
348.238	29.08
348.369	30.08
348.499	38.08
348.63	35.08
348.76	35.08
348.891	68.08
349.021	73.08
349.152	62.08
349.282	69.08
349.413	55.08
349.543	76.08
349.674	50.08
349.804	39.08
349.935	20.08
350.065	25.08
350.196	12.08
350.326	43.08
350.456	42.08
350.587	47.08
350.717	25.08
350.848	21.08
350.978	27.08
351.108	15.08
351.239	36.08
351.369	29.08
351.499	15.08
351.63	15.08
351.76	28.08
351.89	29.08
352.021	23.08
352.151	2.08
352.281	26.08
352.412	42.08
352.542	17.08
352.672	20.08
352.803	17.08
352.933	27.08
353.063	32.08
353.193	42.08
353.324	35.08
353.454	35.08
353.584	34.08
353.714	13.08
353.845	9.08
353.975	14.08
354.105	11.08
354.235	10.08
354.365	27.08
354.496	15.08
354.626	20.08
354.756	28.08
354.886	34.08
355.016	31.08
355.146	19.08
355.277	34.08
355.407	21.08
355.537	13.08
355.667	26.08
355.797	18.08
355.927	9.08
356.057	28.08
356.187	20.08
356.318	10.08
356.448	25.08
356.578	37.08
356.708	39.08
356.838	20.08
356.968	21.08
357.098	33.08
357.228	38.08
357.358	41.08
357.488	10.08
357.618	49.08
357.748	43.08
357.878	35.08
358.008	20.08
358.138	16.08
358.268	30.08
358.398	30.08
358.528	13.08
358.658	9.08
358.788	23.08
358.918	35.08
359.048	36.08
359.178	29.08
359.308	37.08
359.438	37.08
359.568	47.08
359.698	30.08
359.827	14.08
359.957	30.08
360.087	24.08
360.217	14.08
360.347	36.08
360.477	46.08
360.607	12.08
360.737	44.08
360.866	27.08
360.996	15.08
361.126	8.08
361.256	51.08
361.386	41.08
361.516	41.08
361.645	-3.92
361.775	39.08
361.905	22.08
362.035	40.08
362.165	28.08
362.294	53.08
362.424	45.08
362.554	36.08
362.684	35.08
362.813	35.08
362.943	51.08
363.073	46.08
363.203	61.08
363.332	75.08
363.462	83.08
363.592	103.08
363.721	129.08
363.851	151.08
363.981	236.08
364.111	254.08
364.24	331.08
364.37	506.08
364.5	875.08
364.629	1825.08
364.759	3867.08
364.888	6283.08
365.018	9425.08
365.148	14826.08
365.277	13023.08
365.407	4808.08
365.537	3096.08
365.666	4052.08
365.796	1818.08
365.925	805.08
366.055	784.08
366.184	1038.08
366.314	1419.08
366.444	2460.08
366.573	2146.08
366.703	648.08
366.832	216.08
366.962	110.08
367.091	82.08
367.221	101.08
367.35	56.08
367.48	86.08
367.609	66.08
367.739	66.08
367.868	46.08
367.998	45.08
368.127	52.08
368.257	78.08
368.386	75.08
368.516	59.08
368.645	26.08
368.775	71.08
368.904	51.08
369.033	37.08
369.163	23.08
369.292	42.08
369.422	17.08
369.551	40.08
369.68	31.08
369.81	42.08
369.939	26.08
370.069	72.08
370.198	56.08
370.327	17.08
370.457	18.08
370.586	39.08
370.715	15.08
370.845	27.08
370.974	35.08
371.103	63.08
371.233	52.08
371.362	51.08
371.491	37.08
371.621	53.08
371.75	40.08
371.879	43.08
372.008	31.08
372.138	50.08
372.267	69.08
372.396	48.08
372.525	41.08
372.655	34.08
372.784	36.08
372.913	32.08
373.042	43.08
373.172	37.08
373.301	2.08
373.43	-6.92
373.559	6.08
373.688	18.08
373.818	31.08
373.947	31.08
374.076	15.08
374.205	24.08
374.334	20.08
374.463	14.08
374.593	42.08
374.722	30.08
374.851	35.08
374.98	42.08
375.109	38.08
375.238	31.08
375.367	44.08
375.496	6.08
375.625	13.08
375.755	24.08
375.884	25.08
376.013	22.08
376.142	15.08
376.271	20.08
376.4	29.08
376.529	39.08
376.658	33.08
376.787	24.08
376.916	27.08
377.045	6.08
377.174	10.08
377.303	15.08
377.432	42.08
377.561	24.08
377.69	18.08
377.819	25.08
377.948	16.08
378.077	11.08
378.206	10.08
378.335	21.08
378.464	8.08
378.593	19.08
378.722	-1.92
378.851	9.08
378.98	35.08
379.108	1.08
379.237	6.08
379.366	22.08
379.495	29.08
379.624	21.08
379.753	14.08
379.882	9.08
380.011	11.08
380.14	-1.92
380.268	8.08
380.397	-11.92
380.526	39.08
380.655	25.08
380.784	-3.92
380.913	8.08
381.041	12.08
381.17	0.08
381.299	18.08
381.428	14.08
381.557	5.08
381.685	6.08
381.814	28.08
381.943	12.08
382.072	4.08
382.2	13.08
382.329	28.08
382.458	-2.92
382.587	41.08
382.715	43.08
382.844	30.08
382.973	34.08
383.102	22.08
383.23	25.08
383.359	11.08
383.488	22.08
383.616	2.08
383.745	-0.92
383.874	18.08
384.003	-1.92
384.131	16.08
384.26	7.08
384.389	16.08
384.517	2.08
384.646	-3.92
384.774	15.08
384.903	34.08
385.032	36.08
385.16	33.08
385.289	38.08
385.418	23.08
385.546	11.08
385.675	18.08
385.803	26.08
385.932	27.08
386.06	4.08
386.189	14.08
386.318	24.08
386.446	8.08
386.575	20.08
386.703	8.08
386.832	15.08
386.96	13.08
387.089	37.08
387.217	10.08
387.346	19.08
387.474	15.08
387.603	30.08
387.731	9.08
387.86	21.08
387.988	18.08
388.117	27.08
388.245	17.08
388.374	5.08
388.502	35.08
388.631	11.08
388.759	16.08
388.888	31.08
389.016	12.08
389.144	33.08
389.273	37.08
389.401	6.08
389.53	7.08
389.658	22.08
389.786	3.08
389.915	20.08
390.043	8.08
390.172	12.08
390.3	48.08
390.428	24.08
390.557	39.08
390.685	30.08
390.813	40.08
390.942	45.08
391.07	24.08
391.198	27.08
391.327	22.08
391.455	13.08
391.583	41.08
391.712	31.08
391.84	19.08
391.968	10.08
392.096	17.08
392.225	3.08
392.353	26.08
392.481	22.08
392.609	27.08
392.738	34.08
392.866	35.08
392.994	27.08
393.122	24.08
393.251	21.08
393.379	15.08
393.507	6.08
393.635	29.08
393.764	39.08
393.892	25.08
394.02	10.08
394.148	22.08
394.276	41.08
394.404	61.08
394.533	21.08
394.661	42.08
394.789	46.08
394.917	50.08
395.045	17.08
395.173	22.08
395.302	2.08
395.43	45.08
395.558	26.08
395.686	35.08
395.814	34.08
395.942	9.08
396.07	31.08
396.198	33.08
396.326	28.08
396.454	56.08
396.582	26.08
396.711	22.08
396.839	33.08
396.967	25.08
397.095	42.08
397.223	32.08
397.351	48.08
397.479	52.08
397.607	26.08
397.735	42.08
397.863	47.08
397.991	55.08
398.119	38.08
398.247	45.08
398.375	44.08
398.503	48.08
398.631	50.08
398.759	63.08
398.887	36.08
399.015	45.08
399.143	40.08
399.271	53.08
399.399	57.08
399.526	66.08
399.654	80.08
399.782	79.08
399.91	115.08
400.038	109.08
400.166	89.08
400.294	104.08
400.422	69.08
400.55	121.08
400.678	104.08
400.805	92.08
400.933	117.08
401.061	140.08
401.189	122.08
401.317	157.08
401.445	126.08
401.573	75.08
401.7	69.08
401.828	52.08
401.956	62.08
402.084	51.08
402.212	45.08
402.34	44.08
402.467	34.08
402.595	34.08
402.723	20.08
402.851	66.08
402.978	62.08
403.106	76.08
403.234	76.08
403.362	131.08
403.489	122.08
403.617	147.08
403.745	198.08
403.873	281.08
404	566.08
404.128	1461.08
404.256	4007.08
404.384	5097.08
404.511	5508.08
404.639	7225.08
404.767	11455.08
404.894	14665.08
405.022	4957.08
405.15	1321.08
405.277	433.08
405.405	224.08
405.533	131.08
405.66	112.08
405.788	70.08
405.916	71.08
406.043	43.08
406.171	60.08
406.299	53.08
406.426	61.08
406.554	49.08
406.681	78.08
406.809	59.08
406.937	59.08
407.064	57.08
407.192	126.08
407.319	317.08
407.447	511.08
407.574	519.08
407.702	630.08
407.83	864.08
407.957	1613.08
408.085	934.08
408.212	279.08
408.34	103.08
408.467	62.08
408.595	45.08
408.722	65.08
408.85	57.08
408.977	39.08
409.105	32.08
409.232	23.08
409.36	10.08
409.487	31.08
409.615	27.08
409.742	24.08
409.87	38.08
409.997	31.08
410.125	12.08
410.252	31.08
410.379	42.08
410.507	38.08
410.634	30.08
410.762	30.08
410.889	54.08
411.017	31.08
411.144	35.08
411.271	19.08
411.399	33.08
411.526	25.08
411.653	37.08
411.781	43.08
411.908	36.08
412.036	13.08
412.163	45.08
412.29	48.08
412.418	27.08
412.545	38.08
412.672	27.08
412.8	55.08
412.927	37.08
413.054	39.08
413.182	28.08
413.309	19.08
413.436	20.08
413.564	37.08
413.691	41.08
413.818	41.08
413.945	6.08
414.073	29.08
414.2	22.08
414.327	28.08
414.454	41.08
414.582	24.08
414.709	9.08
414.836	16.08
414.963	26.08
415.091	35.08
415.218	24.08
415.345	31.08
415.472	17.08
415.6	43.08
415.727	24.08
415.854	22.08
415.981	19.08
416.108	35.08
416.236	31.08
416.363	30.08
416.49	28.08
416.617	32.08
416.744	48.08
416.871	27.08
416.998	32.08
417.126	38.08
417.253	27.08
417.38	14.08
417.507	27.08
417.634	48.08
417.761	30.08
417.888	42.08
418.015	24.08
418.143	49.08
418.27	43.08
418.397	22.08
418.524	36.08
418.651	31.08
418.778	47.08
418.905	51.08
419.032	58.08
419.159	53.08
419.286	69.08
419.413	57.08
419.54	57.08
419.667	41.08
419.794	20.08
419.921	55.08
420.048	47.08
420.175	57.08
420.302	30.08
420.429	60.08
420.556	48.08
420.683	49.08
420.81	63.08
420.937	65.08
421.064	75.08
421.191	64.08
421.318	64.08
421.445	90.08
421.572	51.08
421.699	74.08
421.826	55.08
421.953	35.08
422.08	31.08
422.207	20.08
422.334	1.08
422.461	34.08
422.588	31.08
422.714	20.08
422.841	39.08
422.968	24.08
423.095	17.08
423.222	21.08
423.349	34.08
423.476	26.08
423.603	-2.92
423.729	13.08
423.856	24.08
423.983	42.08
424.11	17.08
424.237	30.08
424.364	17.08
424.491	18.08
424.617	0.08
424.744	14.08
424.871	40.08
424.998	16.08
425.125	10.08
425.251	16.08
425.378	-3.92
425.505	18.08
425.632	9.08
425.758	28.08
425.885	28.08
426.012	42.08
426.139	32.08
426.266	29.08
426.392	41.08
426.519	34.08
426.646	20.08
426.772	28.08
426.899	31.08
427.026	42.08
427.153	24.08
427.279	22.08
427.406	33.08
427.533	21.08
427.659	20.08
427.786	23.08
427.913	57.08
428.039	18.08
428.166	25.08
428.293	16.08
428.419	17.08
428.546	22.08
428.673	18.08
428.799	17.08
428.926	13.08
429.053	58.08
429.179	39.08
429.306	40.08
429.433	39.08
429.559	41.08
429.686	10.08
429.812	21.08
429.939	23.08
430.066	20.08
430.192	31.08
430.319	55.08
430.445	31.08
430.572	16.08
430.699	10.08
430.825	33.08
430.952	43.08
431.078	36.08
431.205	32.08
431.331	35.08
431.458	41.08
431.584	42.08
431.711	12.08
431.837	24.08
431.964	27.08
432.09	31.08
432.217	17.08
432.343	31.08
432.47	49.08
432.596	32.08
432.723	21.08
432.849	25.08
432.976	45.08
433.102	29.08
433.229	39.08
433.355	46.08
433.482	84.08
433.608	104.08
433.735	104.08
433.861	118.08
433.987	150.08
434.114	203.08
434.24	174.08
434.367	220.08
434.493	210.08
434.62	275.08
434.746	369.08
434.872	644.08
434.999	843.08
435.125	1768.08
435.252	5566.08
435.378	13454.08
435.504	15240.08
435.631	15457.08
435.757	15683.08
435.883	15683.08
436.01	15683.08
436.136	15683.08
436.262	15683.08
436.389	3506.08
436.515	2443.08
436.641	838.08
436.768	640.08
436.894	401.08
437.02	409.08
437.147	299.08
437.273	290.08
437.399	227.08
437.526	269.08
437.652	187.08
437.778	201.08
437.904	151.08
438.031	166.08
438.157	130.08
438.283	171.08
438.409	115.08
438.536	118.08
438.662	134.08
438.788	133.08
438.914	97.08
439.041	118.08
439.167	119.08
439.293	114.08
439.419	98.08
439.546	106.08
439.672	85.08
439.798	98.08
439.924	94.08
440.05	88.08
440.177	76.08
440.303	66.08
440.429	66.08
440.555	73.08
440.681	62.08
440.807	70.08
440.934	76.08
441.06	50.08
441.186	52.08
441.312	63.08
441.438	54.08
441.564	87.08
441.69	69.08
441.816	69.08
441.943	45.08
442.069	33.08
442.195	50.08
442.321	62.08
442.447	38.08
442.573	42.08
442.699	30.08
442.825	43.08
442.951	60.08
443.077	58.08
443.203	50.08
443.33	63.08
443.456	25.08
443.582	35.08
443.708	30.08
443.834	51.08
443.96	44.08
444.086	43.08
444.212	49.08
444.338	73.08
444.464	45.08
444.59	54.08
444.716	41.08
444.842	57.08
444.968	33.08
445.094	53.08
445.22	44.08
445.346	40.08
445.472	48.08
445.598	47.08
445.724	37.08
445.85	29.08
445.976	33.08
446.102	46.08
446.228	43.08
446.354	42.08
446.48	10.08
446.605	20.08
446.731	52.08
446.857	47.08
446.983	35.08
447.109	29.08
447.235	25.08
447.361	34.08
447.487	44.08
447.613	58.08
447.739	42.08
447.865	20.08
447.99	35.08
448.116	36.08
448.242	21.08
448.368	37.08
448.494	24.08
448.62	42.08
448.746	29.08
448.872	45.08
448.997	13.08
449.123	32.08
449.249	17.08
449.375	33.08
449.501	24.08
449.627	20.08
449.752	58.08
449.878	24.08
450.004	14.08
450.13	23.08
450.256	16.08
450.381	14.08
450.507	26.08
450.633	24.08
450.759	40.08
450.884	14.08
451.01	32.08
451.136	18.08
451.262	23.08
451.388	26.08
451.513	19.08
451.639	27.08
451.765	38.08
451.89	46.08
452.016	45.08
452.142	26.08
452.268	28.08
452.393	34.08
452.519	40.08
452.645	41.08
452.771	7.08
452.896	13.08
453.022	15.08
453.148	40.08
453.273	37.08
453.399	28.08
453.525	15.08
453.65	26.08
453.776	31.08
453.902	38.08
454.027	36.08
454.153	33.08
454.279	31.08
454.404	34.08
454.53	45.08
454.656	59.08
454.781	29.08
454.907	42.08
455.032	28.08
455.158	31.08
455.284	50.08
455.409	39.08
455.535	25.08
455.66	24.08
455.786	40.08
455.912	20.08
456.037	14.08
456.163	38.08
456.288	25.08
456.414	28.08
456.539	22.08
456.665	18.08
456.791	24.08
456.916	21.08
457.042	14.08
457.167	23.08
457.293	40.08
457.418	14.08
457.544	25.08
457.669	8.08
457.795	40.08
457.92	39.08
458.046	32.08
458.171	23.08
458.297	29.08
458.422	17.08
458.548	14.08
458.673	38.08
458.799	30.08
458.924	17.08
459.05	19.08
459.175	20.08
459.301	15.08
459.426	34.08
459.552	21.08
459.677	14.08
459.803	33.08
459.928	15.08
460.053	29.08
460.179	32.08
460.304	44.08
460.43	21.08
460.555	17.08
460.681	20.08
460.806	19.08
460.931	31.08
461.057	18.08
461.182	26.08
461.308	29.08
461.433	45.08
461.558	24.08
461.684	38.08
461.809	45.08
461.934	1.08
462.06	31.08
462.185	17.08
462.311	31.08
462.436	37.08
462.561	52.08
462.687	26.08
462.812	32.08
462.937	23.08
463.063	12.08
463.188	26.08
463.313	34.08
463.439	16.08
463.564	24.08
463.689	36.08
463.814	24.08
463.94	17.08
464.065	29.08
464.19	45.08
464.316	7.08
464.441	22.08
464.566	21.08
464.692	28.08
464.817	29.08
464.942	33.08
465.067	20.08
465.193	0.08
465.318	9.08
465.443	14.08
465.568	28.08
465.694	28.08
465.819	37.08
465.944	32.08
466.069	27.08
466.194	36.08
466.32	30.08
466.445	30.08
466.57	21.08
466.695	29.08
466.82	39.08
466.946	34.08
467.071	40.08
467.196	32.08
467.321	43.08
467.446	25.08
467.572	37.08
467.697	14.08
467.822	34.08
467.947	52.08
468.072	27.08
468.197	24.08
468.323	29.08
468.448	47.08
468.573	30.08
468.698	34.08
468.823	32.08
468.948	36.08
469.073	17.08
469.198	44.08
469.324	50.08
469.449	26.08
469.574	50.08
469.699	62.08
469.824	50.08
469.949	44.08
470.074	32.08
470.199	48.08
470.324	31.08
470.449	34.08
470.574	36.08
470.7	33.08
470.825	36.08
470.95	43.08
471.075	52.08
471.2	45.08
471.325	46.08
471.45	50.08
471.575	18.08
471.7	33.08
471.825	8.08
471.95	24.08
472.075	22.08
472.2	33.08
472.325	20.08
472.45	31.08
472.575	22.08
472.7	15.08
472.825	32.08
472.95	31.08
473.075	38.08
473.2	36.08
473.325	37.08
473.45	49.08
473.575	27.08
473.7	47.08
473.825	17.08
473.95	27.08
474.075	28.08
474.2	24.08
474.325	30.08
474.45	40.08
474.574	44.08
474.699	30.08
474.824	32.08
474.949	16.08
475.074	13.08
475.199	25.08
475.324	36.08
475.449	27.08
475.574	29.08
475.699	16.08
475.824	5.08
475.949	21.08
476.073	-1.92
476.198	20.08
476.323	25.08
476.448	5.08
476.573	6.08
476.698	39.08
476.823	14.08
476.947	13.08
477.072	2.08
477.197	19.08
477.322	11.08
477.447	19.08
477.572	15.08
477.697	0.08
477.821	12.08
477.946	45.08
478.071	38.08
478.196	23.08
478.321	32.08
478.445	24.08
478.57	14.08
478.695	16.08
478.82	30.08
478.945	27.08
479.069	16.08
479.194	17.08
479.319	15.08
479.444	24.08
479.569	-8.92
479.693	20.08
479.818	19.08
479.943	46.08
480.068	30.08
480.192	29.08
480.317	13.08
480.442	15.08
480.567	15.08
480.691	7.08
480.816	25.08
480.941	13.08
481.066	23.08
481.19	21.08
481.315	13.08
481.44	21.08
481.564	8.08
481.689	38.08
481.814	10.08
481.938	5.08
482.063	9.08
482.188	25.08
482.313	27.08
482.437	23.08
482.562	7.08
482.687	11.08
482.811	10.08
482.936	12.08
483.061	28.08
483.185	13.08
483.31	27.08
483.435	22.08
483.559	27.08
483.684	29.08
483.808	49.08
483.933	22.08
484.058	18.08
484.182	33.08
484.307	16.08
484.432	28.08
484.556	20.08
484.681	5.08
484.805	6.08
484.93	22.08
485.055	25.08
485.179	53.08
485.304	35.08
485.428	23.08
485.553	3.08
485.678	20.08
485.802	31.08
485.927	32.08
486.051	33.08
486.176	19.08
486.3	14.08
486.425	9.08
486.549	19.08
486.674	35.08
486.799	32.08
486.923	17.08
487.048	6.08
487.172	19.08
487.297	16.08
487.421	20.08
487.546	9.08
487.67	24.08
487.795	21.08
487.919	5.08
488.044	11.08
488.168	20.08
488.293	15.08
488.417	18.08
488.542	31.08
488.666	27.08
488.791	39.08
488.915	19.08
489.04	14.08
489.164	21.08
489.289	36.08
489.413	8.08
489.538	14.08
489.662	30.08
489.786	0.08
489.911	17.08
490.035	5.08
490.16	10.08
490.284	10.08
490.409	14.08
490.533	16.08
490.658	38.08
490.782	13.08
490.906	39.08
491.031	98.08
491.155	136.08
491.28	149.08
491.404	169.08
491.528	243.08
491.653	160.08
491.777	75.08
491.902	27.08
492.026	34.08
492.15	40.08
492.275	40.08
492.399	26.08
492.524	13.08
492.648	35.08
492.772	31.08
492.897	40.08
493.021	37.08
493.145	39.08
493.27	20.08
493.394	7.08
493.518	12.08
493.643	-19.92
493.767	20.08
493.891	10.08
494.016	19.08
494.14	34.08
494.264	20.08
494.389	29.08
494.513	21.08
494.637	13.08
494.762	33.08
494.886	34.08
495.01	24.08
495.134	25.08
495.259	28.08
495.383	13.08
495.507	12.08
495.632	28.08
495.756	44.08
495.88	21.08
496.004	17.08
496.129	10.08
496.253	16.08
496.377	14.08
496.501	19.08
496.626	13.08
496.75	14.08
496.874	24.08
496.998	14.08
497.123	30.08
497.247	17.08
497.371	18.08
497.495	38.08
497.62	24.08
497.744	6.08
497.868	22.08
497.992	14.08
498.116	10.08
498.241	10.08
498.365	4.08
498.489	19.08
498.613	20.08
498.737	25.08
498.862	22.08
498.986	1.08
499.11	11.08
499.234	6.08
499.358	11.08
499.482	24.08
499.607	17.08
499.731	38.08
499.855	28.08
499.979	34.08
500.103	11.08
500.227	14.08
500.351	21.08
500.476	19.08
500.6	22.08
500.724	30.08
500.848	36.08
500.972	16.08
501.096	31.08
501.22	21.08
501.344	18.08
501.469	5.08
501.593	14.08
501.717	21.08
501.841	14.08
501.965	6.08
502.089	16.08
502.213	31.08
502.337	17.08
502.461	33.08
502.585	10.08
502.709	34.08
502.834	30.08
502.958	21.08
503.082	42.08
503.206	29.08
503.33	49.08
503.454	31.08
503.578	30.08
503.702	41.08
503.826	20.08
503.95	52.08
504.074	10.08
504.198	20.08
504.322	1.08
504.446	14.08
504.57	21.08
504.694	24.08
504.818	21.08
504.942	24.08
505.066	13.08
505.19	17.08
505.314	27.08
505.438	31.08
505.562	14.08
505.686	35.08
505.81	25.08
505.934	21.08
506.058	27.08
506.182	22.08
506.306	38.08
506.43	18.08
506.554	23.08
506.678	-3.92
506.802	27.08
506.926	28.08
507.05	16.08
507.174	20.08
507.298	32.08
507.422	29.08
507.546	29.08
507.67	18.08
507.794	-0.92
507.918	16.08
508.042	19.08
508.165	8.08
508.289	19.08
508.413	26.08
508.537	10.08
508.661	34.08
508.785	27.08
508.909	29.08
509.033	25.08
509.157	37.08
509.281	23.08
509.405	23.08
509.528	40.08
509.652	49.08
509.776	23.08
509.9	47.08
510.024	49.08
510.148	29.08
510.272	45.08
510.396	34.08
510.519	23.08
510.643	62.08
510.767	45.08
510.891	44.08
511.015	36.08
511.139	42.08
511.263	49.08
511.386	25.08
511.51	40.08
511.634	37.08
511.758	45.08
511.882	30.08
512.006	44.08
512.129	42.08
512.253	76.08
512.377	70.08
512.501	79.08
512.625	75.08
512.748	86.08
512.872	88.08
512.996	50.08
513.12	56.08
513.244	56.08
513.367	63.08
513.491	65.08
513.615	71.08
513.739	63.08
513.862	73.08
513.986	82.08
514.11	97.08
514.234	99.08
514.358	92.08
514.481	109.08
514.605	93.08
514.729	95.08
514.853	109.08
514.976	85.08
515.1	113.08
515.224	113.08
515.348	97.08
515.471	89.08
515.595	89.08
515.719	134.08
515.842	224.08
515.966	283.08
516.09	264.08
516.214	281.08
516.337	311.08
516.461	217.08
516.585	78.08
516.708	39.08
516.832	25.08
516.956	24.08
517.08	24.08
517.203	2.08
517.327	18.08
517.451	26.08
517.574	29.08
517.698	16.08
517.822	10.08
517.945	22.08
518.069	43.08
518.193	53.08
518.316	33.08
518.44	16.08
518.564	16.08
518.687	13.08
518.811	19.08
518.935	62.08
519.058	30.08
519.182	5.08
519.306	25.08
519.429	15.08
519.553	65.08
519.676	24.08
519.8	33.08
519.924	27.08
520.047	12.08
520.171	12.08
520.294	17.08
520.418	26.08
520.542	15.08
520.665	17.08
520.789	15.08
520.913	22.08
521.036	-8.92
521.16	8.08
521.283	7.08
521.407	18.08
521.53	-3.92
521.654	11.08
521.778	14.08
521.901	31.08
522.025	15.08
522.148	13.08
522.272	26.08
522.395	21.08
522.519	22.08
522.643	21.08
522.766	12.08
522.89	13.08
523.013	23.08
523.137	11.08
523.26	4.08
523.384	15.08
523.507	7.08
523.631	14.08
523.754	15.08
523.878	17.08
524.002	20.08
524.125	5.08
524.249	11.08
524.372	5.08
524.496	16.08
524.619	29.08
524.743	26.08
524.866	18.08
524.99	27.08
525.113	9.08
525.237	25.08
525.36	14.08
525.484	8.08
525.607	-3.92
525.731	-11.92
525.854	15.08
525.978	21.08
526.101	17.08
526.224	19.08
526.348	15.08
526.471	13.08
526.595	28.08
526.718	12.08
526.842	3.08
526.965	14.08
527.089	16.08
527.212	18.08
527.336	8.08
527.459	17.08
527.582	17.08
527.706	17.08
527.829	32.08
527.953	10.08
528.076	-1.92
528.2	7.08
528.323	28.08
528.446	31.08
528.57	36.08
528.693	18.08
528.817	12.08
528.94	16.08
529.064	36.08
529.187	12.08
529.31	22.08
529.434	9.08
529.557	14.08
529.68	18.08
529.804	11.08
529.927	31.08
530.051	17.08
530.174	19.08
530.297	26.08
530.421	27.08
530.544	18.08
530.668	7.08
530.791	10.08
530.914	19.08
531.038	23.08
531.161	8.08
531.284	26.08
531.408	25.08
531.531	15.08
531.654	14.08
531.778	25.08
531.901	11.08
532.024	18.08
532.148	24.08
532.271	24.08
532.394	14.08
532.518	32.08
532.641	21.08
532.764	35.08
532.888	22.08
533.011	2.08
533.134	-2.92
533.258	22.08
533.381	16.08
533.504	7.08
533.628	24.08
533.751	26.08
533.874	21.08
533.997	10.08
534.121	12.08
534.244	30.08
534.367	17.08
534.491	25.08
534.614	32.08
534.737	30.08
534.86	3.08
534.984	6.08
535.107	17.08
535.23	13.08
535.354	21.08
535.477	-0.92
535.6	15.08
535.723	17.08
535.847	31.08
535.97	11.08
536.093	16.08
536.216	13.08
536.34	21.08
536.463	9.08
536.586	13.08
536.709	15.08
536.833	34.08
536.956	14.08
537.079	12.08
537.202	28.08
537.325	7.08
537.449	23.08
537.572	29.08
537.695	7.08
537.818	14.08
537.941	4.08
538.065	17.08
538.188	15.08
538.311	20.08
538.434	24.08
538.558	30.08
538.681	21.08
538.804	23.08
538.927	40.08
539.05	7.08
539.173	23.08
539.297	5.08
539.42	12.08
539.543	18.08
539.666	35.08
539.789	37.08
539.913	28.08
540.036	32.08
540.159	36.08
540.282	34.08
540.405	13.08
540.528	27.08
540.651	37.08
540.775	27.08
540.898	22.08
541.021	48.08
541.144	31.08
541.267	49.08
541.39	32.08
541.513	48.08
541.637	26.08
541.76	28.08
541.883	17.08
542.006	42.08
542.129	49.08
542.252	20.08
542.375	53.08
542.498	38.08
542.622	24.08
542.745	26.08
542.868	39.08
542.991	46.08
543.114	57.08
543.237	63.08
543.36	68.08
543.483	50.08
543.606	76.08
543.73	75.08
543.853	84.08
543.976	80.08
544.099	104.08
544.222	132.08
544.345	122.08
544.468	178.08
544.591	226.08
544.714	283.08
544.837	349.08
544.96	465.08
545.083	650.08
545.206	1111.08
545.329	2443.08
545.453	11000.08
545.576	15264.08
545.699	15683.08
545.822	15683.08
545.945	15683.08
546.068	15683.08
546.191	15683.08
546.314	15683.08
546.437	15683.08
546.56	15683.08
546.683	15683.08
546.806	15683.08
546.929	15683.08
547.052	15683.08
547.175	15683.08
547.298	15683.08
547.421	15683.08
547.544	15683.08
547.667	3721.08
547.79	3397.08
547.913	1223.08
548.036	920.08
548.159	647.08
548.282	652.08
548.405	492.08
548.528	500.08
548.651	405.08
548.774	398.08
548.897	360.08
549.02	357.08
549.143	301.08
549.266	301.08
549.389	286.08
549.512	256.08
549.635	263.08
549.758	266.08
549.881	188.08
550.004	229.08
550.127	204.08
550.25	188.08
550.373	164.08
550.496	186.08
550.619	171.08
550.742	167.08
550.865	157.08
550.988	158.08
551.111	160.08
551.234	149.08
551.356	125.08
551.479	137.08
551.602	128.08
551.725	141.08
551.848	130.08
551.971	153.08
552.094	127.08
552.217	112.08
552.34	117.08
552.463	109.08
552.586	132.08
552.709	122.08
552.832	102.08
552.955	98.08
553.077	96.08
553.2	109.08
553.323	94.08
553.446	104.08
553.569	114.08
553.692	109.08
553.815	86.08
553.938	89.08
554.061	79.08
554.184	96.08
554.306	94.08
554.429	85.08
554.552	85.08
554.675	76.08
554.798	80.08
554.921	88.08
555.044	81.08
555.167	69.08
555.29	59.08
555.412	77.08
555.535	65.08
555.658	77.08
555.781	82.08
555.904	70.08
556.027	85.08
556.15	74.08
556.272	83.08
556.395	90.08
556.518	61.08
556.641	84.08
556.764	85.08
556.887	70.08
557.01	69.08
557.132	63.08
557.255	52.08
557.378	76.08
557.501	46.08
557.624	81.08
557.747	72.08
557.869	81.08
557.992	77.08
558.115	79.08
558.238	72.08
558.361	104.08
558.483	90.08
558.606	78.08
558.729	50.08
558.852	72.08
558.975	56.08
559.098	55.08
559.22	54.08
559.343	55.08
559.466	51.08
559.589	54.08
559.712	68.08
559.834	68.08
559.957	45.08
560.08	49.08
560.203	81.08
560.325	61.08
560.448	65.08
560.571	56.08
560.694	38.08
560.817	65.08
560.939	52.08
561.062	69.08
561.185	57.08
561.308	64.08
561.43	65.08
561.553	73.08
561.676	64.08
561.799	75.08
561.921	62.08
562.044	65.08
562.167	57.08
562.29	97.08
562.413	68.08
562.535	84.08
562.658	44.08
562.781	47.08
562.903	72.08
563.026	92.08
563.149	134.08
563.272	113.08
563.394	120.08
563.517	108.08
563.64	67.08
563.763	49.08
563.885	48.08
564.008	55.08
564.131	42.08
564.254	37.08
564.376	58.08
564.499	38.08
564.622	24.08
564.744	44.08
564.867	32.08
564.99	36.08
565.113	37.08
565.235	25.08
565.358	42.08
565.481	34.08
565.603	25.08
565.726	38.08
565.849	26.08
565.971	41.08
566.094	27.08
566.217	45.08
566.34	52.08
566.462	53.08
566.585	31.08
566.708	62.08
566.83	31.08
566.953	52.08
567.076	29.08
567.198	57.08
567.321	27.08
567.444	52.08
567.566	40.08
567.689	31.08
567.812	29.08
567.934	46.08
568.057	41.08
568.18	37.08
568.302	14.08
568.425	40.08
568.548	29.08
568.67	29.08
568.793	38.08
568.916	42.08
569.038	26.08
569.161	18.08
569.283	36.08
569.406	33.08
569.529	26.08
569.651	26.08
569.774	21.08
569.897	36.08
570.019	42.08
570.142	37.08
570.265	33.08
570.387	21.08
570.51	54.08
570.632	39.08
570.755	23.08
570.878	26.08
571	39.08
571.123	35.08
571.246	44.08
571.368	38.08
571.491	36.08
571.613	18.08
571.736	16.08
571.859	14.08
571.981	23.08
572.104	21.08
572.226	42.08
572.349	30.08
572.472	24.08
572.594	48.08
572.717	41.08
572.839	23.08
572.962	16.08
573.085	28.08
573.207	42.08
573.33	19.08
573.452	40.08
573.575	51.08
573.697	27.08
573.82	9.08
573.943	28.08
574.065	35.08
574.188	34.08
574.31	56.08
574.433	36.08
574.555	34.08
574.678	36.08
574.801	39.08
574.923	25.08
575.046	48.08
575.168	30.08
575.291	28.08
575.413	43.08
575.536	37.08
575.659	69.08
575.781	51.08
575.904	49.08
576.026	63.08
576.149	85.08
576.271	138.08
576.394	211.08
576.516	543.08
576.639	3662.08
576.761	10228.08
576.884	8904.08
577.007	8809.08
577.129	8062.08
577.252	3732.08
577.374	1293.08
577.497	509.08
577.619	287.08
577.742	200.08
577.864	142.08
577.987	135.08
578.109	142.08
578.232	128.08
578.354	130.08
578.477	192.08
578.599	394.08
578.722	1975.08
578.844	9137.08
578.967	9860.08
579.089	8810.08
579.212	9148.08
579.334	5350.08
579.457	1969.08
579.579	732.08
579.702	333.08
579.824	185.08
579.947	128.08
580.069	110.08
580.192	91.08
580.314	97.08
580.437	76.08
580.559	97.08
580.682	47.08
580.804	63.08
580.927	66.08
581.049	49.08
581.172	47.08
581.294	55.08
581.417	59.08
581.539	62.08
581.662	56.08
581.784	48.08
581.907	65.08
582.029	47.08
582.152	38.08
582.274	48.08
582.396	48.08
582.519	48.08
582.641	23.08
582.764	29.08
582.886	54.08
583.009	24.08
583.131	27.08
583.254	28.08
583.376	58.08
583.499	40.08
583.621	35.08
583.743	44.08
583.866	68.08
583.988	45.08
584.111	45.08
584.233	54.08
584.356	51.08
584.478	49.08
584.601	25.08
584.723	42.08
584.845	26.08
584.968	14.08
585.09	16.08
585.213	20.08
585.335	13.08
585.458	33.08
585.58	31.08
585.702	36.08
585.825	41.08
585.947	35.08
586.07	24.08
586.192	22.08
586.315	36.08
586.437	34.08
586.559	24.08
586.682	22.08
586.804	34.08
586.927	18.08
587.049	27.08
587.171	46.08
587.294	32.08
587.416	53.08
587.539	46.08
587.661	15.08
587.783	20.08
587.906	23.08
588.028	18.08
588.151	46.08
588.273	31.08
588.395	10.08
588.518	30.08
588.64	20.08
588.763	53.08
588.885	40.08
589.007	42.08
589.13	11.08
589.252	4.08
589.375	35.08
589.497	24.08
589.619	34.08
589.742	25.08
589.864	40.08
589.986	32.08
590.109	13.08
590.231	32.08
590.354	37.08
590.476	28.08
590.598	20.08
590.721	11.08
590.843	26.08
590.965	47.08
591.088	37.08
591.21	24.08
591.332	22.08
591.455	18.08
591.577	-4.92
591.7	27.08
591.822	12.08
591.944	25.08
592.067	14.08
592.189	6.08
592.311	41.08
592.434	21.08
592.556	33.08
592.678	33.08
592.801	38.08
592.923	13.08
593.045	10.08
593.168	13.08
593.29	25.08
593.412	32.08
593.535	27.08
593.657	18.08
593.779	29.08
593.902	34.08
594.024	37.08
594.146	44.08
594.269	34.08
594.391	12.08
594.513	18.08
594.636	16.08
594.758	14.08
594.88	39.08
595.003	28.08
595.125	26.08
595.247	26.08
595.37	32.08
595.492	13.08
595.614	27.08
595.737	29.08
595.859	20.08
595.981	27.08
596.104	30.08
596.226	24.08
596.348	20.08
596.471	7.08
596.593	14.08
596.715	15.08
596.838	18.08
596.96	11.08
597.082	27.08
597.204	41.08
597.327	31.08
597.449	20.08
597.571	17.08
597.694	37.08
597.816	33.08
597.938	18.08
598.061	16.08
598.183	21.08
598.305	23.08
598.427	31.08
598.55	22.08
598.672	34.08
598.794	29.08
598.917	11.08
599.039	25.08
599.161	22.08
599.283	27.08
599.406	30.08
599.528	21.08
599.65	39.08
599.773	32.08
599.895	45.08
600.017	20.08
600.139	24.08
600.262	30.08
600.384	25.08
600.506	38.08
600.628	42.08
600.751	28.08
600.873	13.08
600.995	27.08
601.118	38.08
601.24	34.08
601.362	30.08
601.484	23.08
601.607	16.08
601.729	17.08
601.851	29.08
601.973	24.08
602.096	26.08
602.218	41.08
602.34	14.08
602.462	22.08
602.585	15.08
602.707	22.08
602.829	13.08
602.951	8.08
603.074	9.08
603.196	24.08
603.318	1.08
603.44	14.08
603.563	23.08
603.685	-2.92
603.807	25.08
603.929	24.08
604.052	36.08
604.174	45.08
604.296	38.08
604.418	29.08
604.541	28.08
604.663	8.08
604.785	12.08
604.907	10.08
605.03	1.08
605.152	49.08
605.274	32.08
605.396	29.08
605.519	24.08
605.641	22.08
605.763	16.08
605.885	26.08
606.008	26.08
606.13	32.08
606.252	16.08
606.374	4.08
606.496	12.08
606.619	24.08
606.741	4.08
606.863	47.08
606.985	46.08
607.108	26.08
607.23	0.08
607.352	14.08
607.474	21.08
607.596	39.08
607.719	20.08
607.841	17.08
607.963	22.08
608.085	24.08
608.207	58.08
608.33	12.08
608.452	16.08
608.574	22.08
608.696	22.08
608.819	26.08
608.941	20.08
609.063	22.08
609.185	39.08
609.307	24.08
609.43	22.08
609.552	30.08
609.674	18.08
609.796	24.08
609.918	26.08
610.041	12.08
610.163	26.08
610.285	30.08
610.407	22.08
610.529	37.08
610.652	45.08
610.774	36.08
610.896	31.08
611.018	20.08
611.14	21.08
611.263	13.08
611.385	5.08
611.507	15.08
611.629	17.08
611.751	31.08
611.873	31.08
611.996	21.08
612.118	32.08
612.24	27.08
612.362	29.08
612.484	37.08
612.607	35.08
612.729	49.08
612.851	30.08
612.973	20.08
613.095	9.08
613.218	16.08
613.34	18.08
613.462	16.08
613.584	25.08
613.706	18.08
613.828	41.08
613.951	13.08
614.073	20.08
614.195	-2.92
614.317	37.08
614.439	16.08
614.561	9.08
614.684	31.08
614.806	17.08
614.928	42.08
615.05	21.08
615.172	27.08
615.294	18.08
615.417	4.08
615.539	23.08
615.661	38.08
615.783	45.08
615.905	20.08
616.027	35.08
616.15	47.08
616.272	23.08
616.394	0.08
616.516	14.08
616.638	19.08
616.76	9.08
616.883	29.08
617.005	16.08
617.127	18.08
617.249	27.08
617.371	13.08
617.493	32.08
617.615	33.08
617.738	30.08
617.86	23.08
617.982	16.08
618.104	20.08
618.226	17.08
618.348	10.08
618.471	36.08
618.593	33.08
618.715	14.08
618.837	18.08
618.959	27.08
619.081	29.08
619.203	32.08
619.326	32.08
619.448	29.08
619.57	25.08
619.692	22.08
619.814	17.08
619.936	28.08
620.058	28.08
620.181	29.08
620.303	10.08
620.425	19.08
620.547	-10.92
620.669	7.08
620.791	6.08
620.913	13.08
621.036	13.08
621.158	23.08
621.28	30.08
621.402	20.08
621.524	21.08
621.646	22.08
621.768	12.08
621.891	-0.92
622.013	23.08
622.135	11.08
622.257	18.08
622.379	14.08
622.501	18.08
622.623	7.08
622.745	16.08
622.868	15.08
622.99	20.08
623.112	4.08
623.234	10.08
623.356	13.08
623.478	9.08
623.6	16.08
623.722	20.08
623.845	37.08
623.967	16.08
624.089	26.08
624.211	18.08
624.333	45.08
624.455	17.08
624.577	25.08
624.699	50.08
624.822	18.08
624.944	17.08
625.066	13.08
625.188	1.08
625.31	26.08
625.432	32.08
625.554	16.08
625.676	56.08
625.799	17.08
625.921	16.08
626.043	17.08
626.165	18.08
626.287	8.08
626.409	20.08
626.531	11.08
626.653	7.08
626.775	14.08
626.898	36.08
627.02	21.08
627.142	29.08
627.264	20.08
627.386	16.08
627.508	28.08
627.63	16.08
627.752	28.08
627.874	17.08
627.997	22.08
628.119	36.08
628.241	32.08
628.363	31.08
628.485	18.08
628.607	-4.92
628.729	-3.92
628.851	8.08
628.973	36.08
629.096	5.08
629.218	9.08
629.34	21.08
629.462	15.08
629.584	8.08
629.706	17.08
629.828	16.08
629.95	15.08
630.072	13.08
630.195	13.08
630.317	26.08
630.439	33.08
630.561	32.08
630.683	9.08
630.805	18.08
630.927	34.08
631.049	14.08
631.171	-2.92
631.293	10.08
631.416	28.08
631.538	18.08
631.66	17.08
631.782	21.08
631.904	20.08
632.026	8.08
632.148	27.08
632.27	12.08
632.392	17.08
632.514	6.08
632.637	27.08
632.759	14.08
632.881	5.08
633.003	-3.92
633.125	3.08
633.247	20.08
633.369	14.08
633.491	1.08
633.613	22.08
633.735	15.08
633.858	16.08
633.98	17.08
634.102	5.08
634.224	26.08
634.346	16.08
634.468	15.08
634.59	20.08
634.712	21.08
634.834	12.08
634.956	19.08
635.078	-3.92
635.201	9.08
635.323	21.08
635.445	4.08
635.567	5.08
635.689	24.08
635.811	12.08
635.933	2.08
636.055	17.08
636.177	25.08
636.299	26.08
636.421	6.08
636.544	-5.92
636.666	26.08
636.788	17.08
636.91	12.08
637.032	4.08
637.154	21.08
637.276	57.08
637.398	24.08
637.52	28.08
637.642	22.08
637.764	32.08
637.887	4.08
638.009	7.08
638.131	12.08
638.253	-6.92
638.375	13.08
638.497	9.08
638.619	9.08
638.741	27.08
638.863	-6.92
638.985	10.08
639.107	5.08
639.23	6.08
639.352	32.08
639.474	8.08
639.596	2.08
639.718	4.08
639.84	15.08
639.962	14.08
640.084	36.08
640.206	25.08
640.328	15.08
640.45	8.08
640.573	7.08
640.695	4.08
640.817	13.08
640.939	26.08
641.061	18.08
641.183	9.08
641.305	4.08
641.427	21.08
641.549	10.08
641.671	20.08
641.793	21.08
641.915	27.08
642.038	11.08
642.16	19.08
642.282	11.08
642.404	14.08
642.526	31.08
642.648	9.08
642.77	-10.92
642.892	4.08
643.014	27.08
643.136	13.08
643.258	10.08
643.381	29.08
643.503	25.08
643.625	21.08
643.747	6.08
643.869	-5.92
643.991	10.08
644.113	14.08
644.235	19.08
644.357	1.08
644.479	31.08
644.601	17.08
644.723	21.08
644.846	14.08
644.968	12.08
645.09	15.08
645.212	11.08
645.334	23.08
645.456	23.08
645.578	15.08
645.7	23.08
645.822	27.08
645.944	5.08
646.066	18.08
646.188	-6.92
646.311	23.08
646.433	-1.92
646.555	31.08
646.677	9.08
646.799	4.08
646.921	17.08
647.043	22.08
647.165	8.08
647.287	5.08
647.409	7.08
647.531	19.08
647.654	-0.92
647.776	13.08
647.898	25.08
648.02	-1.92
648.142	-1.92
648.264	6.08
648.386	-3.92
648.508	4.08
648.63	5.08
648.752	14.08
648.874	25.08
648.997	33.08
649.119	23.08
649.241	22.08
649.363	43.08
649.485	13.08
649.607	16.08
649.729	-10.92
649.851	5.08
649.973	20.08
650.095	26.08
650.217	4.08
650.34	21.08
650.462	16.08
650.584	13.08
650.706	19.08
650.828	0.08
650.95	-3.92
651.072	15.08
651.194	11.08
651.316	11.08
651.438	5.08
651.56	4.08
651.683	-2.92
651.805	-1.92
651.927	1.08
652.049	8.08
652.171	24.08
652.293	18.08
652.415	7.08
652.537	-17.92
652.659	10.08
652.781	11.08
652.903	29.08
653.026	24.08
653.148	16.08
653.27	9.08
653.392	24.08
653.514	12.08
653.636	15.08
653.758	5.08
653.88	1.08
654.002	4.08
654.124	2.08
654.247	24.08
654.369	13.08
654.491	13.08
654.613	2.08
654.735	14.08
654.857	13.08
654.979	12.08
655.101	21.08
655.223	34.08
655.345	27.08
655.468	20.08
655.59	6.08
655.712	20.08
655.834	20.08
655.956	21.08
656.078	7.08
656.2	5.08
656.322	-0.92
656.444	-14.92
656.566	18.08
656.689	8.08
656.811	19.08
656.933	16.08
657.055	-5.92
657.177	20.08
657.299	10.08
657.421	2.08
657.543	4.08
657.665	-4.92
657.787	9.08
657.91	-9.92
658.032	8.08
658.154	8.08
658.276	15.08
658.398	6.08
658.52	16.08
658.642	27.08
658.764	8.08
658.886	7.08
659.009	19.08
659.131	26.08
659.253	16.08
659.375	12.08
659.497	7.08
659.619	27.08
659.741	12.08
659.863	6.08
659.985	4.08
660.108	36.08
660.23	8.08
660.352	21.08
660.474	13.08
660.596	20.08
660.718	22.08
660.84	9.08
660.962	8.08
661.084	17.08
661.207	12.08
661.329	17.08
661.451	13.08
661.573	10.08
661.695	31.08
661.817	9.08
661.939	40.08
662.061	29.08
662.184	17.08
662.306	12.08
662.428	15.08
662.55	19.08
662.672	-7.92
662.794	4.08
662.916	10.08
663.038	15.08
663.161	24.08
663.283	24.08
663.405	7.08
663.527	8.08
663.649	30.08
663.771	11.08
663.893	20.08
664.015	9.08
664.138	17.08
664.26	22.08
664.382	16.08
664.504	-10.92
664.626	2.08
664.748	-4.92
664.87	4.08
664.992	23.08
665.115	21.08
665.237	10.08
665.359	1.08
665.481	12.08
665.603	29.08
665.725	7.08
665.847	-4.92
665.97	1.08
666.092	16.08
666.214	28.08
666.336	13.08
666.458	33.08
666.58	13.08
666.702	5.08
666.825	5.08
666.947	-1.92
667.069	5.08
667.191	13.08
667.313	11.08
667.435	6.08
667.557	0.08
667.68	6.08
667.802	-1.92
667.924	20.08
668.046	17.08
668.168	25.08
668.29	31.08
668.412	6.08
668.535	11.08
668.657	17.08
668.779	6.08
668.901	0.08
669.023	29.08
669.145	-1.92
669.267	8.08
669.39	31.08
669.512	16.08
669.634	10.08
669.756	-10.92
669.878	1.08
670	8.08
670.123	-1.92
670.245	28.08
670.367	44.08
670.489	17.08
670.611	3.08
670.733	-10.92
670.856	9.08
670.978	15.08
671.1	24.08
671.222	5.08
671.344	6.08
671.466	22.08
671.589	6.08
671.711	13.08
671.833	-0.92
671.955	15.08
672.077	8.08
672.199	28.08
672.322	39.08
672.444	24.08
672.566	33.08
672.688	13.08
672.81	13.08
672.932	12.08
673.055	14.08
673.177	1.08
673.299	23.08
673.421	-3.92
673.543	10.08
673.665	17.08
673.788	24.08
673.91	-5.92
674.032	-5.92
674.154	-2.92
674.276	24.08
674.399	23.08
674.521	21.08
674.643	25.08
674.765	7.08
674.887	18.08
675.009	2.08
675.132	0.08
675.254	7.08
675.376	24.08
675.498	25.08
675.62	27.08
675.743	0.08
675.865	12.08
675.987	-2.92
676.109	2.08
676.231	12.08
676.354	12.08
676.476	-6.92
676.598	0.08
676.72	16.08
676.842	25.08
676.965	23.08
677.087	18.08
677.209	9.08
677.331	10.08
677.453	1.08
677.576	15.08
677.698	5.08
677.82	4.08
677.942	9.08
678.064	8.08
678.187	12.08
678.309	7.08
678.431	11.08
678.553	-5.92
678.675	25.08
678.798	24.08
678.92	20.08
679.042	7.08
679.164	7.08
679.286	25.08
679.409	12.08
679.531	7.08
679.653	15.08
679.775	6.08
679.898	-5.92
680.02	4.08
680.142	-4.92
680.264	6.08
680.386	-6.92
680.509	24.08
680.631	7.08
680.753	16.08
680.875	1.08
680.998	17.08
681.12	-6.92
681.242	13.08
681.364	-16.92
681.486	24.08
681.609	-0.92
681.731	-8.92
681.853	-13.92
681.975	1.08
682.098	23.08
682.22	20.08
682.342	-0.92
682.464	33.08
682.587	16.08
682.709	12.08
682.831	0.08
682.953	-0.92
683.076	6.08
683.198	13.08
683.32	17.08
683.442	16.08
683.565	33.08
683.687	6.08
683.809	6.08
683.931	-2.92
684.054	5.08
684.176	25.08
684.298	4.08
684.42	9.08
684.543	8.08
684.665	8.08
684.787	8.08
684.909	3.08
685.032	19.08
685.154	-13.92
685.276	1.08
685.398	17.08
685.521	0.08
685.643	5.08
685.765	0.08
685.887	19.08
686.01	8.08
686.132	6.08
686.254	9.08
686.377	5.08
686.499	19.08
686.621	17.08
686.743	19.08
686.866	20.08
686.988	18.08
687.11	17.08
687.232	2.08
687.355	-4.92
687.477	14.08
687.599	16.08
687.722	18.08
687.844	33.08
687.966	12.08
688.088	21.08
688.211	25.08
688.333	11.08
688.455	8.08
688.578	22.08
688.7	25.08
688.822	11.08
688.944	8.08
689.067	45.08
689.189	9.08
689.311	-7.92
689.434	-7.92
689.556	20.08
689.678	11.08
689.801	10.08
689.923	4.08
690.045	12.08
690.167	25.08
690.29	23.08
690.412	15.08
690.534	17.08
690.657	-7.92
690.779	7.08
690.901	6.08
691.024	12.08
691.146	9.08
691.268	-11.92
691.391	5.08
691.513	10.08
691.635	19.08
691.758	12.08
691.88	21.08
692.002	8.08
692.125	1.08
692.247	10.08
692.369	9.08
692.492	-6.92
692.614	10.08
692.736	2.08
692.859	4.08
692.981	-2.92
693.103	15.08
693.226	6.08
693.348	17.08
693.47	23.08
693.593	18.08
693.715	19.08
693.837	49.08
693.96	28.08
694.082	6.08
694.204	18.08
694.327	11.08
694.449	-14.92
694.571	-1.92
694.694	14.08
694.816	6.08
694.938	15.08
695.061	16.08
695.183	18.08
695.305	5.08
695.428	29.08
695.55	10.08
695.672	21.08
695.795	30.08
695.917	16.08
696.04	-6.92
696.162	6.08
696.284	13.08
696.407	0.08
696.529	1.08
696.651	15.08
696.774	21.08
696.896	17.08
697.019	20.08
697.141	30.08
697.263	9.08
697.386	9.08
697.508	15.08
697.63	14.08
697.753	25.08
697.875	4.08
697.998	-1.92
698.12	6.08
698.242	9.08
698.365	10.08
698.487	10.08
698.61	17.08
698.732	10.08
698.854	24.08
698.977	16.08
699.099	24.08
699.221	17.08
699.344	4.08
699.466	12.08
699.589	16.08
699.711	13.08
699.834	14.08
699.956	6.08
700.078	22.08
700.201	0.08
700.323	23.08
700.446	5.08
700.568	1.08
700.69	26.08
700.813	21.08
700.935	4.08
701.058	32.08
701.18	8.08
701.302	12.08
701.425	-3.92
701.547	7.08
701.67	10.08
701.792	38.08
701.915	1.08
702.037	4.08
702.159	17.08
702.282	15.08
702.404	13.08
702.527	18.08
702.649	35.08
702.772	14.08
702.894	-8.92
703.017	-1.92
703.139	10.08
703.261	32.08
703.384	17.08
703.506	3.08
703.629	-3.92
703.751	28.08
703.874	10.08
703.996	9.08
704.119	-5.92
704.241	18.08
704.364	-5.92
704.486	10.08
704.608	22.08
704.731	9.08
704.853	8.08
704.976	-1.92
705.098	19.08
705.221	0.08
705.343	14.08
705.466	10.08
705.588	13.08
705.711	4.08
705.833	20.08
705.956	7.08
706.078	20.08
706.201	14.08
706.323	18.08
706.446	-7.92
