Data from LowRes_mercury_15_20_11_07_2024_HR4C61881__73__15-23-39-570.txt Node

Date: Thu Nov 07 15:23:39 EST 2024
User: crc00042
Spectrometer: HR4C6188
Trigger mode: 4
Integration Time (sec): 1.000000E-1
Scans to average: 1
Electric dark correction enabled: true
Nonlinearity correction enabled: false
Boxcar width: 0
XAxis mode: Wavelengths
Number of Pixels in Spectrum: 3648
>>>>>Begin Spectral Data<<<<<
245.66	-70.08
245.797	-70.08
245.934	-70.08
246.071	-82.08
246.208	6.92
246.344	10.92
246.481	-1.08
246.618	-7.08
246.755	16.92
246.892	12.92
247.029	-21.08
247.165	-13.08
247.302	11.92
247.439	-1.08
247.576	2.92
247.713	-13.08
247.849	16.92
247.986	-16.08
248.123	-7.08
248.26	2.92
248.396	7.92
248.533	-5.08
248.67	-2.08
248.806	2.92
248.943	-21.08
249.08	2.92
249.216	-5.08
249.353	-31.08
249.49	-14.08
249.626	3.92
249.763	1.92
249.9	-13.08
250.036	-3.08
250.173	1.92
250.309	17.92
250.446	-2.08
250.582	-2.08
250.719	-19.08
250.856	-9.08
250.992	-11.08
251.129	-7.08
251.265	-13.08
251.402	13.92
251.538	6.92
251.675	-6.08
251.811	7.92
251.948	-3.08
252.084	1.92
252.221	1.92
252.357	-1.08
252.493	22.92
252.63	-1.08
252.766	13.92
252.903	-8.08
253.039	-14.08
253.175	-0.08
253.312	7.92
253.448	-16.08
253.585	-11.08
253.721	20.92
253.857	3.92
253.994	17.92
254.13	4.92
254.266	-1.08
254.403	5.92
254.539	-2.08
254.675	15.92
254.811	19.92
254.948	0.92
255.084	-17.08
255.22	-20.08
255.356	-5.08
255.493	-1.08
255.629	20.92
255.765	14.92
255.901	3.92
256.037	-7.08
256.174	-3.08
256.31	-1.08
256.446	-12.08
256.582	-3.08
256.718	0.92
256.854	27.92
256.991	22.92
257.127	22.92
257.263	-0.08
257.399	-0.08
257.535	-2.08
257.671	5.92
257.807	-14.08
257.943	-2.08
258.079	-5.08
258.215	2.92
258.351	16.92
258.487	8.92
258.623	18.92
258.759	-26.08
258.895	-6.08
259.031	-22.08
259.167	-14.08
259.303	0.92
259.439	-11.08
259.575	-3.08
259.711	6.92
259.847	-8.08
259.983	4.92
260.119	2.92
260.255	-11.08
260.391	-7.08
260.527	17.92
260.663	-1.08
260.799	-4.08
260.934	15.92
261.07	4.92
261.206	-13.08
261.342	-21.08
261.478	7.92
261.614	3.92
261.749	4.92
261.885	-0.08
262.021	-18.08
262.157	11.92
262.293	-11.08
262.428	4.92
262.564	-6.08
262.7	-2.08
262.836	-13.08
262.971	6.92
263.107	7.92
263.243	19.92
263.378	5.92
263.514	-7.08
263.65	-3.08
263.785	-9.08
263.921	-10.08
264.057	3.92
264.192	-4.08
264.328	19.92
264.464	-17.08
264.599	-2.08
264.735	4.92
264.871	-9.08
265.006	3.92
265.142	-0.08
265.277	-4.08
265.413	17.92
265.548	-7.08
265.684	12.92
265.819	9.92
265.955	-1.08
266.091	-10.08
266.226	-33.08
266.362	-10.08
266.497	4.92
266.633	-3.08
266.768	-9.08
266.903	20.92
267.039	11.92
267.174	28.92
267.31	1.92
267.445	-0.08
267.581	4.92
267.716	19.92
267.851	13.92
267.987	1.92
268.122	23.92
268.258	6.92
268.393	-13.08
268.528	9.92
268.664	-19.08
268.799	-12.08
268.934	1.92
269.07	-4.08
269.205	-11.08
269.34	25.92
269.476	-10.08
269.611	-19.08
269.746	8.92
269.881	13.92
270.017	13.92
270.152	-7.08
270.287	15.92
270.422	-3.08
270.558	-10.08
270.693	14.92
270.828	-4.08
270.963	-12.08
271.098	-0.08
271.234	5.92
271.369	17.92
271.504	-8.08
271.639	-11.08
271.774	9.92
271.909	-8.08
272.045	-18.08
272.18	-10.08
272.315	9.92
272.45	-5.08
272.585	-3.08
272.72	-6.08
272.855	6.92
272.99	27.92
273.125	-15.08
273.26	-18.08
273.395	11.92
273.53	11.92
273.665	18.92
273.8	5.92
273.935	3.92
274.07	-5.08
274.205	-1.08
274.34	3.92
274.475	-8.08
274.61	12.92
274.745	-0.08
274.88	2.92
275.015	-8.08
275.15	8.92
275.285	8.92
275.42	-1.08
275.555	6.92
275.69	4.92
275.825	4.92
275.959	9.92
276.094	-12.08
276.229	-11.08
276.364	-4.08
276.499	5.92
276.634	-10.08
276.768	-20.08
276.903	-1.08
277.038	9.92
277.173	5.92
277.308	-12.08
277.442	1.92
277.577	-17.08
277.712	2.92
277.847	3.92
277.981	12.92
278.116	-10.08
278.251	10.92
278.386	11.92
278.52	3.92
278.655	-0.08
278.79	15.92
278.924	1.92
279.059	11.92
279.194	-13.08
279.328	29.92
279.463	-1.08
279.598	15.92
279.732	-3.08
279.867	1.92
280.001	3.92
280.136	-8.08
280.271	5.92
280.405	17.92
280.54	19.92
280.674	-1.08
280.809	4.92
280.943	-9.08
281.078	14.92
281.213	17.92
281.347	6.92
281.482	13.92
281.616	2.92
281.751	7.92
281.885	-16.08
282.02	-17.08
282.154	10.92
282.288	-13.08
282.423	-1.08
282.557	-19.08
282.692	4.92
282.826	8.92
282.961	6.92
283.095	-0.08
283.229	-3.08
283.364	-24.08
283.498	-18.08
283.633	-5.08
283.767	-0.08
283.901	-0.08
284.036	4.92
284.17	-1.08
284.304	-11.08
284.439	15.92
284.573	6.92
284.707	23.92
284.842	-8.08
284.976	8.92
285.11	-29.08
285.244	-16.08
285.379	50.92
285.513	-3.08
285.647	2.92
285.781	15.92
285.916	24.92
286.05	1.92
286.184	30.92
286.318	-1.08
286.453	-5.08
286.587	-6.08
286.721	-9.08
286.855	3.92
286.989	-8.08
287.123	-11.08
287.258	-0.08
287.392	5.92
287.526	4.92
287.66	-19.08
287.794	-9.08
287.928	10.92
288.062	-4.08
288.196	-2.08
288.33	17.92
288.464	9.92
288.598	-0.08
288.733	3.92
288.867	10.92
289.001	-2.08
289.135	22.92
289.269	7.92
289.403	2.92
289.537	14.92
289.671	4.92
289.805	-16.08
289.939	11.92
290.073	-9.08
290.207	1.92
290.34	20.92
290.474	13.92
290.608	17.92
290.742	-7.08
290.876	-14.08
291.01	-11.08
291.144	3.92
291.278	9.92
291.412	2.92
291.546	7.92
291.679	-1.08
291.813	-0.08
291.947	5.92
292.081	-1.08
292.215	2.92
292.349	10.92
292.482	5.92
292.616	3.92
292.75	11.92
292.884	9.92
293.018	-3.08
293.151	-18.08
293.285	7.92
293.419	3.92
293.553	-10.08
293.686	-22.08
293.82	-9.08
293.954	14.92
294.088	26.92
294.221	-7.08
294.355	-10.08
294.489	2.92
294.622	-14.08
294.756	-19.08
294.89	6.92
295.023	9.92
295.157	1.92
295.291	11.92
295.424	30.92
295.558	-9.08
295.691	1.92
295.825	5.92
295.959	3.92
296.092	-7.08
296.226	3.92
296.359	6.92
296.493	6.92
296.627	-11.08
296.76	-4.08
296.894	8.92
297.027	4.92
297.161	-0.08
297.294	-9.08
297.428	-14.08
297.561	7.92
297.695	-17.08
297.828	3.92
297.962	-0.08
298.095	-18.08
298.229	-1.08
298.362	-19.08
298.495	-3.08
298.629	-1.08
298.762	-2.08
298.896	-11.08
299.029	-17.08
299.162	11.92
299.296	1.92
299.429	-2.08
299.563	0.92
299.696	0.92
299.829	-0.08
299.963	16.92
300.096	21.92
300.229	5.92
300.363	0.92
300.496	2.92
300.629	-7.08
300.763	-1.08
300.896	-3.08
301.029	13.92
301.162	14.92
301.296	5.92
301.429	3.92
301.562	-17.08
301.695	3.92
301.829	4.92
301.962	14.92
302.095	4.92
302.228	-6.08
302.362	7.92
302.495	3.92
302.628	24.92
302.761	5.92
302.894	1.92
303.027	-3.08
303.161	-9.08
303.294	-19.08
303.427	1.92
303.56	-15.08
303.693	-7.08
303.826	-6.08
303.959	8.92
304.092	-7.08
304.225	3.92
304.359	2.92
304.492	9.92
304.625	-6.08
304.758	18.92
304.891	-22.08
305.024	3.92
305.157	16.92
305.29	-20.08
305.423	-10.08
305.556	17.92
305.689	19.92
305.822	-8.08
305.955	1.92
306.088	18.92
306.221	-5.08
306.354	-1.08
306.487	-3.08
306.62	-12.08
306.752	-1.08
306.885	8.92
307.018	-4.08
307.151	6.92
307.284	16.92
307.417	-20.08
307.55	11.92
307.683	9.92
307.816	25.92
307.948	14.92
308.081	10.92
308.214	21.92
308.347	4.92
308.48	-24.08
308.613	-22.08
308.745	11.92
308.878	-22.08
309.011	-6.08
309.144	6.92
309.277	-6.08
309.409	15.92
309.542	-10.08
309.675	18.92
309.808	21.92
309.94	10.92
310.073	9.92
310.206	-1.08
310.339	12.92
310.471	-13.08
310.604	18.92
310.737	2.92
310.869	-6.08
311.002	-15.08
311.135	-4.08
311.267	-19.08
311.4	2.92
311.533	17.92
311.665	9.92
311.798	-5.08
311.93	7.92
312.063	21.92
312.196	35.92
312.328	70.92
312.461	66.92
312.593	27.92
312.726	36.92
312.859	105.92
312.991	176.92
313.124	48.92
313.256	17.92
313.389	22.92
313.521	5.92
313.654	12.92
313.786	-6.08
313.919	-2.08
314.051	-3.08
314.184	2.92
314.316	15.92
314.449	-10.08
314.581	2.92
314.714	3.92
314.846	12.92
314.978	-10.08
315.111	-7.08
315.243	4.92
315.376	17.92
315.508	10.92
315.641	5.92
315.773	19.92
315.905	1.92
316.038	6.92
316.17	-4.08
316.302	4.92
316.435	-0.08
316.567	-4.08
316.699	12.92
316.832	-8.08
316.964	0.92
317.096	0.92
317.229	-22.08
317.361	-3.08
317.493	2.92
317.625	-14.08
317.758	8.92
317.89	0.92
318.022	2.92
318.155	25.92
318.287	2.92
318.419	-2.08
318.551	6.92
318.683	-2.08
318.816	7.92
318.948	-0.08
319.08	-14.08
319.212	8.92
319.344	12.92
319.477	-4.08
319.609	-2.08
319.741	-3.08
319.873	14.92
320.005	-12.08
320.137	3.92
320.269	-9.08
320.401	-7.08
320.534	-5.08
320.666	-26.08
320.798	-12.08
320.93	-12.08
321.062	-8.08
321.194	-4.08
321.326	-9.08
321.458	10.92
321.59	-7.08
321.722	3.92
321.854	-8.08
321.986	-0.08
322.118	7.92
322.25	-10.08
322.382	0.92
322.514	-17.08
322.646	-26.08
322.778	18.92
322.91	1.92
323.042	5.92
323.174	5.92
323.306	0.92
323.438	-15.08
323.57	-8.08
323.702	-1.08
323.834	-2.08
323.966	-29.08
324.097	-5.08
324.229	-2.08
324.361	2.92
324.493	3.92
324.625	-25.08
324.757	-15.08
324.889	5.92
325.021	17.92
325.152	25.92
325.284	18.92
325.416	-24.08
325.548	15.92
325.68	1.92
325.811	1.92
325.943	5.92
326.075	-30.08
326.207	6.92
326.339	14.92
326.47	-23.08
326.602	3.92
326.734	18.92
326.866	22.92
326.997	7.92
327.129	-4.08
327.261	17.92
327.392	4.92
327.524	9.92
327.656	-7.08
327.787	14.92
327.919	17.92
328.051	3.92
328.182	7.92
328.314	19.92
328.446	2.92
328.577	12.92
328.709	11.92
328.841	-19.08
328.972	-6.08
329.104	-12.08
329.235	-7.08
329.367	-7.08
329.499	1.92
329.63	12.92
329.762	12.92
329.893	-2.08
330.025	-0.08
330.156	-17.08
330.288	24.92
330.419	13.92
330.551	9.92
330.683	24.92
330.814	5.92
330.946	5.92
331.077	0.92
331.208	12.92
331.34	1.92
331.471	14.92
331.603	-16.08
331.734	-32.08
331.866	-6.08
331.997	-7.08
332.129	-1.08
332.26	5.92
332.392	27.92
332.523	-14.08
332.654	4.92
332.786	3.92
332.917	4.92
333.048	14.92
333.18	30.92
333.311	5.92
333.443	19.92
333.574	4.92
333.705	36.92
333.837	25.92
333.968	100.92
334.099	218.92
334.231	199.92
334.362	54.92
334.493	40.92
334.624	33.92
334.756	14.92
334.887	18.92
335.018	12.92
335.15	14.92
335.281	5.92
335.412	10.92
335.543	-8.08
335.675	13.92
335.806	15.92
335.937	-2.08
336.068	11.92
336.199	19.92
336.331	-14.08
336.462	-4.08
336.593	32.92
336.724	12.92
336.855	-5.08
336.986	10.92
337.118	-0.08
337.249	17.92
337.38	18.92
337.511	7.92
337.642	3.92
337.773	3.92
337.904	19.92
338.035	21.92
338.166	-1.08
338.298	15.92
338.429	8.92
338.56	16.92
338.691	24.92
338.822	5.92
338.953	19.92
339.084	31.92
339.215	16.92
339.346	-2.08
339.477	-14.08
339.608	15.92
339.739	-2.08
339.87	12.92
340.001	7.92
340.132	28.92
340.263	13.92
340.394	34.92
340.525	7.92
340.656	5.92
340.787	-14.08
340.918	33.92
341.049	-0.08
341.179	14.92
341.31	21.92
341.441	15.92
341.572	14.92
341.703	11.92
341.834	5.92
341.965	21.92
342.096	7.92
342.227	24.92
342.357	8.92
342.488	11.92
342.619	21.92
342.75	23.92
342.881	-4.08
343.012	38.92
343.142	29.92
343.273	6.92
343.404	15.92
343.535	38.92
343.666	23.92
343.796	24.92
343.927	23.92
344.058	11.92
344.189	34.92
344.319	27.92
344.45	21.92
344.581	27.92
344.712	-1.08
344.842	14.92
344.973	18.92
345.104	18.92
345.234	20.92
345.365	20.92
345.496	23.92
345.626	18.92
345.757	29.92
345.888	13.92
346.018	36.92
346.149	27.92
346.28	39.92
346.41	3.92
346.541	39.92
346.672	31.92
346.802	31.92
346.933	34.92
347.063	17.92
347.194	40.92
347.325	47.92
347.455	29.92
347.586	30.92
347.716	39.92
347.847	47.92
347.977	34.92
348.108	36.92
348.238	50.92
348.369	38.92
348.499	39.92
348.63	40.92
348.76	47.92
348.891	35.92
349.021	50.92
349.152	42.92
349.282	35.92
349.413	31.92
349.543	53.92
349.674	24.92
349.804	25.92
349.935	-1.08
350.065	13.92
350.196	19.92
350.326	41.92
350.456	1.92
350.587	33.92
350.717	30.92
350.848	12.92
350.978	23.92
351.108	11.92
351.239	41.92
351.369	14.92
351.499	21.92
351.63	18.92
351.76	29.92
351.89	13.92
352.021	-2.08
352.151	8.92
352.281	33.92
352.412	32.92
352.542	24.92
352.672	21.92
352.803	3.92
352.933	23.92
353.063	19.92
353.193	19.92
353.324	26.92
353.454	43.92
353.584	11.92
353.714	6.92
353.845	12.92
353.975	7.92
354.105	8.92
354.235	14.92
354.365	39.92
354.496	28.92
354.626	28.92
354.756	40.92
354.886	1.92
355.016	20.92
355.146	23.92
355.277	34.92
355.407	28.92
355.537	21.92
355.667	8.92
355.797	25.92
355.927	26.92
356.057	30.92
356.187	11.92
356.318	15.92
356.448	17.92
356.578	32.92
356.708	41.92
356.838	20.92
356.968	40.92
357.098	33.92
357.228	36.92
357.358	25.92
357.488	41.92
357.618	43.92
357.748	39.92
357.878	14.92
358.008	10.92
358.138	10.92
358.268	30.92
358.398	34.92
358.528	15.92
358.658	34.92
358.788	28.92
358.918	9.92
359.048	9.92
359.178	48.92
359.308	35.92
359.438	49.92
359.568	29.92
359.698	30.92
359.827	25.92
359.957	17.92
360.087	31.92
360.217	21.92
360.347	20.92
360.477	33.92
360.607	12.92
360.737	28.92
360.866	28.92
360.996	7.92
361.126	26.92
361.256	42.92
361.386	38.92
361.516	31.92
361.645	12.92
361.775	39.92
361.905	23.92
362.035	31.92
362.165	22.92
362.294	39.92
362.424	35.92
362.554	45.92
362.684	32.92
362.813	25.92
362.943	47.92
363.073	54.92
363.203	55.92
363.332	70.92
363.462	71.92
363.592	110.92
363.721	118.92
363.851	164.92
363.981	199.92
364.111	254.92
364.24	316.92
364.37	493.92
364.5	853.92
364.629	1794.92
364.759	3880.92
364.888	6288.92
365.018	9356.92
365.148	14813.92
365.277	13009.92
365.407	4751.92
365.537	3090.92
365.666	4068.92
365.796	1818.92
365.925	791.92
366.055	753.92
366.184	1013.92
366.314	1378.92
366.444	2499.92
366.573	2091.92
366.703	663.92
366.832	208.92
366.962	109.92
367.091	88.92
367.221	85.92
367.35	54.92
367.48	85.92
367.609	47.92
367.739	61.92
367.868	24.92
367.998	34.92
368.127	27.92
368.257	52.92
368.386	69.92
368.516	53.92
368.645	47.92
368.775	27.92
368.904	33.92
369.033	19.92
369.163	15.92
369.292	40.92
369.422	39.92
369.551	39.92
369.68	39.92
369.81	45.92
369.939	23.92
370.069	41.92
370.198	30.92
370.327	19.92
370.457	36.92
370.586	34.92
370.715	19.92
370.845	26.92
370.974	30.92
371.103	31.92
371.233	51.92
371.362	59.92
371.491	25.92
371.621	58.92
371.75	42.92
371.879	44.92
372.008	50.92
372.138	64.92
372.267	52.92
372.396	54.92
372.525	43.92
372.655	3.92
372.784	26.92
372.913	24.92
373.042	36.92
373.172	52.92
373.301	-10.08
373.43	2.92
373.559	18.92
373.688	19.92
373.818	26.92
373.947	25.92
374.076	10.92
374.205	9.92
374.334	12.92
374.463	-1.08
374.593	32.92
374.722	30.92
374.851	28.92
374.98	21.92
375.109	19.92
375.238	30.92
375.367	35.92
375.496	6.92
375.625	5.92
375.755	18.92
375.884	24.92
376.013	13.92
376.142	-15.08
376.271	15.92
376.4	16.92
376.529	24.92
376.658	21.92
376.787	23.92
376.916	29.92
377.045	10.92
377.174	27.92
377.303	27.92
377.432	31.92
377.561	30.92
377.69	5.92
377.819	29.92
377.948	13.92
378.077	13.92
378.206	-9.08
378.335	11.92
378.464	26.92
378.593	41.92
378.722	5.92
378.851	20.92
378.98	26.92
379.108	4.92
379.237	27.92
379.366	30.92
379.495	34.92
379.624	17.92
379.753	30.92
379.882	7.92
380.011	-1.08
380.14	0.92
380.268	15.92
380.397	15.92
380.526	25.92
380.655	14.92
380.784	-8.08
380.913	13.92
381.041	9.92
381.17	-12.08
381.299	1.92
381.428	34.92
381.557	12.92
381.685	-3.08
381.814	27.92
381.943	2.92
382.072	-6.08
382.2	1.92
382.329	19.92
382.458	-4.08
382.587	35.92
382.715	25.92
382.844	16.92
382.973	33.92
383.102	20.92
383.23	9.92
383.359	4.92
383.488	15.92
383.616	4.92
383.745	14.92
383.874	7.92
384.003	12.92
384.131	1.92
384.26	10.92
384.389	11.92
384.517	-17.08
384.646	17.92
384.774	8.92
384.903	5.92
385.032	35.92
385.16	9.92
385.289	6.92
385.418	11.92
385.546	14.92
385.675	30.92
385.803	9.92
385.932	6.92
386.06	10.92
386.189	17.92
386.318	11.92
386.446	11.92
386.575	9.92
386.703	11.92
386.832	8.92
386.96	9.92
387.089	34.92
387.217	7.92
387.346	7.92
387.474	18.92
387.603	29.92
387.731	25.92
387.86	30.92
387.988	21.92
388.117	36.92
388.245	12.92
388.374	18.92
388.502	12.92
388.631	5.92
388.759	16.92
388.888	5.92
389.016	4.92
389.144	2.92
389.273	41.92
389.401	11.92
389.53	14.92
389.658	19.92
389.786	13.92
389.915	8.92
390.043	15.92
390.172	22.92
390.3	40.92
390.428	57.92
390.557	23.92
390.685	22.92
390.813	39.92
390.942	41.92
391.07	14.92
391.198	5.92
391.327	-5.08
391.455	5.92
391.583	28.92
391.712	12.92
391.84	19.92
391.968	11.92
392.096	11.92
392.225	-5.08
392.353	25.92
392.481	21.92
392.609	37.92
392.738	25.92
392.866	25.92
392.994	12.92
393.122	36.92
393.251	17.92
393.379	23.92
393.507	-8.08
393.635	11.92
393.764	21.92
393.892	27.92
394.02	15.92
394.148	22.92
394.276	32.92
394.404	37.92
394.533	22.92
394.661	24.92
394.789	40.92
394.917	34.92
395.045	21.92
395.173	6.92
395.302	9.92
395.43	30.92
395.558	23.92
395.686	32.92
395.814	23.92
395.942	17.92
396.07	32.92
396.198	31.92
396.326	35.92
396.454	40.92
396.582	33.92
396.711	26.92
396.839	24.92
396.967	34.92
397.095	13.92
397.223	41.92
397.351	65.92
397.479	51.92
397.607	31.92
397.735	56.92
397.863	45.92
397.991	28.92
398.119	28.92
398.247	18.92
398.375	38.92
398.503	41.92
398.631	54.92
398.759	62.92
398.887	56.92
399.015	51.92
399.143	54.92
399.271	76.92
399.399	63.92
399.526	66.92
399.654	81.92
399.782	65.92
399.91	101.92
400.038	90.92
400.166	87.92
400.294	86.92
400.422	72.92
400.55	114.92
400.678	113.92
400.805	103.92
400.933	103.92
401.061	116.92
401.189	106.92
401.317	139.92
401.445	92.92
401.573	67.92
401.7	39.92
401.828	51.92
401.956	59.92
402.084	37.92
402.212	32.92
402.34	39.92
402.467	33.92
402.595	49.92
402.723	38.92
402.851	58.92
402.978	62.92
403.106	87.92
403.234	81.92
403.362	107.92
403.489	148.92
403.617	134.92
403.745	192.92
403.873	278.92
404	560.92
404.128	1472.92
404.256	3940.92
404.384	5117.92
404.511	5507.92
404.639	7262.92
404.767	11470.92
404.894	14639.92
405.022	4958.92
405.15	1308.92
405.277	437.92
405.405	241.92
405.533	135.92
405.66	109.92
405.788	43.92
405.916	55.92
406.043	33.92
406.171	69.92
406.299	56.92
406.426	65.92
406.554	50.92
406.681	77.92
406.809	44.92
406.937	41.92
407.064	64.92
407.192	137.92
407.319	322.92
407.447	538.92
407.574	526.92
407.702	645.92
407.83	839.92
407.957	1588.92
408.085	917.92
408.212	264.92
408.34	90.92
408.467	39.92
408.595	27.92
408.722	51.92
408.85	40.92
408.977	37.92
409.105	34.92
409.232	42.92
409.36	31.92
409.487	30.92
409.615	45.92
409.742	39.92
409.87	31.92
409.997	45.92
410.125	33.92
410.252	50.92
410.379	33.92
410.507	29.92
410.634	28.92
410.762	19.92
410.889	51.92
411.017	29.92
411.144	44.92
411.271	20.92
411.399	41.92
411.526	30.92
411.653	23.92
411.781	45.92
411.908	24.92
412.036	4.92
412.163	37.92
412.29	45.92
412.418	21.92
412.545	24.92
412.672	21.92
412.8	51.92
412.927	6.92
413.054	31.92
413.182	26.92
413.309	22.92
413.436	17.92
413.564	32.92
413.691	17.92
413.818	36.92
413.945	20.92
414.073	22.92
414.2	30.92
414.327	30.92
414.454	35.92
414.582	26.92
414.709	19.92
414.836	18.92
414.963	12.92
415.091	26.92
415.218	24.92
415.345	27.92
415.472	32.92
415.6	7.92
415.727	31.92
415.854	16.92
415.981	19.92
416.108	35.92
416.236	24.92
416.363	35.92
416.49	17.92
416.617	37.92
416.744	37.92
416.871	20.92
416.998	41.92
417.126	35.92
417.253	5.92
417.38	7.92
417.507	22.92
417.634	18.92
417.761	38.92
417.888	39.92
418.015	20.92
418.143	24.92
418.27	30.92
418.397	17.92
418.524	32.92
418.651	24.92
418.778	52.92
418.905	55.92
419.032	52.92
419.159	24.92
419.286	67.92
419.413	59.92
419.54	59.92
419.667	36.92
419.794	27.92
419.921	56.92
420.048	15.92
420.175	42.92
420.302	47.92
420.429	43.92
420.556	54.92
420.683	33.92
420.81	41.92
420.937	49.92
421.064	72.92
421.191	47.92
421.318	74.92
421.445	66.92
421.572	56.92
421.699	56.92
421.826	30.92
421.953	23.92
422.08	10.92
422.207	-7.08
422.334	-4.08
422.461	34.92
422.588	23.92
422.714	40.92
422.841	49.92
422.968	25.92
423.095	20.92
423.222	4.92
423.349	18.92
423.476	27.92
423.603	1.92
423.729	7.92
423.856	19.92
423.983	31.92
424.11	15.92
424.237	9.92
424.364	38.92
424.491	21.92
424.617	10.92
424.744	9.92
424.871	18.92
424.998	8.92
425.125	19.92
425.251	16.92
425.378	15.92
425.505	14.92
425.632	32.92
425.758	17.92
425.885	11.92
426.012	14.92
426.139	15.92
426.266	26.92
426.392	19.92
426.519	21.92
426.646	16.92
426.772	20.92
426.899	22.92
427.026	12.92
427.153	22.92
427.279	33.92
427.406	10.92
427.533	9.92
427.659	25.92
427.786	13.92
427.913	22.92
428.039	19.92
428.166	20.92
428.293	10.92
428.419	27.92
428.546	15.92
428.673	15.92
428.799	17.92
428.926	11.92
429.053	46.92
429.179	40.92
429.306	31.92
429.433	50.92
429.559	45.92
429.686	5.92
429.812	21.92
429.939	18.92
430.066	25.92
430.192	6.92
430.319	34.92
430.445	34.92
430.572	28.92
430.699	4.92
430.825	25.92
430.952	22.92
431.078	21.92
431.205	40.92
431.331	27.92
431.458	29.92
431.584	15.92
431.711	3.92
431.837	18.92
431.964	28.92
432.09	19.92
432.217	-1.08
432.343	17.92
432.47	22.92
432.596	24.92
432.723	-6.08
432.849	20.92
432.976	31.92
433.102	38.92
433.229	42.92
433.355	64.92
433.482	77.92
433.608	99.92
433.735	101.92
433.861	103.92
433.987	152.92
434.114	186.92
434.24	190.92
434.367	220.92
434.493	221.92
434.62	270.92
434.746	381.92
434.872	614.92
434.999	806.92
435.125	1709.92
435.252	5488.92
435.378	13432.92
435.504	15200.92
435.631	15410.92
435.757	15680.92
435.883	15680.92
436.01	15680.92
436.136	15680.92
436.262	15680.92
436.389	3477.92
436.515	2144.92
436.641	795.92
436.768	635.92
436.894	399.92
437.02	408.92
437.147	314.92
437.273	287.92
437.399	202.92
437.526	247.92
437.652	162.92
437.778	206.92
437.904	142.92
438.031	155.92
438.157	130.92
438.283	145.92
438.409	120.92
438.536	105.92
438.662	127.92
438.788	105.92
438.914	88.92
439.041	118.92
439.167	110.92
439.293	103.92
439.419	88.92
439.546	111.92
439.672	81.92
439.798	72.92
439.924	87.92
440.05	107.92
440.177	71.92
440.303	64.92
440.429	59.92
440.555	87.92
440.681	52.92
440.807	78.92
440.934	54.92
441.06	61.92
441.186	54.92
441.312	50.92
441.438	46.92
441.564	74.92
441.69	58.92
441.816	76.92
441.943	36.92
442.069	78.92
442.195	61.92
442.321	56.92
442.447	33.92
442.573	56.92
442.699	35.92
442.825	58.92
442.951	29.92
443.077	54.92
443.203	47.92
443.33	44.92
443.456	27.92
443.582	37.92
443.708	26.92
443.834	51.92
443.96	44.92
444.086	48.92
444.212	52.92
444.338	53.92
444.464	51.92
444.59	67.92
444.716	47.92
444.842	37.92
444.968	24.92
445.094	18.92
445.22	21.92
445.346	30.92
445.472	38.92
445.598	39.92
445.724	25.92
445.85	24.92
445.976	38.92
446.102	41.92
446.228	47.92
446.354	31.92
446.48	28.92
446.605	41.92
446.731	32.92
446.857	30.92
446.983	55.92
447.109	34.92
447.235	25.92
447.361	29.92
447.487	38.92
447.613	36.92
447.739	7.92
447.865	26.92
447.99	26.92
448.116	39.92
448.242	17.92
448.368	18.92
448.494	24.92
448.62	41.92
448.746	25.92
448.872	52.92
448.997	30.92
449.123	12.92
449.249	30.92
449.375	42.92
449.501	19.92
449.627	21.92
449.752	43.92
449.878	24.92
450.004	6.92
450.13	46.92
450.256	21.92
450.381	28.92
450.507	24.92
450.633	35.92
450.759	50.92
450.884	22.92
451.01	30.92
451.136	9.92
451.262	21.92
451.388	58.92
451.513	20.92
451.639	36.92
451.765	35.92
451.89	34.92
452.016	17.92
452.142	30.92
452.268	31.92
452.393	23.92
452.519	8.92
452.645	37.92
452.771	11.92
452.896	22.92
453.022	15.92
453.148	31.92
453.273	25.92
453.399	15.92
453.525	12.92
453.65	19.92
453.776	64.92
453.902	52.92
454.027	44.92
454.153	35.92
454.279	26.92
454.404	26.92
454.53	25.92
454.656	52.92
454.781	32.92
454.907	16.92
455.032	23.92
455.158	24.92
455.284	38.92
455.409	35.92
455.535	30.92
455.66	34.92
455.786	33.92
455.912	30.92
456.037	29.92
456.163	24.92
456.288	26.92
456.414	-5.08
456.539	7.92
456.665	31.92
456.791	18.92
456.916	11.92
457.042	21.92
457.167	7.92
457.293	30.92
457.418	16.92
457.544	31.92
457.669	21.92
457.795	29.92
457.92	15.92
458.046	44.92
458.171	23.92
458.297	16.92
458.422	-0.08
458.548	26.92
458.673	26.92
458.799	9.92
458.924	7.92
459.05	25.92
459.175	10.92
459.301	19.92
459.426	32.92
459.552	14.92
459.677	14.92
459.803	23.92
459.928	17.92
460.053	24.92
460.179	15.92
460.304	35.92
460.43	10.92
460.555	12.92
460.681	25.92
460.806	17.92
460.931	14.92
461.057	26.92
461.182	27.92
461.308	24.92
461.433	29.92
461.558	14.92
461.684	30.92
461.809	39.92
461.934	35.92
462.06	30.92
462.185	-10.08
462.311	12.92
462.436	25.92
462.561	20.92
462.687	16.92
462.812	35.92
462.937	14.92
463.063	24.92
463.188	24.92
463.313	11.92
463.439	16.92
463.564	6.92
463.689	23.92
463.814	32.92
463.94	13.92
464.065	26.92
464.19	33.92
464.316	18.92
464.441	9.92
464.566	17.92
464.692	18.92
464.817	21.92
464.942	30.92
465.067	26.92
465.193	6.92
465.318	32.92
465.443	20.92
465.568	15.92
465.694	19.92
465.819	54.92
465.944	17.92
466.069	30.92
466.194	25.92
466.32	48.92
466.445	21.92
466.57	33.92
466.695	14.92
466.82	31.92
466.946	36.92
467.071	10.92
467.196	7.92
467.321	48.92
467.446	18.92
467.572	33.92
467.697	30.92
467.822	23.92
467.947	42.92
468.072	30.92
468.197	17.92
468.323	0.92
468.448	33.92
468.573	20.92
468.698	33.92
468.823	36.92
468.948	25.92
469.073	29.92
469.198	52.92
469.324	44.92
469.449	27.92
469.574	37.92
469.699	31.92
469.824	39.92
469.949	35.92
470.074	34.92
470.199	55.92
470.324	36.92
470.449	40.92
470.574	42.92
470.7	24.92
470.825	41.92
470.95	49.92
471.075	39.92
471.2	23.92
471.325	31.92
471.45	24.92
471.575	28.92
471.7	34.92
471.825	16.92
471.95	16.92
472.075	16.92
472.2	33.92
472.325	20.92
472.45	18.92
472.575	11.92
472.7	27.92
472.825	29.92
472.95	40.92
473.075	15.92
473.2	24.92
473.325	38.92
473.45	32.92
473.575	35.92
473.7	54.92
473.825	40.92
473.95	24.92
474.075	39.92
474.2	17.92
474.325	14.92
474.45	26.92
474.574	25.92
474.699	26.92
474.824	37.92
474.949	18.92
475.074	11.92
475.199	37.92
475.324	32.92
475.449	19.92
475.574	29.92
475.699	34.92
475.824	25.92
475.949	13.92
476.073	16.92
476.198	22.92
476.323	26.92
476.448	17.92
476.573	26.92
476.698	12.92
476.823	15.92
476.947	28.92
477.072	27.92
477.197	17.92
477.322	13.92
477.447	7.92
477.572	23.92
477.697	20.92
477.821	18.92
477.946	30.92
478.071	31.92
478.196	20.92
478.321	9.92
478.445	17.92
478.57	3.92
478.695	18.92
478.82	12.92
478.945	18.92
479.069	13.92
479.194	11.92
479.319	29.92
479.444	27.92
479.569	5.92
479.693	14.92
479.818	44.92
479.943	33.92
480.068	24.92
480.192	12.92
480.317	25.92
480.442	9.92
480.567	29.92
480.691	23.92
480.816	18.92
480.941	2.92
481.066	5.92
481.19	28.92
481.315	19.92
481.44	5.92
481.564	9.92
481.689	15.92
481.814	9.92
481.938	10.92
482.063	5.92
482.188	11.92
482.313	23.92
482.437	-4.08
482.562	21.92
482.687	24.92
482.811	9.92
482.936	29.92
483.061	49.92
483.185	20.92
483.31	37.92
483.435	20.92
483.559	17.92
483.684	23.92
483.808	49.92
483.933	24.92
484.058	16.92
484.182	27.92
484.307	34.92
484.432	22.92
484.556	19.92
484.681	12.92
484.805	28.92
484.93	42.92
485.055	34.92
485.179	41.92
485.304	31.92
485.428	17.92
485.553	22.92
485.678	17.92
485.802	19.92
485.927	27.92
486.051	32.92
486.176	33.92
486.3	15.92
486.425	-5.08
486.549	19.92
486.674	29.92
486.799	18.92
486.923	3.92
487.048	22.92
487.172	17.92
487.297	23.92
487.421	10.92
487.546	12.92
487.67	31.92
487.795	17.92
487.919	22.92
488.044	29.92
488.168	12.92
488.293	18.92
488.417	5.92
488.542	27.92
488.666	18.92
488.791	24.92
488.915	22.92
489.04	32.92
489.164	17.92
489.289	31.92
489.413	-7.08
489.538	25.92
489.662	26.92
489.786	7.92
489.911	17.92
490.035	5.92
490.16	24.92
490.284	19.92
490.409	7.92
490.533	35.92
490.658	42.92
490.782	28.92
490.906	46.92
491.031	127.92
491.155	114.92
491.28	140.92
491.404	143.92
491.528	237.92
491.653	155.92
491.777	80.92
491.902	3.92
492.026	29.92
492.15	19.92
492.275	33.92
492.399	35.92
492.524	19.92
492.648	30.92
492.772	22.92
492.897	26.92
493.021	17.92
493.145	11.92
493.27	27.92
493.394	10.92
493.518	8.92
493.643	18.92
493.767	41.92
493.891	9.92
494.016	27.92
494.14	25.92
494.264	23.92
494.389	15.92
494.513	13.92
494.637	1.92
494.762	28.92
494.886	36.92
495.01	6.92
495.134	31.92
495.259	22.92
495.383	10.92
495.507	28.92
495.632	21.92
495.756	40.92
495.88	37.92
496.004	25.92
496.129	3.92
496.253	27.92
496.377	10.92
496.501	25.92
496.626	4.92
496.75	33.92
496.874	15.92
496.998	13.92
497.123	11.92
497.247	6.92
497.371	-1.08
497.495	13.92
497.62	18.92
497.744	-1.08
497.868	11.92
497.992	25.92
498.116	28.92
498.241	26.92
498.365	28.92
498.489	18.92
498.613	27.92
498.737	23.92
498.862	42.92
498.986	5.92
499.11	16.92
499.234	12.92
499.358	1.92
499.482	20.92
499.607	39.92
499.731	30.92
499.855	42.92
499.979	20.92
500.103	15.92
500.227	15.92
500.351	14.92
500.476	15.92
500.6	3.92
500.724	12.92
500.848	18.92
500.972	21.92
501.096	19.92
501.22	39.92
501.344	17.92
501.469	13.92
501.593	19.92
501.717	23.92
501.841	13.92
501.965	43.92
502.089	14.92
502.213	33.92
502.337	18.92
502.461	0.92
502.585	4.92
502.709	17.92
502.834	13.92
502.958	12.92
503.082	23.92
503.206	17.92
503.33	15.92
503.454	10.92
503.578	13.92
503.702	28.92
503.826	35.92
503.95	42.92
504.074	7.92
504.198	7.92
504.322	2.92
504.446	14.92
504.57	17.92
504.694	19.92
504.818	30.92
504.942	35.92
505.066	15.92
505.19	28.92
505.314	17.92
505.438	18.92
505.562	11.92
505.686	24.92
505.81	24.92
505.934	11.92
506.058	25.92
506.182	26.92
506.306	28.92
506.43	20.92
506.554	17.92
506.678	14.92
506.802	18.92
506.926	32.92
507.05	39.92
507.174	36.92
507.298	46.92
507.422	22.92
507.546	29.92
507.67	52.92
507.794	2.92
507.918	15.92
508.042	12.92
508.165	15.92
508.289	18.92
508.413	20.92
508.537	13.92
508.661	28.92
508.785	36.92
508.909	34.92
509.033	42.92
509.157	25.92
509.281	26.92
509.405	28.92
509.528	45.92
509.652	46.92
509.776	36.92
509.9	43.92
510.024	33.92
510.148	42.92
510.272	38.92
510.396	47.92
510.519	36.92
510.643	55.92
510.767	50.92
510.891	42.92
511.015	20.92
511.139	47.92
511.263	54.92
511.386	35.92
511.51	33.92
511.634	42.92
511.758	34.92
511.882	33.92
512.006	37.92
512.129	45.92
512.253	58.92
512.377	79.92
512.501	93.92
512.625	95.92
512.748	105.92
512.872	76.92
512.996	55.92
513.12	56.92
513.244	56.92
513.367	50.92
513.491	79.92
513.615	84.92
513.739	82.92
513.862	79.92
513.986	84.92
514.11	100.92
514.234	103.92
514.358	113.92
514.481	111.92
514.605	99.92
514.729	117.92
514.853	118.92
514.976	99.92
515.1	107.92
515.224	119.92
515.348	79.92
515.471	76.92
515.595	110.92
515.719	132.92
515.842	214.92
515.966	266.92
516.09	286.92
516.214	297.92
516.337	310.92
516.461	224.92
516.585	86.92
516.708	38.92
516.832	27.92
516.956	34.92
517.08	9.92
517.203	-8.08
517.327	18.92
517.451	24.92
517.574	37.92
517.698	7.92
517.822	6.92
517.945	40.92
518.069	31.92
518.193	43.92
518.316	22.92
518.44	20.92
518.564	20.92
518.687	-3.08
518.811	6.92
518.935	41.92
519.058	11.92
519.182	3.92
519.306	5.92
519.429	2.92
519.553	43.92
519.676	17.92
519.8	24.92
519.924	6.92
520.047	27.92
520.171	14.92
520.294	18.92
520.418	11.92
520.542	18.92
520.665	17.92
520.789	8.92
520.913	-3.08
521.036	3.92
521.16	1.92
521.283	10.92
521.407	16.92
521.53	-5.08
521.654	1.92
521.778	37.92
521.901	24.92
522.025	5.92
522.148	5.92
522.272	25.92
522.395	9.92
522.519	31.92
522.643	22.92
522.766	18.92
522.89	2.92
523.013	33.92
523.137	10.92
523.26	3.92
523.384	19.92
523.507	13.92
523.631	23.92
523.754	-8.08
523.878	13.92
524.002	20.92
524.125	3.92
524.249	3.92
524.372	14.92
524.496	12.92
524.619	5.92
524.743	10.92
524.866	2.92
524.99	12.92
525.113	1.92
525.237	14.92
525.36	2.92
525.484	36.92
525.607	-4.08
525.731	-6.08
525.854	3.92
525.978	27.92
526.101	10.92
526.224	2.92
526.348	11.92
526.471	5.92
526.595	9.92
526.718	21.92
526.842	3.92
526.965	13.92
527.089	-1.08
527.212	30.92
527.336	16.92
527.459	30.92
527.582	19.92
527.706	21.92
527.829	6.92
527.953	18.92
528.076	16.92
528.2	22.92
528.323	26.92
528.446	39.92
528.57	2.92
528.693	10.92
528.817	13.92
528.94	25.92
529.064	44.92
529.187	19.92
529.31	22.92
529.434	15.92
529.557	15.92
529.68	10.92
529.804	28.92
529.927	44.92
530.051	12.92
530.174	20.92
530.297	20.92
530.421	33.92
530.544	27.92
530.668	-7.08
530.791	15.92
530.914	29.92
531.038	8.92
531.161	5.92
531.284	0.92
531.408	12.92
531.531	13.92
531.654	11.92
531.778	19.92
531.901	18.92
532.024	10.92
532.148	5.92
532.271	13.92
532.394	3.92
532.518	21.92
532.641	22.92
532.764	36.92
532.888	5.92
533.011	3.92
533.134	10.92
533.258	42.92
533.381	11.92
533.504	-3.08
533.628	15.92
533.751	19.92
533.874	9.92
533.997	28.92
534.121	14.92
534.244	16.92
534.367	-2.08
534.491	-4.08
534.614	3.92
534.737	24.92
534.86	12.92
534.984	11.92
535.107	9.92
535.23	14.92
535.354	13.92
535.477	14.92
535.6	-12.08
535.723	15.92
535.847	19.92
535.97	10.92
536.093	13.92
536.216	9.92
536.34	3.92
536.463	-15.08
536.586	14.92
536.709	20.92
536.833	8.92
536.956	9.92
537.079	23.92
537.202	24.92
537.325	1.92
537.449	7.92
537.572	36.92
537.695	12.92
537.818	7.92
537.941	7.92
538.065	7.92
538.188	6.92
538.311	28.92
538.434	15.92
538.558	22.92
538.681	32.92
538.804	6.92
538.927	17.92
539.05	19.92
539.173	34.92
539.297	18.92
539.42	14.92
539.543	10.92
539.666	30.92
539.789	31.92
539.913	28.92
540.036	22.92
540.159	22.92
540.282	5.92
540.405	-8.08
540.528	6.92
540.651	14.92
540.775	28.92
540.898	25.92
541.021	16.92
541.144	46.92
541.267	39.92
541.39	23.92
541.513	46.92
541.637	18.92
541.76	22.92
541.883	23.92
542.006	32.92
542.129	48.92
542.252	43.92
542.375	27.92
542.498	43.92
542.622	37.92
542.745	45.92
542.868	56.92
542.991	68.92
543.114	47.92
543.237	50.92
543.36	46.92
543.483	38.92
543.606	64.92
543.73	59.92
543.853	71.92
543.976	80.92
544.099	113.92
544.222	142.92
544.345	120.92
544.468	154.92
544.591	219.92
544.714	269.92
544.837	343.92
544.96	474.92
545.083	666.92
545.206	1099.92
545.329	2408.92
545.453	10983.92
545.576	15264.92
545.699	15680.92
545.822	15680.92
545.945	15680.92
546.068	15680.92
546.191	15680.92
546.314	15680.92
546.437	15680.92
546.56	15680.92
546.683	15680.92
546.806	15680.92
546.929	15680.92
547.052	15680.92
547.175	15680.92
547.298	15680.92
547.421	15680.92
547.544	15680.92
547.667	3623.92
547.79	2951.92
547.913	1102.92
548.036	913.92
548.159	633.92
548.282	628.92
548.405	489.92
548.528	479.92
548.651	405.92
548.774	415.92
548.897	351.92
549.02	353.92
549.143	312.92
549.266	296.92
549.389	265.92
549.512	241.92
549.635	241.92
549.758	257.92
549.881	206.92
550.004	213.92
550.127	204.92
550.25	193.92
550.373	166.92
550.496	190.92
550.619	156.92
550.742	155.92
550.865	128.92
550.988	160.92
551.111	146.92
551.234	142.92
551.356	116.92
551.479	133.92
551.602	113.92
551.725	148.92
551.848	119.92
551.971	129.92
552.094	130.92
552.217	129.92
552.34	111.92
552.463	98.92
552.586	103.92
552.709	96.92
552.832	99.92
552.955	106.92
553.077	119.92
553.2	100.92
553.323	75.92
553.446	103.92
553.569	97.92
553.692	111.92
553.815	77.92
553.938	93.92
554.061	101.92
554.184	97.92
554.306	92.92
554.429	106.92
554.552	94.92
554.675	69.92
554.798	77.92
554.921	82.92
555.044	72.92
555.167	66.92
555.29	67.92
555.412	75.92
555.535	64.92
555.658	77.92
555.781	83.92
555.904	69.92
556.027	78.92
556.15	63.92
556.272	67.92
556.395	76.92
556.518	70.92
556.641	70.92
556.764	77.92
556.887	78.92
557.01	41.92
557.132	60.92
557.255	64.92
557.378	67.92
557.501	41.92
557.624	60.92
557.747	67.92
557.869	71.92
557.992	87.92
558.115	95.92
558.238	78.92
558.361	96.92
558.483	112.92
558.606	79.92
558.729	45.92
558.852	66.92
558.975	64.92
559.098	41.92
559.22	53.92
559.343	50.92
559.466	60.92
559.589	25.92
559.712	52.92
559.834	49.92
559.957	49.92
560.08	42.92
560.203	57.92
560.325	52.92
560.448	73.92
560.571	59.92
560.694	39.92
560.817	65.92
560.939	49.92
561.062	59.92
561.185	69.92
561.308	61.92
561.43	49.92
561.553	66.92
561.676	49.92
561.799	60.92
561.921	55.92
562.044	71.92
562.167	50.92
562.29	81.92
562.413	62.92
562.535	71.92
562.658	22.92
562.781	60.92
562.903	74.92
563.026	90.92
563.149	130.92
563.272	127.92
563.394	98.92
563.517	110.92
563.64	72.92
563.763	45.92
563.885	37.92
564.008	47.92
564.131	27.92
564.254	30.92
564.376	32.92
564.499	10.92
564.622	39.92
564.744	32.92
564.867	35.92
564.99	46.92
565.113	37.92
565.235	45.92
565.358	33.92
565.481	13.92
565.603	26.92
565.726	32.92
565.849	46.92
565.971	62.92
566.094	35.92
566.217	30.92
566.34	22.92
566.462	44.92
566.585	29.92
566.708	53.92
566.83	46.92
566.953	57.92
567.076	33.92
567.198	40.92
567.321	33.92
567.444	30.92
567.566	33.92
567.689	6.92
567.812	20.92
567.934	31.92
568.057	50.92
568.18	52.92
568.302	40.92
568.425	7.92
568.548	33.92
568.67	39.92
568.793	33.92
568.916	31.92
569.038	45.92
569.161	41.92
569.283	47.92
569.406	37.92
569.529	17.92
569.651	20.92
569.774	35.92
569.897	23.92
570.019	44.92
570.142	40.92
570.265	29.92
570.387	12.92
570.51	44.92
570.632	35.92
570.755	29.92
570.878	25.92
571	44.92
571.123	25.92
571.246	17.92
571.368	23.92
571.491	16.92
571.613	19.92
571.736	19.92
571.859	23.92
571.981	16.92
572.104	28.92
572.226	17.92
572.349	7.92
572.472	25.92
572.594	41.92
572.717	22.92
572.839	9.92
572.962	27.92
573.085	35.92
573.207	35.92
573.33	46.92
573.452	36.92
573.575	46.92
573.697	34.92
573.82	26.92
573.943	32.92
574.065	29.92
574.188	51.92
574.31	63.92
574.433	48.92
574.555	51.92
574.678	37.92
574.801	39.92
574.923	21.92
575.046	40.92
575.168	36.92
575.291	22.92
575.413	50.92
575.536	47.92
575.659	44.92
575.781	44.92
575.904	52.92
576.026	69.92
576.149	62.92
576.271	122.92
576.394	203.92
576.516	532.92
576.639	3631.92
576.761	10207.92
576.884	8885.92
577.007	8738.92
577.129	7953.92
577.252	3696.92
577.374	1300.92
577.497	497.92
577.619	277.92
577.742	170.92
577.864	146.92
577.987	132.92
578.109	132.92
578.232	138.92
578.354	143.92
578.477	182.92
578.599	402.92
578.722	1986.92
578.844	9078.92
578.967	9858.92
579.089	8782.92
579.212	9093.92
579.334	5268.92
579.457	1921.92
579.579	729.92
579.702	323.92
579.824	200.92
579.947	124.92
580.069	115.92
580.192	90.92
580.314	93.92
580.437	81.92
580.559	93.92
580.682	51.92
580.804	75.92
580.927	52.92
581.049	77.92
581.172	46.92
581.294	46.92
581.417	71.92
581.539	57.92
581.662	51.92
581.784	47.92
581.907	49.92
582.029	60.92
582.152	30.92
582.274	44.92
582.396	27.92
582.519	42.92
582.641	24.92
582.764	45.92
582.886	38.92
583.009	31.92
583.131	35.92
583.254	25.92
583.376	34.92
583.499	28.92
583.621	25.92
583.743	46.92
583.866	35.92
583.988	35.92
584.111	27.92
584.233	53.92
584.356	53.92
584.478	39.92
584.601	9.92
584.723	21.92
584.845	43.92
584.968	28.92
585.09	25.92
585.213	38.92
585.335	15.92
585.458	18.92
585.58	26.92
585.702	37.92
585.825	38.92
585.947	36.92
586.07	21.92
586.192	2.92
586.315	28.92
586.437	35.92
586.559	41.92
586.682	30.92
586.804	37.92
586.927	18.92
587.049	25.92
587.171	18.92
587.294	14.92
587.416	29.92
587.539	26.92
587.661	21.92
587.783	33.92
587.906	25.92
588.028	26.92
588.151	22.92
588.273	39.92
588.395	16.92
588.518	11.92
588.64	32.92
588.763	39.92
588.885	46.92
589.007	16.92
589.13	15.92
589.252	14.92
589.375	28.92
589.497	26.92
589.619	43.92
589.742	34.92
589.864	41.92
589.986	30.92
590.109	2.92
590.231	15.92
590.354	40.92
590.476	27.92
590.598	22.92
590.721	0.92
590.843	17.92
590.965	22.92
591.088	31.92
591.21	25.92
591.332	17.92
591.455	-0.08
591.577	11.92
591.7	15.92
591.822	20.92
591.944	1.92
592.067	13.92
592.189	28.92
592.311	19.92
592.434	19.92
592.556	37.92
592.678	30.92
592.801	25.92
592.923	29.92
593.045	15.92
593.168	26.92
593.29	23.92
593.412	21.92
593.535	17.92
593.657	21.92
593.779	21.92
593.902	23.92
594.024	17.92
594.146	26.92
594.269	18.92
594.391	5.92
594.513	20.92
594.636	24.92
594.758	17.92
594.88	27.92
595.003	29.92
595.125	34.92
595.247	20.92
595.37	27.92
595.492	15.92
595.614	33.92
595.737	41.92
595.859	36.92
595.981	33.92
596.104	31.92
596.226	14.92
596.348	13.92
596.471	-2.08
596.593	30.92
596.715	22.92
596.838	20.92
596.96	15.92
597.082	27.92
597.204	42.92
597.327	42.92
597.449	18.92
597.571	21.92
597.694	19.92
597.816	11.92
597.938	18.92
598.061	31.92
598.183	15.92
598.305	19.92
598.427	29.92
598.55	30.92
598.672	29.92
598.794	20.92
598.917	20.92
599.039	11.92
599.161	11.92
599.283	10.92
599.406	21.92
599.528	35.92
599.65	66.92
599.773	41.92
599.895	45.92
600.017	29.92
600.139	11.92
600.262	11.92
600.384	29.92
600.506	41.92
600.628	26.92
600.751	38.92
600.873	35.92
600.995	9.92
601.118	33.92
601.24	25.92
601.362	32.92
601.484	16.92
601.607	29.92
601.729	29.92
601.851	23.92
601.973	23.92
602.096	19.92
602.218	21.92
602.34	31.92
602.462	38.92
602.585	24.92
602.707	9.92
602.829	28.92
602.951	17.92
603.074	7.92
603.196	23.92
603.318	-1.08
603.44	22.92
603.563	25.92
603.685	11.92
603.807	15.92
603.929	20.92
604.052	45.92
604.174	35.92
604.296	14.92
604.418	20.92
604.541	47.92
604.663	21.92
604.785	17.92
604.907	18.92
605.03	14.92
605.152	44.92
605.274	21.92
605.396	17.92
605.519	41.92
605.641	17.92
605.763	11.92
605.885	23.92
606.008	23.92
606.13	28.92
606.252	50.92
606.374	3.92
606.496	12.92
606.619	37.92
606.741	14.92
606.863	18.92
606.985	18.92
607.108	29.92
607.23	21.92
607.352	5.92
607.474	5.92
607.596	19.92
607.719	36.92
607.841	32.92
607.963	7.92
608.085	10.92
608.207	28.92
608.33	5.92
608.452	4.92
608.574	6.92
608.696	26.92
608.819	23.92
608.941	31.92
609.063	23.92
609.185	8.92
609.307	12.92
609.43	45.92
609.552	31.92
609.674	-5.08
609.796	22.92
609.918	33.92
610.041	6.92
610.163	35.92
610.285	4.92
610.407	19.92
610.529	14.92
610.652	26.92
610.774	23.92
610.896	21.92
611.018	11.92
611.14	1.92
611.263	13.92
611.385	13.92
611.507	25.92
611.629	17.92
611.751	29.92
611.873	39.92
611.996	31.92
612.118	35.92
612.24	10.92
612.362	33.92
612.484	39.92
612.607	37.92
612.729	41.92
612.851	19.92
612.973	18.92
613.095	10.92
613.218	16.92
613.34	17.92
613.462	18.92
613.584	7.92
613.706	18.92
613.828	28.92
613.951	11.92
614.073	21.92
614.195	12.92
614.317	37.92
614.439	19.92
614.561	24.92
614.684	31.92
614.806	9.92
614.928	22.92
615.05	23.92
615.172	31.92
615.294	33.92
615.417	14.92
615.539	12.92
615.661	7.92
615.783	27.92
615.905	8.92
616.027	12.92
616.15	22.92
616.272	18.92
616.394	9.92
616.516	34.92
616.638	24.92
616.76	14.92
616.883	38.92
617.005	10.92
617.127	11.92
617.249	1.92
617.371	36.92
617.493	5.92
617.615	33.92
617.738	19.92
617.86	14.92
617.982	22.92
618.104	34.92
618.226	-1.08
618.348	6.92
618.471	14.92
618.593	33.92
618.715	2.92
618.837	18.92
618.959	13.92
619.081	17.92
619.203	31.92
619.326	35.92
619.448	35.92
619.57	23.92
619.692	23.92
619.814	36.92
619.936	22.92
620.058	19.92
620.181	26.92
620.303	14.92
620.425	14.92
620.547	5.92
620.669	3.92
620.791	7.92
620.913	5.92
621.036	10.92
621.158	20.92
621.28	21.92
621.402	2.92
621.524	19.92
621.646	21.92
621.768	-1.08
621.891	2.92
622.013	31.92
622.135	3.92
622.257	-4.08
622.379	15.92
622.501	13.92
622.623	9.92
622.745	0.92
622.868	30.92
622.99	8.92
623.112	7.92
623.234	21.92
623.356	6.92
623.478	1.92
623.6	18.92
623.722	6.92
623.845	26.92
623.967	27.92
624.089	15.92
624.211	11.92
624.333	19.92
624.455	19.92
624.577	19.92
624.699	17.92
624.822	22.92
624.944	12.92
625.066	9.92
625.188	8.92
625.31	24.92
625.432	51.92
625.554	8.92
625.676	26.92
625.799	14.92
625.921	22.92
626.043	22.92
626.165	15.92
626.287	-10.08
626.409	2.92
626.531	17.92
626.653	-1.08
626.775	15.92
626.898	23.92
627.02	33.92
627.142	39.92
627.264	22.92
627.386	6.92
627.508	15.92
627.63	6.92
627.752	32.92
627.874	22.92
627.997	34.92
628.119	17.92
628.241	24.92
628.363	15.92
628.485	25.92
628.607	10.92
628.729	3.92
628.851	4.92
628.973	22.92
629.096	8.92
629.218	25.92
629.34	28.92
629.462	4.92
629.584	4.92
629.706	25.92
629.828	27.92
629.95	18.92
630.072	19.92
630.195	24.92
630.317	22.92
630.439	28.92
630.561	23.92
630.683	15.92
630.805	13.92
630.927	11.92
631.049	-1.08
631.171	2.92
631.293	8.92
631.416	24.92
631.538	16.92
631.66	6.92
631.782	15.92
631.904	13.92
632.026	2.92
632.148	-4.08
632.27	1.92
632.392	2.92
632.514	2.92
632.637	22.92
632.759	11.92
632.881	7.92
633.003	-0.08
633.125	1.92
633.247	6.92
633.369	22.92
633.491	34.92
633.613	17.92
633.735	3.92
633.858	29.92
633.98	14.92
634.102	-0.08
634.224	11.92
634.346	3.92
634.468	17.92
634.59	10.92
634.712	11.92
634.834	0.92
634.956	-4.08
635.078	-6.08
635.201	1.92
635.323	10.92
635.445	11.92
635.567	-12.08
635.689	24.92
635.811	14.92
635.933	16.92
636.055	19.92
636.177	26.92
636.299	20.92
636.421	2.92
636.544	-4.08
636.666	11.92
636.788	11.92
636.91	4.92
637.032	6.92
637.154	15.92
637.276	37.92
637.398	23.92
637.52	24.92
637.642	10.92
637.764	2.92
637.887	5.92
638.009	-4.08
638.131	15.92
638.253	12.92
638.375	30.92
638.497	6.92
638.619	-2.08
638.741	26.92
638.863	15.92
638.985	12.92
639.107	14.92
639.23	24.92
639.352	17.92
639.474	6.92
639.596	17.92
639.718	6.92
639.84	10.92
639.962	19.92
640.084	19.92
640.206	9.92
640.328	1.92
640.45	-2.08
640.573	22.92
640.695	14.92
640.817	1.92
640.939	20.92
641.061	4.92
641.183	6.92
641.305	13.92
641.427	6.92
641.549	17.92
641.671	22.92
641.793	-1.08
641.915	19.92
642.038	29.92
642.16	25.92
642.282	8.92
642.404	5.92
642.526	16.92
642.648	15.92
642.77	6.92
642.892	2.92
643.014	24.92
643.136	19.92
643.258	27.92
643.381	28.92
643.503	18.92
643.625	10.92
643.747	6.92
643.869	10.92
643.991	6.92
644.113	9.92
644.235	15.92
644.357	26.92
644.479	28.92
644.601	9.92
644.723	2.92
644.846	17.92
644.968	17.92
645.09	21.92
645.212	17.92
645.334	4.92
645.456	26.92
645.578	22.92
645.7	26.92
645.822	28.92
645.944	7.92
646.066	11.92
646.188	7.92
646.311	2.92
646.433	-6.08
646.555	36.92
646.677	10.92
646.799	19.92
646.921	29.92
647.043	34.92
647.165	1.92
647.287	5.92
647.409	-5.08
647.531	17.92
647.654	-2.08
647.776	31.92
647.898	34.92
648.02	3.92
648.142	2.92
648.264	24.92
648.386	6.92
648.508	5.92
648.63	6.92
648.752	13.92
648.874	10.92
648.997	24.92
649.119	14.92
649.241	1.92
649.363	17.92
649.485	15.92
649.607	-1.08
649.729	7.92
649.851	-1.08
649.973	29.92
650.095	13.92
650.217	-13.08
650.34	10.92
650.462	20.92
650.584	11.92
650.706	22.92
650.828	0.92
650.95	-9.08
651.072	7.92
651.194	3.92
651.316	9.92
651.438	17.92
651.56	0.92
651.683	5.92
651.805	-2.08
651.927	13.92
652.049	-8.08
652.171	11.92
652.293	13.92
652.415	-5.08
652.537	-5.08
652.659	-4.08
652.781	8.92
652.903	22.92
653.026	22.92
653.148	20.92
653.27	1.92
653.392	4.92
653.514	-12.08
653.636	-13.08
653.758	-6.08
653.88	-1.08
654.002	6.92
654.124	17.92
654.247	15.92
654.369	18.92
654.491	2.92
654.613	28.92
654.735	6.92
654.857	26.92
654.979	-0.08
655.101	9.92
655.223	22.92
655.345	25.92
655.468	17.92
655.59	-6.08
655.712	13.92
655.834	2.92
655.956	12.92
656.078	5.92
656.2	4.92
656.322	-9.08
656.444	-8.08
656.566	17.92
656.689	7.92
656.811	7.92
656.933	16.92
657.055	-6.08
657.177	2.92
657.299	-4.08
657.421	-1.08
657.543	9.92
657.665	15.92
657.787	14.92
657.91	-1.08
658.032	8.92
658.154	-2.08
658.276	19.92
658.398	1.92
658.52	-0.08
658.642	14.92
658.764	2.92
658.886	-26.08
659.009	-1.08
659.131	33.92
659.253	9.92
659.375	11.92
659.497	3.92
659.619	15.92
659.741	0.92
659.863	5.92
659.985	-1.08
660.108	2.92
660.23	4.92
660.352	25.92
660.474	7.92
660.596	-5.08
660.718	12.92
660.84	-0.08
660.962	2.92
661.084	7.92
661.207	3.92
661.329	1.92
661.451	14.92
661.573	19.92
661.695	13.92
661.817	15.92
661.939	23.92
662.061	27.92
662.184	-7.08
662.306	-0.08
662.428	9.92
662.55	17.92
662.672	5.92
662.794	2.92
662.916	-14.08
663.038	1.92
663.161	26.92
663.283	18.92
663.405	18.92
663.527	1.92
663.649	5.92
663.771	11.92
663.893	-0.08
664.015	6.92
664.138	-0.08
664.26	9.92
664.382	2.92
664.504	16.92
664.626	-0.08
664.748	3.92
664.87	5.92
664.992	15.92
665.115	22.92
665.237	6.92
665.359	8.92
665.481	-2.08
665.603	10.92
665.725	1.92
665.847	-8.08
665.97	-11.08
666.092	8.92
666.214	9.92
666.336	12.92
666.458	29.92
666.58	-2.08
666.702	-6.08
666.825	3.92
666.947	-13.08
667.069	17.92
667.191	18.92
667.313	10.92
667.435	-0.08
667.557	-5.08
667.68	11.92
667.802	7.92
667.924	-2.08
668.046	21.92
668.168	18.92
668.29	27.92
668.412	-3.08
668.535	17.92
668.657	5.92
668.779	9.92
668.901	7.92
669.023	25.92
669.145	-2.08
669.267	13.92
669.39	17.92
669.512	13.92
669.634	-2.08
669.756	9.92
669.878	-1.08
670	11.92
670.123	-1.08
670.245	34.92
670.367	4.92
670.489	21.92
670.611	9.92
670.733	-0.08
670.856	3.92
670.978	30.92
671.1	21.92
671.222	14.92
671.344	19.92
671.466	-6.08
671.589	5.92
671.711	8.92
671.833	-10.08
671.955	27.92
672.077	1.92
672.199	10.92
672.322	2.92
672.444	14.92
672.566	14.92
672.688	10.92
672.81	8.92
672.932	7.92
673.055	12.92
673.177	-9.08
673.299	-4.08
673.421	-4.08
673.543	6.92
673.665	25.92
673.788	13.92
673.91	4.92
674.032	6.92
674.154	28.92
674.276	14.92
674.399	2.92
674.521	11.92
674.643	-3.08
674.765	-4.08
674.887	7.92
675.009	5.92
675.132	13.92
675.254	4.92
675.376	6.92
675.498	3.92
675.62	14.92
675.743	7.92
675.865	28.92
675.987	-1.08
676.109	2.92
676.231	16.92
676.354	28.92
676.476	4.92
676.598	7.92
676.72	8.92
676.842	1.92
676.965	-0.08
677.087	8.92
677.209	17.92
677.331	23.92
677.453	9.92
677.576	6.92
677.698	3.92
677.82	17.92
677.942	-5.08
678.064	8.92
678.187	9.92
678.309	-0.08
678.431	2.92
678.553	11.92
678.675	24.92
678.798	10.92
678.92	1.92
679.042	21.92
679.164	6.92
679.286	11.92
679.409	8.92
679.531	-16.08
679.653	5.92
679.775	18.92
679.898	-9.08
680.02	-5.08
680.142	12.92
680.264	12.92
680.386	22.92
680.509	17.92
680.631	21.92
680.753	11.92
680.875	2.92
680.998	6.92
681.12	7.92
681.242	20.92
681.364	-3.08
681.486	11.92
681.609	4.92
681.731	-7.08
681.853	-8.08
681.975	3.92
682.098	10.92
682.22	20.92
682.342	15.92
682.464	13.92
682.587	18.92
682.709	9.92
682.831	-1.08
682.953	-4.08
683.076	6.92
683.198	23.92
683.32	18.92
683.442	6.92
683.565	17.92
683.687	-17.08
683.809	-6.08
683.931	-14.08
684.054	17.92
684.176	-2.08
684.298	2.92
684.42	4.92
684.543	9.92
684.665	-0.08
684.787	-19.08
684.909	-8.08
685.032	15.92
685.154	-2.08
685.276	26.92
685.398	15.92
685.521	-4.08
685.643	5.92
685.765	12.92
685.887	21.92
686.01	3.92
686.132	1.92
686.254	18.92
686.377	-2.08
686.499	22.92
686.621	13.92
686.743	15.92
686.866	8.92
686.988	25.92
687.11	23.92
687.232	12.92
687.355	-0.08
687.477	5.92
687.599	19.92
687.722	5.92
687.844	5.92
687.966	21.92
688.088	-1.08
688.211	24.92
688.333	11.92
688.455	17.92
688.578	12.92
688.7	12.92
688.822	29.92
688.944	-12.08
689.067	43.92
689.189	9.92
689.311	4.92
689.434	2.92
689.556	18.92
689.678	25.92
689.801	7.92
689.923	4.92
690.045	0.92
690.167	7.92
690.29	7.92
690.412	13.92
690.534	25.92
690.657	3.92
690.779	-2.08
690.901	18.92
691.024	7.92
691.146	16.92
691.268	4.92
691.391	30.92
691.513	26.92
691.635	24.92
691.758	27.92
691.88	19.92
692.002	-1.08
692.125	3.92
692.247	-7.08
692.369	8.92
692.492	-4.08
692.614	25.92
692.736	12.92
692.859	2.92
692.981	-1.08
693.103	7.92
693.226	7.92
693.348	33.92
693.47	23.92
693.593	29.92
693.715	33.92
693.837	31.92
693.96	10.92
694.082	11.92
694.204	19.92
694.327	-1.08
694.449	-2.08
694.571	18.92
694.694	-0.08
694.816	14.92
694.938	13.92
695.061	26.92
695.183	11.92
695.305	5.92
695.428	25.92
695.55	-0.08
695.672	10.92
695.795	23.92
695.917	24.92
696.04	11.92
696.162	2.92
696.284	-4.08
696.407	10.92
696.529	12.92
696.651	23.92
696.774	3.92
696.896	17.92
697.019	13.92
697.141	9.92
697.263	2.92
697.386	2.92
697.508	-3.08
697.63	5.92
697.753	14.92
697.875	17.92
697.998	-4.08
698.12	25.92
698.242	11.92
698.365	-7.08
698.487	14.92
698.61	26.92
698.732	18.92
698.854	12.92
698.977	9.92
699.099	27.92
699.221	3.92
699.344	-5.08
699.466	-1.08
699.589	15.92
699.711	14.92
699.834	21.92
699.956	2.92
700.078	17.92
700.201	10.92
700.323	19.92
700.446	11.92
700.568	8.92
700.69	7.92
700.813	19.92
700.935	-5.08
701.058	-1.08
701.18	10.92
701.302	-0.08
701.425	0.92
701.547	20.92
701.67	7.92
701.792	21.92
701.915	-0.08
702.037	5.92
702.159	15.92
702.282	4.92
702.404	10.92
702.527	12.92
702.649	27.92
702.772	16.92
702.894	7.92
703.017	9.92
703.139	13.92
703.261	18.92
703.384	14.92
703.506	-0.08
703.629	-9.08
703.751	2.92
703.874	4.92
703.996	-9.08
704.119	2.92
704.241	15.92
704.364	-12.08
704.486	10.92
704.608	17.92
704.731	15.92
704.853	9.92
704.976	0.92
705.098	9.92
705.221	-2.08
705.343	0.92
705.466	18.92
705.588	7.92
705.711	-5.08
705.833	19.92
705.956	4.92
706.078	17.92
706.201	2.92
706.323	-4.08
706.446	-8.08
