Data from LowRes_mercury_15_20_11_07_2024_HR4C61881__39__15-23-36-171.txt Node

Date: Thu Nov 07 15:23:36 EST 2024
User: crc00042
Spectrometer: HR4C6188
Trigger mode: 4
Integration Time (sec): 1.000000E-1
Scans to average: 1
Electric dark correction enabled: true
Nonlinearity correction enabled: false
Boxcar width: 0
XAxis mode: Wavelengths
Number of Pixels in Spectrum: 3648
>>>>>Begin Spectral Data<<<<<
245.66	-67.08
245.797	-67.08
245.934	-67.08
246.071	-79.08
246.208	5.92
246.344	16.92
246.481	-8.08
246.618	-9.08
246.755	18.92
246.892	5.92
247.029	-9.08
247.165	-12.08
247.302	0.92
247.439	-9.08
247.576	29.92
247.713	-0.08
247.849	2.92
247.986	-28.08
248.123	1.92
248.26	-28.08
248.396	12.92
248.533	-4.08
248.67	-1.08
248.806	3.92
248.943	-3.08
249.08	-10.08
249.216	11.92
249.353	-26.08
249.49	-10.08
249.626	2.92
249.763	9.92
249.9	-24.08
250.036	7.92
250.173	20.92
250.309	12.92
250.446	19.92
250.582	-4.08
250.719	3.92
250.856	-9.08
250.992	-9.08
251.129	-0.08
251.265	-24.08
251.402	-10.08
251.538	-16.08
251.675	-15.08
251.811	10.92
251.948	14.92
252.084	1.92
252.221	-2.08
252.357	-5.08
252.493	17.92
252.63	5.92
252.766	14.92
252.903	-8.08
253.039	-11.08
253.175	2.92
253.312	5.92
253.448	-20.08
253.585	-13.08
253.721	-4.08
253.857	4.92
253.994	-7.08
254.13	10.92
254.266	15.92
254.403	-6.08
254.539	-15.08
254.675	24.92
254.811	4.92
254.948	-6.08
255.084	-19.08
255.22	4.92
255.356	2.92
255.493	17.92
255.629	-17.08
255.765	-12.08
255.901	8.92
256.037	-2.08
256.174	2.92
256.31	8.92
256.446	-5.08
256.582	2.92
256.718	14.92
256.854	1.92
256.991	13.92
257.127	14.92
257.263	-19.08
257.399	-2.08
257.535	-20.08
257.671	1.92
257.807	-20.08
257.943	-11.08
258.079	-2.08
258.215	-22.08
258.351	0.92
258.487	10.92
258.623	15.92
258.759	-9.08
258.895	-19.08
259.031	-1.08
259.167	-11.08
259.303	13.92
259.439	0.92
259.575	-17.08
259.711	3.92
259.847	-4.08
259.983	8.92
260.119	-9.08
260.255	3.92
260.391	-6.08
260.527	6.92
260.663	14.92
260.799	10.92
260.934	-7.08
261.07	5.92
261.206	-21.08
261.342	-28.08
261.478	18.92
261.614	21.92
261.749	1.92
261.885	1.92
262.021	-3.08
262.157	11.92
262.293	14.92
262.428	-10.08
262.564	-1.08
262.7	5.92
262.836	-1.08
262.971	14.92
263.107	8.92
263.243	7.92
263.378	1.92
263.514	-6.08
263.65	-1.08
263.785	-24.08
263.921	-17.08
264.057	-0.08
264.192	2.92
264.328	22.92
264.464	-2.08
264.599	-4.08
264.735	20.92
264.871	-13.08
265.006	-5.08
265.142	6.92
265.277	8.92
265.413	4.92
265.548	7.92
265.684	13.92
265.819	-15.08
265.955	-19.08
266.091	-27.08
266.226	-16.08
266.362	3.92
266.497	-8.08
266.633	1.92
266.768	-0.08
266.903	22.92
267.039	17.92
267.174	21.92
267.31	-10.08
267.445	-9.08
267.581	-6.08
267.716	1.92
267.851	16.92
267.987	14.92
268.122	26.92
268.258	-13.08
268.393	1.92
268.528	19.92
268.664	-9.08
268.799	-25.08
268.934	-9.08
269.07	-10.08
269.205	-9.08
269.34	16.92
269.476	0.92
269.611	-11.08
269.746	10.92
269.881	12.92
270.017	18.92
270.152	5.92
270.287	6.92
270.422	0.92
270.558	-1.08
270.693	15.92
270.828	1.92
270.963	7.92
271.098	-14.08
271.234	14.92
271.369	26.92
271.504	4.92
271.639	-17.08
271.774	-1.08
271.909	-11.08
272.045	-24.08
272.18	3.92
272.315	-18.08
272.45	5.92
272.585	-8.08
272.72	-3.08
272.855	2.92
272.99	5.92
273.125	-11.08
273.26	-17.08
273.395	-12.08
273.53	-11.08
273.665	19.92
273.8	2.92
273.935	17.92
274.07	-7.08
274.205	20.92
274.34	1.92
274.475	-7.08
274.61	14.92
274.745	-9.08
274.88	23.92
275.015	-15.08
275.15	6.92
275.285	26.92
275.42	14.92
275.555	14.92
275.69	6.92
275.825	0.92
275.959	13.92
276.094	-13.08
276.229	-6.08
276.364	-3.08
276.499	1.92
276.634	-19.08
276.768	-8.08
276.903	-6.08
277.038	1.92
277.173	-8.08
277.308	-3.08
277.442	2.92
277.577	-1.08
277.712	-0.08
277.847	-6.08
277.981	6.92
278.116	-7.08
278.251	5.92
278.386	11.92
278.52	8.92
278.655	-4.08
278.79	2.92
278.924	-2.08
279.059	0.92
279.194	-18.08
279.328	26.92
279.463	10.92
279.598	20.92
279.732	6.92
279.867	18.92
280.001	3.92
280.136	-21.08
280.271	-0.08
280.405	14.92
280.54	6.92
280.674	0.92
280.809	17.92
280.943	-7.08
281.078	-3.08
281.213	10.92
281.347	10.92
281.482	27.92
281.616	-4.08
281.751	-9.08
281.885	-10.08
282.02	0.92
282.154	4.92
282.288	1.92
282.423	8.92
282.557	-19.08
282.692	0.92
282.826	1.92
282.961	12.92
283.095	-13.08
283.229	-0.08
283.364	-16.08
283.498	-3.08
283.633	-0.08
283.767	-6.08
283.901	1.92
284.036	1.92
284.17	0.92
284.304	-6.08
284.439	6.92
284.573	-9.08
284.707	7.92
284.842	-11.08
284.976	-28.08
285.11	-26.08
285.244	5.92
285.379	34.92
285.513	-19.08
285.647	-5.08
285.781	3.92
285.916	16.92
286.05	-11.08
286.184	39.92
286.318	13.92
286.453	-23.08
286.587	-11.08
286.721	3.92
286.855	8.92
286.989	13.92
287.123	-1.08
287.258	-8.08
287.392	-11.08
287.526	3.92
287.66	-16.08
287.794	-1.08
287.928	5.92
288.062	-16.08
288.196	-6.08
288.33	26.92
288.464	32.92
288.598	18.92
288.733	12.92
288.867	18.92
289.001	16.92
289.135	7.92
289.269	-8.08
289.403	-9.08
289.537	-10.08
289.671	4.92
289.805	-31.08
289.939	-5.08
290.073	-1.08
290.207	10.92
290.34	-10.08
290.474	13.92
290.608	-2.08
290.742	-21.08
290.876	-13.08
291.01	-5.08
291.144	27.92
291.278	4.92
291.412	8.92
291.546	-1.08
291.679	-17.08
291.813	-5.08
291.947	16.92
292.081	-3.08
292.215	-12.08
292.349	13.92
292.482	0.92
292.616	4.92
292.75	-12.08
292.884	-10.08
293.018	-2.08
293.151	-14.08
293.285	6.92
293.419	-3.08
293.553	-8.08
293.686	-17.08
293.82	-5.08
293.954	20.92
294.088	9.92
294.221	-2.08
294.355	3.92
294.489	8.92
294.622	-2.08
294.756	-10.08
294.89	5.92
295.023	10.92
295.157	12.92
295.291	10.92
295.424	21.92
295.558	13.92
295.691	2.92
295.825	-2.08
295.959	4.92
296.092	-16.08
296.226	-1.08
296.359	8.92
296.493	8.92
296.627	0.92
296.76	-7.08
296.894	-4.08
297.027	-4.08
297.161	-21.08
297.294	-17.08
297.428	-8.08
297.561	32.92
297.695	-11.08
297.828	9.92
297.962	-11.08
298.095	-18.08
298.229	-8.08
298.362	-18.08
298.495	-10.08
298.629	3.92
298.762	9.92
298.896	-5.08
299.029	-12.08
299.162	-1.08
299.296	-4.08
299.429	-3.08
299.563	-1.08
299.696	9.92
299.829	-0.08
299.963	4.92
300.096	4.92
300.229	8.92
300.363	-3.08
300.496	5.92
300.629	-16.08
300.763	-2.08
300.896	-12.08
301.029	-8.08
301.162	5.92
301.296	-15.08
301.429	5.92
301.562	-31.08
301.695	13.92
301.829	2.92
301.962	19.92
302.095	4.92
302.228	-7.08
302.362	-3.08
302.495	-8.08
302.628	6.92
302.761	-1.08
302.894	-12.08
303.027	5.92
303.161	0.92
303.294	-12.08
303.427	10.92
303.56	-1.08
303.693	-16.08
303.826	-5.08
303.959	-8.08
304.092	-14.08
304.225	-7.08
304.359	-5.08
304.492	9.92
304.625	1.92
304.758	9.92
304.891	-24.08
305.024	-18.08
305.157	-2.08
305.29	-17.08
305.423	-7.08
305.556	24.92
305.689	8.92
305.822	-1.08
305.955	-11.08
306.088	-6.08
306.221	2.92
306.354	-10.08
306.487	-1.08
306.62	-2.08
306.752	1.92
306.885	-0.08
307.018	-25.08
307.151	-17.08
307.284	9.92
307.417	-3.08
307.55	10.92
307.683	1.92
307.816	1.92
307.948	1.92
308.081	28.92
308.214	3.92
308.347	24.92
308.48	-13.08
308.613	-32.08
308.745	3.92
308.878	-11.08
309.011	-8.08
309.144	6.92
309.277	9.92
309.409	26.92
309.542	-8.08
309.675	7.92
309.808	-7.08
309.94	34.92
310.073	-8.08
310.206	-8.08
310.339	-13.08
310.471	-14.08
310.604	19.92
310.737	15.92
310.869	11.92
311.002	-10.08
311.135	-3.08
311.267	-13.08
311.4	-10.08
311.533	19.92
311.665	-2.08
311.798	-4.08
311.93	-5.08
312.063	2.92
312.196	49.92
312.328	75.92
312.461	45.92
312.593	43.92
312.726	55.92
312.859	96.92
312.991	157.92
313.124	20.92
313.256	16.92
313.389	20.92
313.521	-3.08
313.654	-13.08
313.786	-29.08
313.919	-7.08
314.051	-4.08
314.184	-11.08
314.316	24.92
314.449	-7.08
314.581	-7.08
314.714	-18.08
314.846	-5.08
314.978	-21.08
315.111	-4.08
315.243	-2.08
315.376	12.92
315.508	4.92
315.641	-3.08
315.773	15.92
315.905	17.92
316.038	-2.08
316.17	4.92
316.302	-2.08
316.435	3.92
316.567	-20.08
316.699	29.92
316.832	-6.08
316.964	-2.08
317.096	8.92
317.229	6.92
317.361	-9.08
317.493	-10.08
317.625	-13.08
317.758	0.92
317.89	8.92
318.022	-9.08
318.155	-4.08
318.287	12.92
318.419	-3.08
318.551	6.92
318.683	-9.08
318.816	-12.08
318.948	-17.08
319.08	-12.08
319.212	-5.08
319.344	11.92
319.477	4.92
319.609	26.92
319.741	17.92
319.873	0.92
320.005	-0.08
320.137	-29.08
320.269	-12.08
320.401	20.92
320.534	6.92
320.666	-11.08
320.798	-20.08
320.93	-3.08
321.062	-7.08
321.194	-23.08
321.326	-1.08
321.458	15.92
321.59	7.92
321.722	-1.08
321.854	-0.08
321.986	3.92
322.118	3.92
322.25	-8.08
322.382	-8.08
322.514	-20.08
322.646	-18.08
322.778	18.92
322.91	-2.08
323.042	5.92
323.174	5.92
323.306	2.92
323.438	-9.08
323.57	4.92
323.702	7.92
323.834	-2.08
323.966	-10.08
324.097	12.92
324.229	14.92
324.361	1.92
324.493	-0.08
324.625	-2.08
324.757	1.92
324.889	13.92
325.021	13.92
325.152	24.92
325.284	27.92
325.416	12.92
325.548	18.92
325.68	-18.08
325.811	18.92
325.943	13.92
326.075	-10.08
326.207	1.92
326.339	9.92
326.47	-10.08
326.602	12.92
326.734	5.92
326.866	15.92
326.997	-3.08
327.129	-15.08
327.261	-6.08
327.392	-0.08
327.524	-8.08
327.656	-4.08
327.787	20.92
327.919	9.92
328.051	4.92
328.182	14.92
328.314	34.92
328.446	2.92
328.577	4.92
328.709	-4.08
328.841	-16.08
328.972	4.92
329.104	-4.08
329.235	-6.08
329.367	-14.08
329.499	-8.08
329.63	9.92
329.762	-10.08
329.893	-0.08
330.025	1.92
330.156	-13.08
330.288	11.92
330.419	19.92
330.551	1.92
330.683	23.92
330.814	-6.08
330.946	8.92
331.077	-18.08
331.208	-13.08
331.34	3.92
331.471	-20.08
331.603	4.92
331.734	-1.08
331.866	8.92
331.997	2.92
332.129	-19.08
332.26	-12.08
332.392	15.92
332.523	14.92
332.654	-10.08
332.786	-17.08
332.917	-3.08
333.048	27.92
333.18	24.92
333.311	-5.08
333.443	20.92
333.574	16.92
333.705	26.92
333.837	24.92
333.968	126.92
334.099	226.92
334.231	212.92
334.362	66.92
334.493	31.92
334.624	17.92
334.756	-4.08
334.887	-6.08
335.018	23.92
335.15	21.92
335.281	13.92
335.412	30.92
335.543	8.92
335.675	1.92
335.806	6.92
335.937	-0.08
336.068	5.92
336.199	1.92
336.331	12.92
336.462	8.92
336.593	24.92
336.724	-9.08
336.855	6.92
336.986	33.92
337.118	10.92
337.249	16.92
337.38	-6.08
337.511	12.92
337.642	15.92
337.773	9.92
337.904	2.92
338.035	2.92
338.166	-1.08
338.298	17.92
338.429	0.92
338.56	10.92
338.691	20.92
338.822	30.92
338.953	15.92
339.084	20.92
339.215	20.92
339.346	24.92
339.477	-2.08
339.608	-2.08
339.739	-13.08
339.87	-6.08
340.001	-8.08
340.132	11.92
340.263	8.92
340.394	16.92
340.525	21.92
340.656	4.92
340.787	-5.08
340.918	41.92
341.049	12.92
341.179	10.92
341.31	6.92
341.441	12.92
341.572	22.92
341.703	9.92
341.834	-6.08
341.965	14.92
342.096	0.92
342.227	8.92
342.357	7.92
342.488	18.92
342.619	26.92
342.75	31.92
342.881	30.92
343.012	37.92
343.142	43.92
343.273	14.92
343.404	23.92
343.535	37.92
343.666	25.92
343.796	28.92
343.927	29.92
344.058	25.92
344.189	25.92
344.319	21.92
344.45	11.92
344.581	22.92
344.712	10.92
344.842	19.92
344.973	9.92
345.104	21.92
345.234	23.92
345.365	8.92
345.496	17.92
345.626	40.92
345.757	23.92
345.888	13.92
346.018	38.92
346.149	29.92
346.28	44.92
346.41	17.92
346.541	42.92
346.672	15.92
346.802	48.92
346.933	17.92
347.063	1.92
347.194	25.92
347.325	33.92
347.455	16.92
347.586	35.92
347.716	19.92
347.847	41.92
347.977	27.92
348.108	35.92
348.238	16.92
348.369	46.92
348.499	42.92
348.63	30.92
348.76	38.92
348.891	48.92
349.021	68.92
349.152	44.92
349.282	35.92
349.413	31.92
349.543	52.92
349.674	33.92
349.804	18.92
349.935	33.92
350.065	16.92
350.196	21.92
350.326	22.92
350.456	14.92
350.587	38.92
350.717	17.92
350.848	11.92
350.978	16.92
351.108	-11.08
351.239	30.92
351.369	9.92
351.499	5.92
351.63	27.92
351.76	3.92
351.89	24.92
352.021	21.92
352.151	-6.08
352.281	6.92
352.412	32.92
352.542	3.92
352.672	14.92
352.803	14.92
352.933	3.92
353.063	21.92
353.193	24.92
353.324	38.92
353.454	48.92
353.584	37.92
353.714	7.92
353.845	6.92
353.975	4.92
354.105	23.92
354.235	34.92
354.365	21.92
354.496	24.92
354.626	33.92
354.756	16.92
354.886	10.92
355.016	20.92
355.146	16.92
355.277	29.92
355.407	36.92
355.537	13.92
355.667	16.92
355.797	40.92
355.927	26.92
356.057	21.92
356.187	10.92
356.318	28.92
356.448	18.92
356.578	28.92
356.708	42.92
356.838	36.92
356.968	19.92
357.098	13.92
357.228	45.92
357.358	18.92
357.488	12.92
357.618	49.92
357.748	40.92
357.878	34.92
358.008	6.92
358.138	12.92
358.268	11.92
358.398	19.92
358.528	16.92
358.658	30.92
358.788	29.92
358.918	23.92
359.048	29.92
359.178	30.92
359.308	31.92
359.438	22.92
359.568	30.92
359.698	35.92
359.827	21.92
359.957	20.92
360.087	17.92
360.217	7.92
360.347	20.92
360.477	38.92
360.607	2.92
360.737	18.92
360.866	28.92
360.996	17.92
361.126	25.92
361.256	64.92
361.386	32.92
361.516	37.92
361.645	18.92
361.775	32.92
361.905	13.92
362.035	33.92
362.165	33.92
362.294	40.92
362.424	47.92
362.554	48.92
362.684	24.92
362.813	31.92
362.943	58.92
363.073	41.92
363.203	58.92
363.332	65.92
363.462	86.92
363.592	98.92
363.721	127.92
363.851	154.92
363.981	198.92
364.111	240.92
364.24	320.92
364.37	509.92
364.5	886.92
364.629	1810.92
364.759	3858.92
364.888	6282.92
365.018	9424.92
365.148	14826.92
365.277	13034.92
365.407	4838.92
365.537	3115.92
365.666	4117.92
365.796	1852.92
365.925	802.92
366.055	767.92
366.184	1040.92
366.314	1398.92
366.444	2464.92
366.573	2165.92
366.703	678.92
366.832	222.92
366.962	123.92
367.091	91.92
367.221	79.92
367.35	48.92
367.48	81.92
367.609	56.92
367.739	54.92
367.868	31.92
367.998	45.92
368.127	39.92
368.257	44.92
368.386	36.92
368.516	53.92
368.645	41.92
368.775	57.92
368.904	23.92
369.033	16.92
369.163	19.92
369.292	38.92
369.422	49.92
369.551	39.92
369.68	32.92
369.81	30.92
369.939	6.92
370.069	54.92
370.198	43.92
370.327	19.92
370.457	39.92
370.586	48.92
370.715	21.92
370.845	15.92
370.974	48.92
371.103	59.92
371.233	57.92
371.362	56.92
371.491	31.92
371.621	50.92
371.75	53.92
371.879	27.92
372.008	45.92
372.138	46.92
372.267	47.92
372.396	35.92
372.525	21.92
372.655	21.92
372.784	16.92
372.913	22.92
373.042	46.92
373.172	27.92
373.301	-5.08
373.43	-1.08
373.559	-0.08
373.688	23.92
373.818	28.92
373.947	16.92
374.076	11.92
374.205	16.92
374.334	-1.08
374.463	1.92
374.593	29.92
374.722	14.92
374.851	22.92
374.98	0.92
375.109	23.92
375.238	48.92
375.367	46.92
375.496	13.92
375.625	4.92
375.755	24.92
375.884	31.92
376.013	13.92
376.142	7.92
376.271	13.92
376.4	17.92
376.529	17.92
376.658	23.92
376.787	19.92
376.916	23.92
377.045	23.92
377.174	7.92
377.303	37.92
377.432	37.92
377.561	27.92
377.69	14.92
377.819	29.92
377.948	10.92
378.077	6.92
378.206	21.92
378.335	4.92
378.464	10.92
378.593	17.92
378.722	15.92
378.851	-5.08
378.98	12.92
379.108	-15.08
379.237	14.92
379.366	19.92
379.495	28.92
379.624	3.92
379.753	9.92
379.882	20.92
380.011	-0.08
380.14	-1.08
380.268	19.92
380.397	7.92
380.526	18.92
380.655	4.92
380.784	-4.08
380.913	10.92
381.041	4.92
381.17	8.92
381.299	13.92
381.428	21.92
381.557	17.92
381.685	17.92
381.814	31.92
381.943	7.92
382.072	-6.08
382.2	5.92
382.329	12.92
382.458	4.92
382.587	34.92
382.715	37.92
382.844	17.92
382.973	24.92
383.102	19.92
383.23	11.92
383.359	4.92
383.488	26.92
383.616	14.92
383.745	6.92
383.874	21.92
384.003	12.92
384.131	2.92
384.26	15.92
384.389	22.92
384.517	10.92
384.646	7.92
384.774	1.92
384.903	32.92
385.032	28.92
385.16	31.92
385.289	7.92
385.418	4.92
385.546	8.92
385.675	12.92
385.803	13.92
385.932	20.92
386.06	-15.08
386.189	-1.08
386.318	24.92
386.446	5.92
386.575	12.92
386.703	10.92
386.832	1.92
386.96	4.92
387.089	30.92
387.217	0.92
387.346	6.92
387.474	28.92
387.603	23.92
387.731	23.92
387.86	26.92
387.988	23.92
388.117	24.92
388.245	12.92
388.374	-0.08
388.502	20.92
388.631	10.92
388.759	4.92
388.888	30.92
389.016	18.92
389.144	16.92
389.273	22.92
389.401	15.92
389.53	-7.08
389.658	23.92
389.786	11.92
389.915	30.92
390.043	18.92
390.172	19.92
390.3	53.92
390.428	35.92
390.557	26.92
390.685	35.92
390.813	31.92
390.942	26.92
391.07	11.92
391.198	4.92
391.327	20.92
391.455	16.92
391.583	39.92
391.712	48.92
391.84	33.92
391.968	13.92
392.096	23.92
392.225	11.92
392.353	22.92
392.481	25.92
392.609	27.92
392.738	24.92
392.866	32.92
392.994	16.92
393.122	44.92
393.251	20.92
393.379	10.92
393.507	25.92
393.635	19.92
393.764	35.92
393.892	24.92
394.02	6.92
394.148	4.92
394.276	28.92
394.404	45.92
394.533	17.92
394.661	18.92
394.789	36.92
394.917	48.92
395.045	28.92
395.173	14.92
395.302	16.92
395.43	26.92
395.558	30.92
395.686	27.92
395.814	25.92
395.942	30.92
396.07	34.92
396.198	26.92
396.326	32.92
396.454	28.92
396.582	36.92
396.711	15.92
396.839	17.92
396.967	27.92
397.095	4.92
397.223	13.92
397.351	54.92
397.479	46.92
397.607	25.92
397.735	23.92
397.863	49.92
397.991	52.92
398.119	24.92
398.247	47.92
398.375	48.92
398.503	49.92
398.631	51.92
398.759	35.92
398.887	36.92
399.015	39.92
399.143	60.92
399.271	54.92
399.399	57.92
399.526	65.92
399.654	81.92
399.782	55.92
399.91	87.92
400.038	86.92
400.166	71.92
400.294	83.92
400.422	70.92
400.55	102.92
400.678	102.92
400.805	113.92
400.933	106.92
401.061	124.92
401.189	129.92
401.317	133.92
401.445	90.92
401.573	70.92
401.7	55.92
401.828	42.92
401.956	51.92
402.084	23.92
402.212	20.92
402.34	37.92
402.467	29.92
402.595	26.92
402.723	37.92
402.851	51.92
402.978	50.92
403.106	81.92
403.234	82.92
403.362	102.92
403.489	132.92
403.617	137.92
403.745	186.92
403.873	301.92
404	590.92
404.128	1438.92
404.256	3943.92
404.384	5091.92
404.511	5462.92
404.639	7233.92
404.767	11514.92
404.894	14674.92
405.022	4959.92
405.15	1269.92
405.277	425.92
405.405	232.92
405.533	135.92
405.66	101.92
405.788	58.92
405.916	63.92
406.043	42.92
406.171	50.92
406.299	61.92
406.426	65.92
406.554	57.92
406.681	69.92
406.809	63.92
406.937	53.92
407.064	57.92
407.192	110.92
407.319	310.92
407.447	519.92
407.574	513.92
407.702	625.92
407.83	842.92
407.957	1613.92
408.085	924.92
408.212	263.92
408.34	88.92
408.467	44.92
408.595	29.92
408.722	37.92
408.85	34.92
408.977	34.92
409.105	32.92
409.232	39.92
409.36	11.92
409.487	31.92
409.615	27.92
409.742	16.92
409.87	8.92
409.997	35.92
410.125	39.92
410.252	23.92
410.379	14.92
410.507	27.92
410.634	31.92
410.762	19.92
410.889	43.92
411.017	10.92
411.144	16.92
411.271	12.92
411.399	11.92
411.526	7.92
411.653	23.92
411.781	40.92
411.908	10.92
412.036	25.92
412.163	30.92
412.29	25.92
412.418	22.92
412.545	40.92
412.672	21.92
412.8	43.92
412.927	21.92
413.054	53.92
413.182	44.92
413.309	24.92
413.436	6.92
413.564	24.92
413.691	28.92
413.818	36.92
413.945	12.92
414.073	27.92
414.2	24.92
414.327	22.92
414.454	28.92
414.582	20.92
414.709	14.92
414.836	21.92
414.963	27.92
415.091	32.92
415.218	28.92
415.345	35.92
415.472	33.92
415.6	12.92
415.727	44.92
415.854	21.92
415.981	25.92
416.108	13.92
416.236	13.92
416.363	28.92
416.49	20.92
416.617	12.92
416.744	38.92
416.871	33.92
416.998	19.92
417.126	16.92
417.253	16.92
417.38	18.92
417.507	10.92
417.634	36.92
417.761	24.92
417.888	46.92
418.015	33.92
418.143	37.92
418.27	43.92
418.397	35.92
418.524	40.92
418.651	17.92
418.778	41.92
418.905	36.92
419.032	29.92
419.159	42.92
419.286	54.92
419.413	54.92
419.54	60.92
419.667	28.92
419.794	30.92
419.921	41.92
420.048	36.92
420.175	44.92
420.302	38.92
420.429	50.92
420.556	61.92
420.683	37.92
420.81	56.92
420.937	60.92
421.064	74.92
421.191	68.92
421.318	59.92
421.445	94.92
421.572	56.92
421.699	52.92
421.826	42.92
421.953	35.92
422.08	45.92
422.207	6.92
422.334	12.92
422.461	39.92
422.588	32.92
422.714	40.92
422.841	37.92
422.968	57.92
423.095	29.92
423.222	17.92
423.349	31.92
423.476	31.92
423.603	14.92
423.729	16.92
423.856	17.92
423.983	27.92
424.11	17.92
424.237	14.92
424.364	10.92
424.491	25.92
424.617	0.92
424.744	10.92
424.871	38.92
424.998	7.92
425.125	5.92
425.251	14.92
425.378	7.92
425.505	38.92
425.632	21.92
425.758	10.92
425.885	35.92
426.012	28.92
426.139	40.92
426.266	25.92
426.392	36.92
426.519	23.92
426.646	15.92
426.772	29.92
426.899	31.92
427.026	14.92
427.153	5.92
427.279	28.92
427.406	30.92
427.533	-6.08
427.659	24.92
427.786	25.92
427.913	21.92
428.039	14.92
428.166	12.92
428.293	10.92
428.419	30.92
428.546	31.92
428.673	5.92
428.799	5.92
428.926	24.92
429.053	45.92
429.179	26.92
429.306	10.92
429.433	48.92
429.559	36.92
429.686	1.92
429.812	16.92
429.939	16.92
430.066	50.92
430.192	26.92
430.319	32.92
430.445	9.92
430.572	27.92
430.699	16.92
430.825	23.92
430.952	26.92
431.078	22.92
431.205	35.92
431.331	21.92
431.458	41.92
431.584	26.92
431.711	14.92
431.837	31.92
431.964	20.92
432.09	7.92
432.217	10.92
432.343	36.92
432.47	46.92
432.596	23.92
432.723	4.92
432.849	31.92
432.976	38.92
433.102	32.92
433.229	22.92
433.355	61.92
433.482	73.92
433.608	102.92
433.735	111.92
433.861	101.92
433.987	149.92
434.114	170.92
434.24	159.92
434.367	185.92
434.493	230.92
434.62	284.92
434.746	400.92
434.872	625.92
434.999	824.92
435.125	1744.92
435.252	5551.92
435.378	13459.92
435.504	15248.92
435.631	15446.92
435.757	15679.92
435.883	15679.92
436.01	15679.92
436.136	15679.92
436.262	15679.92
436.389	3547.92
436.515	2429.92
436.641	841.92
436.768	645.92
436.894	402.92
437.02	390.92
437.147	300.92
437.273	308.92
437.399	222.92
437.526	243.92
437.652	177.92
437.778	195.92
437.904	129.92
438.031	146.92
438.157	135.92
438.283	157.92
438.409	95.92
438.536	113.92
438.662	123.92
438.788	113.92
438.914	86.92
439.041	128.92
439.167	116.92
439.293	98.92
439.419	101.92
439.546	101.92
439.672	87.92
439.798	86.92
439.924	78.92
440.05	90.92
440.177	66.92
440.303	69.92
440.429	65.92
440.555	59.92
440.681	53.92
440.807	66.92
440.934	48.92
441.06	45.92
441.186	48.92
441.312	65.92
441.438	59.92
441.564	56.92
441.69	73.92
441.816	57.92
441.943	28.92
442.069	42.92
442.195	61.92
442.321	59.92
442.447	54.92
442.573	48.92
442.699	29.92
442.825	48.92
442.951	58.92
443.077	68.92
443.203	54.92
443.33	42.92
443.456	27.92
443.582	46.92
443.708	47.92
443.834	58.92
443.96	41.92
444.086	38.92
444.212	58.92
444.338	54.92
444.464	49.92
444.59	50.92
444.716	37.92
444.842	36.92
444.968	23.92
445.094	46.92
445.22	20.92
445.346	23.92
445.472	29.92
445.598	42.92
445.724	16.92
445.85	35.92
445.976	39.92
446.102	36.92
446.228	45.92
446.354	55.92
446.48	38.92
446.605	27.92
446.731	24.92
446.857	24.92
446.983	29.92
447.109	13.92
447.235	28.92
447.361	14.92
447.487	57.92
447.613	38.92
447.739	31.92
447.865	14.92
447.99	26.92
448.116	26.92
448.242	36.92
448.368	41.92
448.494	25.92
448.62	45.92
448.746	16.92
448.872	21.92
448.997	28.92
449.123	32.92
449.249	17.92
449.375	29.92
449.501	7.92
449.627	21.92
449.752	22.92
449.878	20.92
450.004	16.92
450.13	22.92
450.256	17.92
450.381	8.92
450.507	30.92
450.633	37.92
450.759	43.92
450.884	31.92
451.01	41.92
451.136	28.92
451.262	35.92
451.388	32.92
451.513	20.92
451.639	34.92
451.765	20.92
451.89	24.92
452.016	16.92
452.142	10.92
452.268	20.92
452.393	12.92
452.519	13.92
452.645	31.92
452.771	27.92
452.896	9.92
453.022	27.92
453.148	38.92
453.273	46.92
453.399	23.92
453.525	19.92
453.65	26.92
453.776	22.92
453.902	42.92
454.027	33.92
454.153	41.92
454.279	34.92
454.404	24.92
454.53	37.92
454.656	43.92
454.781	24.92
454.907	29.92
455.032	24.92
455.158	37.92
455.284	30.92
455.409	27.92
455.535	25.92
455.66	31.92
455.786	36.92
455.912	30.92
456.037	5.92
456.163	34.92
456.288	21.92
456.414	24.92
456.539	21.92
456.665	37.92
456.791	24.92
456.916	39.92
457.042	26.92
457.167	25.92
457.293	18.92
457.418	9.92
457.544	18.92
457.669	14.92
457.795	1.92
457.92	26.92
458.046	28.92
458.171	34.92
458.297	16.92
458.422	17.92
458.548	28.92
458.673	26.92
458.799	18.92
458.924	15.92
459.05	24.92
459.175	30.92
459.301	29.92
459.426	38.92
459.552	33.92
459.677	6.92
459.803	32.92
459.928	27.92
460.053	21.92
460.179	19.92
460.304	26.92
460.43	11.92
460.555	12.92
460.681	4.92
460.806	33.92
460.931	26.92
461.057	44.92
461.182	43.92
461.308	45.92
461.433	35.92
461.558	16.92
461.684	20.92
461.809	25.92
461.934	14.92
462.06	45.92
462.185	16.92
462.311	32.92
462.436	42.92
462.561	33.92
462.687	34.92
462.812	27.92
462.937	13.92
463.063	15.92
463.188	14.92
463.313	29.92
463.439	23.92
463.564	21.92
463.689	21.92
463.814	23.92
463.94	18.92
464.065	30.92
464.19	31.92
464.316	19.92
464.441	20.92
464.566	23.92
464.692	16.92
464.817	19.92
464.942	9.92
465.067	13.92
465.193	1.92
465.318	2.92
465.443	13.92
465.568	16.92
465.694	31.92
465.819	34.92
465.944	35.92
466.069	25.92
466.194	35.92
466.32	26.92
466.445	18.92
466.57	17.92
466.695	23.92
466.82	39.92
466.946	23.92
467.071	29.92
467.196	29.92
467.321	20.92
467.446	18.92
467.572	25.92
467.697	33.92
467.822	26.92
467.947	53.92
468.072	12.92
468.197	23.92
468.323	-0.08
468.448	27.92
468.573	20.92
468.698	35.92
468.823	29.92
468.948	36.92
469.073	30.92
469.198	40.92
469.324	55.92
469.449	31.92
469.574	41.92
469.699	55.92
469.824	30.92
469.949	38.92
470.074	29.92
470.199	38.92
470.324	30.92
470.449	41.92
470.574	12.92
470.7	27.92
470.825	25.92
470.95	45.92
471.075	23.92
471.2	43.92
471.325	40.92
471.45	26.92
471.575	22.92
471.7	28.92
471.825	18.92
471.95	21.92
472.075	28.92
472.2	20.92
472.325	25.92
472.45	35.92
472.575	38.92
472.7	34.92
472.825	44.92
472.95	33.92
473.075	37.92
473.2	36.92
473.325	38.92
473.45	36.92
473.575	36.92
473.7	45.92
473.825	20.92
473.95	20.92
474.075	52.92
474.2	12.92
474.325	9.92
474.45	36.92
474.574	11.92
474.699	13.92
474.824	23.92
474.949	10.92
475.074	5.92
475.199	34.92
475.324	41.92
475.449	20.92
475.574	-3.08
475.699	33.92
475.824	5.92
475.949	20.92
476.073	6.92
476.198	14.92
476.323	30.92
476.448	3.92
476.573	5.92
476.698	31.92
476.823	22.92
476.947	24.92
477.072	20.92
477.197	18.92
477.322	17.92
477.447	6.92
477.572	16.92
477.697	15.92
477.821	12.92
477.946	33.92
478.071	19.92
478.196	22.92
478.321	15.92
478.445	10.92
478.57	10.92
478.695	22.92
478.82	22.92
478.945	23.92
479.069	5.92
479.194	16.92
479.319	16.92
479.444	22.92
479.569	2.92
479.693	20.92
479.818	35.92
479.943	33.92
480.068	21.92
480.192	27.92
480.317	25.92
480.442	24.92
480.567	22.92
480.691	28.92
480.816	25.92
480.941	0.92
481.066	8.92
481.19	21.92
481.315	33.92
481.44	10.92
481.564	14.92
481.689	25.92
481.814	42.92
481.938	12.92
482.063	-15.08
482.188	5.92
482.313	19.92
482.437	12.92
482.562	35.92
482.687	28.92
482.811	19.92
482.936	9.92
483.061	13.92
483.185	9.92
483.31	33.92
483.435	10.92
483.559	19.92
483.684	28.92
483.808	31.92
483.933	13.92
484.058	22.92
484.182	13.92
484.307	2.92
484.432	0.92
484.556	12.92
484.681	25.92
484.805	18.92
484.93	10.92
485.055	20.92
485.179	44.92
485.304	24.92
485.428	30.92
485.553	10.92
485.678	17.92
485.802	18.92
485.927	53.92
486.051	45.92
486.176	17.92
486.3	-10.08
486.425	22.92
486.549	20.92
486.674	17.92
486.799	4.92
486.923	1.92
487.048	6.92
487.172	12.92
487.297	30.92
487.421	16.92
487.546	41.92
487.67	20.92
487.795	4.92
487.919	7.92
488.044	33.92
488.168	31.92
488.293	25.92
488.417	10.92
488.542	16.92
488.666	32.92
488.791	17.92
488.915	4.92
489.04	11.92
489.164	14.92
489.289	28.92
489.413	11.92
489.538	4.92
489.662	22.92
489.786	5.92
489.911	23.92
490.035	16.92
490.16	10.92
490.284	19.92
490.409	-2.08
490.533	30.92
490.658	56.92
490.782	27.92
490.906	48.92
491.031	110.92
491.155	140.92
491.28	132.92
491.404	151.92
491.528	252.92
491.653	150.92
491.777	68.92
491.902	14.92
492.026	29.92
492.15	28.92
492.275	28.92
492.399	28.92
492.524	21.92
492.648	27.92
492.772	26.92
492.897	26.92
493.021	5.92
493.145	27.92
493.27	25.92
493.394	-3.08
493.518	0.92
493.643	10.92
493.767	24.92
493.891	-2.08
494.016	18.92
494.14	17.92
494.264	20.92
494.389	25.92
494.513	11.92
494.637	14.92
494.762	30.92
494.886	32.92
495.01	33.92
495.134	27.92
495.259	28.92
495.383	22.92
495.507	14.92
495.632	37.92
495.756	40.92
495.88	21.92
496.004	17.92
496.129	9.92
496.253	26.92
496.377	18.92
496.501	33.92
496.626	-2.08
496.75	7.92
496.874	10.92
496.998	9.92
497.123	16.92
497.247	10.92
497.371	11.92
497.495	29.92
497.62	18.92
497.744	11.92
497.868	13.92
497.992	22.92
498.116	20.92
498.241	26.92
498.365	21.92
498.489	36.92
498.613	34.92
498.737	17.92
498.862	14.92
498.986	6.92
499.11	9.92
499.234	3.92
499.358	-5.08
499.482	16.92
499.607	31.92
499.731	28.92
499.855	26.92
499.979	19.92
500.103	14.92
500.227	2.92
500.351	13.92
500.476	6.92
500.6	22.92
500.724	13.92
500.848	11.92
500.972	23.92
501.096	4.92
501.22	32.92
501.344	18.92
501.469	5.92
501.593	3.92
501.717	16.92
501.841	16.92
501.965	14.92
502.089	4.92
502.213	19.92
502.337	16.92
502.461	30.92
502.585	11.92
502.709	6.92
502.834	13.92
502.958	21.92
503.082	18.92
503.206	12.92
503.33	23.92
503.454	23.92
503.578	24.92
503.702	21.92
503.826	23.92
503.95	36.92
504.074	6.92
504.198	13.92
504.322	6.92
504.446	14.92
504.57	21.92
504.694	12.92
504.818	14.92
504.942	22.92
505.066	14.92
505.19	26.92
505.314	5.92
505.438	18.92
505.562	13.92
505.686	37.92
505.81	9.92
505.934	22.92
506.058	28.92
506.182	38.92
506.306	22.92
506.43	16.92
506.554	17.92
506.678	11.92
506.802	21.92
506.926	29.92
507.05	20.92
507.174	26.92
507.298	20.92
507.422	36.92
507.546	41.92
507.67	53.92
507.794	13.92
507.918	23.92
508.042	10.92
508.165	-4.08
508.289	5.92
508.413	13.92
508.537	10.92
508.661	24.92
508.785	19.92
508.909	20.92
509.033	20.92
509.157	43.92
509.281	28.92
509.405	22.92
509.528	46.92
509.652	35.92
509.776	10.92
509.9	49.92
510.024	32.92
510.148	35.92
510.272	23.92
510.396	14.92
510.519	9.92
510.643	41.92
510.767	28.92
510.891	14.92
511.015	24.92
511.139	34.92
511.263	48.92
511.386	24.92
511.51	39.92
511.634	57.92
511.758	43.92
511.882	21.92
512.006	43.92
512.129	66.92
512.253	83.92
512.377	55.92
512.501	72.92
512.625	88.92
512.748	86.92
512.872	60.92
512.996	43.92
513.12	62.92
513.244	45.92
513.367	65.92
513.491	66.92
513.615	69.92
513.739	76.92
513.862	84.92
513.986	82.92
514.11	101.92
514.234	87.92
514.358	120.92
514.481	117.92
514.605	104.92
514.729	118.92
514.853	114.92
514.976	113.92
515.1	104.92
515.224	116.92
515.348	84.92
515.471	72.92
515.595	106.92
515.719	127.92
515.842	206.92
515.966	285.92
516.09	294.92
516.214	294.92
516.337	322.92
516.461	241.92
516.585	101.92
516.708	60.92
516.832	31.92
516.956	2.92
517.08	20.92
517.203	11.92
517.327	7.92
517.451	21.92
517.574	23.92
517.698	12.92
517.822	10.92
517.945	22.92
518.069	18.92
518.193	23.92
518.316	18.92
518.44	17.92
518.564	4.92
518.687	29.92
518.811	6.92
518.935	44.92
519.058	13.92
519.182	29.92
519.306	22.92
519.429	3.92
519.553	47.92
519.676	26.92
519.8	21.92
519.924	31.92
520.047	30.92
520.171	-4.08
520.294	18.92
520.418	12.92
520.542	11.92
520.665	33.92
520.789	12.92
520.913	-6.08
521.036	-18.08
521.16	1.92
521.283	13.92
521.407	11.92
521.53	12.92
521.654	0.92
521.778	26.92
521.901	26.92
522.025	5.92
522.148	4.92
522.272	20.92
522.395	16.92
522.519	16.92
522.643	6.92
522.766	14.92
522.89	16.92
523.013	20.92
523.137	2.92
523.26	17.92
523.384	18.92
523.507	17.92
523.631	23.92
523.754	7.92
523.878	20.92
524.002	20.92
524.125	4.92
524.249	1.92
524.372	4.92
524.496	33.92
524.619	10.92
524.743	8.92
524.866	22.92
524.99	22.92
525.113	6.92
525.237	18.92
525.36	7.92
525.484	29.92
525.607	6.92
525.731	-1.08
525.854	31.92
525.978	25.92
526.101	13.92
526.224	3.92
526.348	11.92
526.471	17.92
526.595	18.92
526.718	15.92
526.842	20.92
526.965	30.92
527.089	16.92
527.212	11.92
527.336	13.92
527.459	36.92
527.582	28.92
527.706	10.92
527.829	7.92
527.953	16.92
528.076	-1.08
528.2	2.92
528.323	24.92
528.446	32.92
528.57	2.92
528.693	11.92
528.817	19.92
528.94	36.92
529.064	27.92
529.187	7.92
529.31	16.92
529.434	4.92
529.557	5.92
529.68	13.92
529.804	17.92
529.927	8.92
530.051	16.92
530.174	0.92
530.297	16.92
530.421	25.92
530.544	44.92
530.668	10.92
530.791	17.92
530.914	12.92
531.038	14.92
531.161	6.92
531.284	10.92
531.408	21.92
531.531	23.92
531.654	12.92
531.778	9.92
531.901	4.92
532.024	18.92
532.148	7.92
532.271	14.92
532.394	-5.08
532.518	16.92
532.641	23.92
532.764	18.92
532.888	19.92
533.011	10.92
533.134	8.92
533.258	25.92
533.381	1.92
533.504	5.92
533.628	20.92
533.751	24.92
533.874	16.92
533.997	19.92
534.121	-6.08
534.244	-3.08
534.367	7.92
534.491	14.92
534.614	16.92
534.737	32.92
534.86	6.92
534.984	27.92
535.107	19.92
535.23	13.92
535.354	-2.08
535.477	-3.08
535.6	16.92
535.723	21.92
535.847	14.92
535.97	-6.08
536.093	21.92
536.216	13.92
536.34	32.92
536.463	5.92
536.586	25.92
536.709	23.92
536.833	19.92
536.956	14.92
537.079	-11.08
537.202	15.92
537.325	6.92
537.449	-7.08
537.572	21.92
537.695	17.92
537.818	15.92
537.941	31.92
538.065	21.92
538.188	-11.08
538.311	2.92
538.434	9.92
538.558	13.92
538.681	22.92
538.804	26.92
538.927	12.92
539.05	12.92
539.173	4.92
539.297	21.92
539.42	9.92
539.543	24.92
539.666	54.92
539.789	29.92
539.913	15.92
540.036	15.92
540.159	20.92
540.282	12.92
540.405	0.92
540.528	10.92
540.651	23.92
540.775	10.92
540.898	27.92
541.021	28.92
541.144	43.92
541.267	27.92
541.39	8.92
541.513	37.92
541.637	27.92
541.76	14.92
541.883	19.92
542.006	43.92
542.129	46.92
542.252	24.92
542.375	35.92
542.498	22.92
542.622	48.92
542.745	40.92
542.868	64.92
542.991	48.92
543.114	52.92
543.237	72.92
543.36	48.92
543.483	50.92
543.606	62.92
543.73	80.92
543.853	59.92
543.976	78.92
544.099	108.92
544.222	113.92
544.345	127.92
544.468	171.92
544.591	224.92
544.714	249.92
544.837	338.92
544.96	433.92
545.083	632.92
545.206	1072.92
545.329	2409.92
545.453	10984.92
545.576	15252.92
545.699	15679.92
545.822	15679.92
545.945	15679.92
546.068	15679.92
546.191	15679.92
546.314	15679.92
546.437	15679.92
546.56	15679.92
546.683	15679.92
546.806	15679.92
546.929	15679.92
547.052	15679.92
547.175	15679.92
547.298	15679.92
547.421	15679.92
547.544	15679.92
547.667	3746.92
547.79	3227.92
547.913	1171.92
548.036	960.92
548.159	685.92
548.282	640.92
548.405	493.92
548.528	518.92
548.651	415.92
548.774	416.92
548.897	340.92
549.02	364.92
549.143	324.92
549.266	290.92
549.389	272.92
549.512	269.92
549.635	257.92
549.758	250.92
549.881	213.92
550.004	206.92
550.127	197.92
550.25	174.92
550.373	164.92
550.496	165.92
550.619	135.92
550.742	153.92
550.865	142.92
550.988	157.92
551.111	165.92
551.234	134.92
551.356	122.92
551.479	130.92
551.602	134.92
551.725	124.92
551.848	122.92
551.971	133.92
552.094	124.92
552.217	132.92
552.34	115.92
552.463	82.92
552.586	87.92
552.709	106.92
552.832	97.92
552.955	100.92
553.077	118.92
553.2	109.92
553.323	92.92
553.446	107.92
553.569	89.92
553.692	104.92
553.815	109.92
553.938	85.92
554.061	106.92
554.184	92.92
554.306	78.92
554.429	86.92
554.552	77.92
554.675	69.92
554.798	87.92
554.921	76.92
555.044	51.92
555.167	52.92
555.29	62.92
555.412	69.92
555.535	71.92
555.658	71.92
555.781	76.92
555.904	71.92
556.027	83.92
556.15	77.92
556.272	87.92
556.395	85.92
556.518	62.92
556.641	70.92
556.764	73.92
556.887	66.92
557.01	61.92
557.132	55.92
557.255	53.92
557.378	69.92
557.501	45.92
557.624	73.92
557.747	75.92
557.869	84.92
557.992	98.92
558.115	96.92
558.238	93.92
558.361	99.92
558.483	109.92
558.606	73.92
558.729	48.92
558.852	72.92
558.975	62.92
559.098	55.92
559.22	61.92
559.343	38.92
559.466	44.92
559.589	47.92
559.712	43.92
559.834	58.92
559.957	54.92
560.08	37.92
560.203	54.92
560.325	80.92
560.448	54.92
560.571	48.92
560.694	47.92
560.817	65.92
560.939	45.92
561.062	53.92
561.185	71.92
561.308	65.92
561.43	62.92
561.553	60.92
561.676	47.92
561.799	66.92
561.921	59.92
562.044	54.92
562.167	37.92
562.29	80.92
562.413	72.92
562.535	61.92
562.658	43.92
562.781	52.92
562.903	72.92
563.026	93.92
563.149	145.92
563.272	122.92
563.394	116.92
563.517	97.92
563.64	57.92
563.763	45.92
563.885	35.92
564.008	55.92
564.131	54.92
564.254	16.92
564.376	47.92
564.499	23.92
564.622	33.92
564.744	41.92
564.867	51.92
564.99	29.92
565.113	28.92
565.235	33.92
565.358	36.92
565.481	14.92
565.603	33.92
565.726	42.92
565.849	31.92
565.971	37.92
566.094	25.92
566.217	34.92
566.34	37.92
566.462	48.92
566.585	34.92
566.708	55.92
566.83	40.92
566.953	42.92
567.076	23.92
567.198	40.92
567.321	22.92
567.444	24.92
567.566	24.92
567.689	18.92
567.812	29.92
567.934	48.92
568.057	40.92
568.18	39.92
568.302	31.92
568.425	17.92
568.548	30.92
568.67	24.92
568.793	16.92
568.916	27.92
569.038	28.92
569.161	29.92
569.283	43.92
569.406	29.92
569.529	30.92
569.651	15.92
569.774	34.92
569.897	25.92
570.019	39.92
570.142	33.92
570.265	34.92
570.387	32.92
570.51	21.92
570.632	28.92
570.755	10.92
570.878	17.92
571	48.92
571.123	25.92
571.246	29.92
571.368	20.92
571.491	25.92
571.613	27.92
571.736	12.92
571.859	19.92
571.981	18.92
572.104	9.92
572.226	33.92
572.349	14.92
572.472	24.92
572.594	33.92
572.717	49.92
572.839	18.92
572.962	24.92
573.085	28.92
573.207	21.92
573.33	17.92
573.452	42.92
573.575	57.92
573.697	30.92
573.82	29.92
573.943	15.92
574.065	48.92
574.188	33.92
574.31	57.92
574.433	42.92
574.555	54.92
574.678	40.92
574.801	41.92
574.923	22.92
575.046	12.92
575.168	20.92
575.291	29.92
575.413	36.92
575.536	34.92
575.659	46.92
575.781	60.92
575.904	46.92
576.026	56.92
576.149	72.92
576.271	112.92
576.394	219.92
576.516	518.92
576.639	3622.92
576.761	10212.92
576.884	8932.92
577.007	8828.92
577.129	8098.92
577.252	3773.92
577.374	1321.92
577.497	521.92
577.619	266.92
577.742	175.92
577.864	138.92
577.987	122.92
578.109	138.92
578.232	120.92
578.354	178.92
578.477	196.92
578.599	400.92
578.722	1959.92
578.844	9156.92
578.967	9894.92
579.089	8817.92
579.212	9174.92
579.334	5320.92
579.457	1945.92
579.579	722.92
579.702	320.92
579.824	196.92
579.947	134.92
580.069	100.92
580.192	81.92
580.314	80.92
580.437	70.92
580.559	85.92
580.682	48.92
580.804	68.92
580.927	55.92
581.049	68.92
581.172	52.92
581.294	54.92
581.417	51.92
581.539	42.92
581.662	56.92
581.784	46.92
581.907	53.92
582.029	46.92
582.152	21.92
582.274	52.92
582.396	32.92
582.519	46.92
582.641	36.92
582.764	20.92
582.886	46.92
583.009	12.92
583.131	28.92
583.254	22.92
583.376	53.92
583.499	33.92
583.621	44.92
583.743	47.92
583.866	36.92
583.988	20.92
584.111	27.92
584.233	29.92
584.356	34.92
584.478	17.92
584.601	14.92
584.723	28.92
584.845	48.92
584.968	20.92
585.09	25.92
585.213	43.92
585.335	20.92
585.458	19.92
585.58	37.92
585.702	21.92
585.825	18.92
585.947	16.92
586.07	18.92
586.192	13.92
586.315	13.92
586.437	14.92
586.559	16.92
586.682	20.92
586.804	32.92
586.927	38.92
587.049	16.92
587.171	40.92
587.294	48.92
587.416	45.92
587.539	17.92
587.661	22.92
587.783	22.92
587.906	22.92
588.028	43.92
588.151	27.92
588.273	30.92
588.395	22.92
588.518	27.92
588.64	20.92
588.763	30.92
588.885	26.92
589.007	28.92
589.13	21.92
589.252	0.92
589.375	31.92
589.497	13.92
589.619	30.92
589.742	25.92
589.864	50.92
589.986	22.92
590.109	10.92
590.231	27.92
590.354	24.92
590.476	2.92
590.598	13.92
590.721	9.92
590.843	10.92
590.965	11.92
591.088	32.92
591.21	11.92
591.332	30.92
591.455	0.92
591.577	14.92
591.7	30.92
591.822	19.92
591.944	20.92
592.067	29.92
592.189	19.92
592.311	28.92
592.434	32.92
592.556	46.92
592.678	33.92
592.801	31.92
592.923	15.92
593.045	20.92
593.168	27.92
593.29	7.92
593.412	24.92
593.535	16.92
593.657	15.92
593.779	32.92
593.902	22.92
594.024	26.92
594.146	29.92
594.269	20.92
594.391	12.92
594.513	29.92
594.636	39.92
594.758	5.92
594.88	35.92
595.003	15.92
595.125	12.92
595.247	19.92
595.37	38.92
595.492	21.92
595.614	36.92
595.737	12.92
595.859	29.92
595.981	25.92
596.104	25.92
596.226	23.92
596.348	17.92
596.471	17.92
596.593	26.92
596.715	32.92
596.838	23.92
596.96	16.92
597.082	28.92
597.204	17.92
597.327	29.92
597.449	7.92
597.571	38.92
597.694	19.92
597.816	20.92
597.938	0.92
598.061	17.92
598.183	14.92
598.305	22.92
598.427	22.92
598.55	12.92
598.672	22.92
598.794	28.92
598.917	12.92
599.039	24.92
599.161	24.92
599.283	25.92
599.406	24.92
599.528	30.92
599.65	37.92
599.773	23.92
599.895	36.92
600.017	29.92
600.139	29.92
600.262	17.92
600.384	10.92
600.506	34.92
600.628	47.92
600.751	40.92
600.873	23.92
600.995	10.92
601.118	22.92
601.24	23.92
601.362	41.92
601.484	14.92
601.607	20.92
601.729	23.92
601.851	10.92
601.973	4.92
602.096	32.92
602.218	16.92
602.34	9.92
602.462	21.92
602.585	21.92
602.707	7.92
602.829	27.92
602.951	19.92
603.074	7.92
603.196	25.92
603.318	4.92
603.44	19.92
603.563	19.92
603.685	14.92
603.807	28.92
603.929	27.92
604.052	42.92
604.174	30.92
604.296	17.92
604.418	34.92
604.541	23.92
604.663	8.92
604.785	25.92
604.907	31.92
605.03	9.92
605.152	44.92
605.274	6.92
605.396	-3.08
605.519	16.92
605.641	23.92
605.763	25.92
605.885	26.92
606.008	17.92
606.13	14.92
606.252	28.92
606.374	0.92
606.496	0.92
606.619	20.92
606.741	11.92
606.863	23.92
606.985	12.92
607.108	14.92
607.23	10.92
607.352	4.92
607.474	2.92
607.596	16.92
607.719	30.92
607.841	25.92
607.963	17.92
608.085	16.92
608.207	30.92
608.33	20.92
608.452	14.92
608.574	8.92
608.696	24.92
608.819	19.92
608.941	10.92
609.063	26.92
609.185	19.92
609.307	31.92
609.43	25.92
609.552	19.92
609.674	6.92
609.796	27.92
609.918	26.92
610.041	18.92
610.163	29.92
610.285	13.92
610.407	27.92
610.529	10.92
610.652	20.92
610.774	36.92
610.896	26.92
611.018	28.92
611.14	13.92
611.263	7.92
611.385	2.92
611.507	16.92
611.629	1.92
611.751	17.92
611.873	30.92
611.996	34.92
612.118	32.92
612.24	11.92
612.362	16.92
612.484	34.92
612.607	34.92
612.729	35.92
612.851	20.92
612.973	18.92
613.095	-7.08
613.218	25.92
613.34	24.92
613.462	25.92
613.584	12.92
613.706	16.92
613.828	37.92
613.951	19.92
614.073	13.92
614.195	-6.08
614.317	25.92
614.439	30.92
614.561	28.92
614.684	22.92
614.806	24.92
614.928	25.92
615.05	28.92
615.172	29.92
615.294	42.92
615.417	18.92
615.539	4.92
615.661	7.92
615.783	22.92
615.905	12.92
616.027	11.92
616.15	33.92
616.272	32.92
616.394	12.92
616.516	2.92
616.638	7.92
616.76	22.92
616.883	15.92
617.005	17.92
617.127	12.92
617.249	26.92
617.371	26.92
617.493	20.92
617.615	13.92
617.738	12.92
617.86	20.92
617.982	6.92
618.104	8.92
618.226	6.92
618.348	-5.08
618.471	13.92
618.593	22.92
618.715	-9.08
618.837	16.92
618.959	17.92
619.081	20.92
619.203	23.92
619.326	14.92
619.448	28.92
619.57	48.92
619.692	42.92
619.814	34.92
619.936	21.92
620.058	18.92
620.181	24.92
620.303	16.92
620.425	12.92
620.547	16.92
620.669	0.92
620.791	24.92
620.913	6.92
621.036	1.92
621.158	16.92
621.28	16.92
621.402	5.92
621.524	2.92
621.646	5.92
621.768	29.92
621.891	8.92
622.013	6.92
622.135	20.92
622.257	11.92
622.379	8.92
622.501	17.92
622.623	3.92
622.745	13.92
622.868	3.92
622.99	4.92
623.112	-1.08
623.234	9.92
623.356	8.92
623.478	4.92
623.6	33.92
623.722	24.92
623.845	22.92
623.967	14.92
624.089	26.92
624.211	10.92
624.333	19.92
624.455	28.92
624.577	9.92
624.699	20.92
624.822	20.92
624.944	-2.08
625.066	9.92
625.188	4.92
625.31	5.92
625.432	29.92
625.554	23.92
625.676	31.92
625.799	19.92
625.921	9.92
626.043	20.92
626.165	-2.08
626.287	-5.08
626.409	20.92
626.531	8.92
626.653	34.92
626.775	27.92
626.898	32.92
627.02	35.92
627.142	46.92
627.264	23.92
627.386	-3.08
627.508	2.92
627.63	16.92
627.752	19.92
627.874	15.92
627.997	18.92
628.119	22.92
628.241	19.92
628.363	16.92
628.485	8.92
628.607	25.92
628.729	18.92
628.851	12.92
628.973	23.92
629.096	3.92
629.218	10.92
629.34	22.92
629.462	-7.08
629.584	13.92
629.706	8.92
629.828	22.92
629.95	21.92
630.072	-1.08
630.195	9.92
630.317	2.92
630.439	1.92
630.561	27.92
630.683	12.92
630.805	20.92
630.927	19.92
631.049	15.92
631.171	20.92
631.293	13.92
631.416	12.92
631.538	9.92
631.66	13.92
631.782	21.92
631.904	20.92
632.026	13.92
632.148	3.92
632.27	0.92
632.392	9.92
632.514	21.92
632.637	13.92
632.759	-4.08
632.881	-7.08
633.003	-7.08
633.125	0.92
633.247	5.92
633.369	3.92
633.491	25.92
633.613	28.92
633.735	8.92
633.858	19.92
633.98	8.92
634.102	-9.08
634.224	-5.08
634.346	17.92
634.468	5.92
634.59	16.92
634.712	9.92
634.834	13.92
634.956	9.92
635.078	1.92
635.201	0.92
635.323	22.92
635.445	-1.08
635.567	-11.08
635.689	10.92
635.811	-7.08
635.933	0.92
636.055	4.92
636.177	3.92
636.299	17.92
636.421	5.92
636.544	-19.08
636.666	10.92
636.788	18.92
636.91	9.92
637.032	18.92
637.154	33.92
637.276	46.92
637.398	19.92
637.52	14.92
637.642	24.92
637.764	11.92
637.887	6.92
638.009	5.92
638.131	29.92
638.253	-0.08
638.375	26.92
638.497	12.92
638.619	3.92
638.741	11.92
638.863	-5.08
638.985	12.92
639.107	10.92
639.23	20.92
639.352	26.92
639.474	-6.08
639.596	10.92
639.718	4.92
639.84	17.92
639.962	5.92
640.084	10.92
640.206	6.92
640.328	-3.08
640.45	7.92
640.573	0.92
640.695	-1.08
640.817	5.92
640.939	14.92
641.061	20.92
641.183	13.92
641.305	19.92
641.427	6.92
641.549	6.92
641.671	16.92
641.793	-4.08
641.915	23.92
642.038	9.92
642.16	-5.08
642.282	4.92
642.404	9.92
642.526	22.92
642.648	24.92
642.77	-1.08
642.892	-4.08
643.014	19.92
643.136	22.92
643.258	2.92
643.381	29.92
643.503	38.92
643.625	15.92
643.747	7.92
643.869	10.92
643.991	5.92
644.113	5.92
644.235	20.92
644.357	1.92
644.479	16.92
644.601	1.92
644.723	13.92
644.846	12.92
644.968	8.92
645.09	27.92
645.212	0.92
645.334	13.92
645.456	22.92
645.578	34.92
645.7	16.92
645.822	8.92
645.944	13.92
646.066	17.92
646.188	9.92
646.311	18.92
646.433	16.92
646.555	36.92
646.677	28.92
646.799	18.92
646.921	19.92
647.043	13.92
647.165	13.92
647.287	-1.08
647.409	6.92
647.531	23.92
647.654	-3.08
647.776	20.92
647.898	0.92
648.02	-3.08
648.142	7.92
648.264	12.92
648.386	2.92
648.508	-2.08
648.63	11.92
648.752	10.92
648.874	18.92
648.997	12.92
649.119	14.92
649.241	8.92
649.363	25.92
649.485	28.92
649.607	12.92
649.729	5.92
649.851	0.92
649.973	2.92
650.095	4.92
650.217	2.92
650.34	9.92
650.462	20.92
650.584	-3.08
650.706	17.92
650.828	0.92
650.95	2.92
651.072	14.92
651.194	-21.08
651.316	-6.08
651.438	2.92
651.56	0.92
651.683	5.92
651.805	12.92
651.927	12.92
652.049	1.92
652.171	-11.08
652.293	12.92
652.415	-5.08
652.537	2.92
652.659	-4.08
652.781	18.92
652.903	20.92
653.026	12.92
653.148	11.92
653.27	12.92
653.392	17.92
653.514	-2.08
653.636	9.92
653.758	14.92
653.88	8.92
654.002	-6.08
654.124	0.92
654.247	9.92
654.369	25.92
654.491	-8.08
654.613	21.92
654.735	0.92
654.857	11.92
654.979	12.92
655.101	25.92
655.223	47.92
655.345	8.92
655.468	23.92
655.59	1.92
655.712	14.92
655.834	16.92
655.956	25.92
656.078	2.92
656.2	0.92
656.322	4.92
656.444	-1.08
656.566	10.92
656.689	2.92
656.811	-6.08
656.933	17.92
657.055	6.92
657.177	6.92
657.299	2.92
657.421	5.92
657.543	12.92
657.665	-5.08
657.787	7.92
657.91	-17.08
658.032	-14.08
658.154	6.92
658.276	15.92
658.398	-17.08
658.52	17.92
658.642	18.92
658.764	24.92
658.886	-13.08
659.009	10.92
659.131	12.92
659.253	0.92
659.375	4.92
659.497	2.92
659.619	10.92
659.741	8.92
659.863	10.92
659.985	0.92
660.108	29.92
660.23	5.92
660.352	14.92
660.474	14.92
660.596	16.92
660.718	6.92
660.84	-7.08
660.962	21.92
661.084	-1.08
661.207	-7.08
661.329	11.92
661.451	13.92
661.573	11.92
661.695	24.92
661.817	26.92
661.939	32.92
662.061	49.92
662.184	8.92
662.306	7.92
662.428	5.92
662.55	4.92
662.672	7.92
662.794	-6.08
662.916	13.92
663.038	0.92
663.161	13.92
663.283	6.92
663.405	11.92
663.527	0.92
663.649	2.92
663.771	22.92
663.893	-3.08
664.015	0.92
664.138	0.92
664.26	2.92
664.382	19.92
664.504	8.92
664.626	-7.08
664.748	-1.08
664.87	10.92
664.992	14.92
665.115	12.92
665.237	20.92
665.359	-1.08
665.481	2.92
665.603	11.92
665.725	10.92
665.847	-12.08
665.97	4.92
666.092	10.92
666.214	17.92
666.336	3.92
666.458	17.92
666.58	3.92
666.702	-2.08
666.825	6.92
666.947	-5.08
667.069	13.92
667.191	-5.08
667.313	13.92
667.435	-10.08
667.557	-9.08
667.68	2.92
667.802	-4.08
667.924	-7.08
668.046	11.92
668.168	9.92
668.29	5.92
668.412	17.92
668.535	10.92
668.657	-7.08
668.779	-13.08
668.901	18.92
669.023	26.92
669.145	10.92
669.267	9.92
669.39	3.92
669.512	-4.08
669.634	6.92
669.756	-13.08
669.878	13.92
670	33.92
670.123	5.92
670.245	29.92
670.367	6.92
670.489	11.92
670.611	16.92
670.733	-3.08
670.856	6.92
670.978	9.92
671.1	10.92
671.222	14.92
671.344	8.92
671.466	-6.08
671.589	-5.08
671.711	0.92
671.833	-5.08
671.955	10.92
672.077	-7.08
672.199	12.92
672.322	9.92
672.444	8.92
672.566	13.92
672.688	9.92
672.81	15.92
672.932	15.92
673.055	8.92
673.177	0.92
673.299	14.92
673.421	-9.08
673.543	6.92
673.665	14.92
673.788	2.92
673.91	-4.08
674.032	-15.08
674.154	0.92
674.276	6.92
674.399	-0.08
674.521	-5.08
674.643	4.92
674.765	-1.08
674.887	18.92
675.009	6.92
675.132	-1.08
675.254	-3.08
675.376	10.92
675.498	-6.08
675.62	14.92
675.743	6.92
675.865	5.92
675.987	-9.08
676.109	1.92
676.231	12.92
676.354	17.92
676.476	-3.08
676.598	12.92
676.72	0.92
676.842	13.92
676.965	4.92
677.087	0.92
677.209	16.92
677.331	0.92
677.453	6.92
677.576	9.92
677.698	8.92
677.82	8.92
677.942	-3.08
678.064	-5.08
678.187	12.92
678.309	10.92
678.431	19.92
678.553	-7.08
678.675	34.92
678.798	43.92
678.92	1.92
679.042	1.92
679.164	8.92
679.286	16.92
679.409	10.92
679.531	-5.08
679.653	-4.08
679.775	6.92
679.898	-7.08
680.02	-5.08
680.142	0.92
680.264	19.92
680.386	-3.08
680.509	0.92
680.631	16.92
680.753	5.92
680.875	-3.08
680.998	5.92
681.12	-12.08
681.242	0.92
681.364	-7.08
681.486	-3.08
681.609	-1.08
681.731	-5.08
681.853	-7.08
681.975	-4.08
682.098	12.92
682.22	28.92
682.342	7.92
682.464	19.92
682.587	14.92
682.709	10.92
682.831	-5.08
682.953	-6.08
683.076	13.92
683.198	6.92
683.32	13.92
683.442	4.92
683.565	-5.08
683.687	-10.08
683.809	5.92
683.931	-7.08
684.054	8.92
684.176	5.92
684.298	9.92
684.42	-5.08
684.543	4.92
684.665	8.92
684.787	4.92
684.909	-8.08
685.032	10.92
685.154	3.92
685.276	9.92
685.398	6.92
685.521	-10.08
685.643	5.92
685.765	23.92
685.887	13.92
686.01	14.92
686.132	19.92
686.254	13.92
686.377	5.92
686.499	4.92
686.621	15.92
686.743	15.92
686.866	-6.08
686.988	27.92
687.11	28.92
687.232	-5.08
687.355	1.92
687.477	4.92
687.599	2.92
687.722	5.92
687.844	14.92
687.966	-2.08
688.088	14.92
688.211	33.92
688.333	17.92
688.455	-9.08
688.578	7.92
688.7	1.92
688.822	22.92
688.944	-6.08
689.067	34.92
689.189	16.92
689.311	-5.08
689.434	-8.08
689.556	12.92
689.678	13.92
689.801	-2.08
689.923	5.92
690.045	30.92
690.167	30.92
690.29	23.92
690.412	8.92
690.534	30.92
690.657	-3.08
690.779	-4.08
690.901	3.92
691.024	16.92
691.146	19.92
691.268	-7.08
691.391	5.92
691.513	22.92
691.635	7.92
691.758	10.92
691.88	12.92
692.002	7.92
692.125	9.92
692.247	14.92
692.369	-9.08
692.492	-14.08
692.614	0.92
692.736	-18.08
692.859	1.92
692.981	20.92
693.103	8.92
693.226	8.92
693.348	22.92
693.47	9.92
693.593	16.92
693.715	18.92
693.837	17.92
693.96	-1.08
694.082	4.92
694.204	8.92
694.327	6.92
694.449	-9.08
694.571	9.92
694.694	14.92
694.816	10.92
694.938	12.92
695.061	-14.08
695.183	-1.08
695.305	6.92
695.428	16.92
695.55	6.92
695.672	-1.08
695.795	22.92
695.917	21.92
696.04	10.92
696.162	8.92
696.284	5.92
696.407	6.92
696.529	-1.08
696.651	9.92
696.774	-12.08
696.896	19.92
697.019	1.92
697.141	12.92
697.263	3.92
697.386	5.92
697.508	4.92
697.63	6.92
697.753	24.92
697.875	5.92
697.998	-7.08
698.12	5.92
698.242	0.92
698.365	5.92
698.487	3.92
698.61	18.92
698.732	11.92
698.854	16.92
698.977	-7.08
699.099	10.92
699.221	1.92
699.344	8.92
699.466	0.92
699.589	17.92
699.711	-2.08
699.834	17.92
699.956	18.92
700.078	7.92
700.201	-1.08
700.323	2.92
700.446	5.92
700.568	17.92
700.69	22.92
700.813	9.92
700.935	-0.08
701.058	6.92
701.18	-12.08
701.302	8.92
701.425	9.92
701.547	11.92
701.67	-11.08
701.792	8.92
701.915	-5.08
702.037	-2.08
702.159	14.92
702.282	5.92
702.404	0.92
702.527	-2.08
702.649	17.92
702.772	11.92
702.894	10.92
703.017	11.92
703.139	24.92
703.261	4.92
703.384	1.92
703.506	-18.08
703.629	-1.08
703.751	2.92
703.874	1.92
703.996	-14.08
704.119	-2.08
704.241	0.92
704.364	-2.08
704.486	12.92
704.608	3.92
704.731	0.92
704.853	-6.08
704.976	2.92
705.098	20.92
705.221	-2.08
705.343	-12.08
705.466	4.92
705.588	14.92
705.711	17.92
705.833	5.92
705.956	-6.08
706.078	10.92
706.201	18.92
706.323	14.92
706.446	3.92
