Data from LowRes_mercury_15_20_11_07_2024_HR4C61881__14__15-23-33-671.txt Node

Date: Thu Nov 07 15:23:33 EST 2024
User: crc00042
Spectrometer: HR4C6188
Trigger mode: 4
Integration Time (sec): 1.000000E-1
Scans to average: 1
Electric dark correction enabled: true
Nonlinearity correction enabled: false
Boxcar width: 0
XAxis mode: Wavelengths
Number of Pixels in Spectrum: 3648
>>>>>Begin Spectral Data<<<<<
245.66	-61.62
245.797	-61.62
245.934	-61.62
246.071	-72.62
246.208	-3.62
246.344	-10.62
246.481	-9.62
246.618	-8.62
246.755	12.38
246.892	9.38
247.029	-3.62
247.165	-14.62
247.302	18.38
247.439	-7.62
247.576	19.38
247.713	-3.62
247.849	15.38
247.986	-16.62
248.123	4.38
248.26	-4.62
248.396	27.38
248.533	12.38
248.67	2.38
248.806	0.38
248.943	-8.62
249.08	12.38
249.216	-0.62
249.353	3.38
249.49	1.38
249.626	26.38
249.763	18.38
249.9	-7.62
250.036	2.38
250.173	16.38
250.309	4.38
250.446	6.38
250.582	-5.62
250.719	-24.62
250.856	-1.62
250.992	8.38
251.129	9.38
251.265	2.38
251.402	-8.62
251.538	-6.62
251.675	-20.62
251.811	-1.62
251.948	16.38
252.084	11.38
252.221	1.38
252.357	1.38
252.493	21.38
252.63	0.38
252.766	8.38
252.903	9.38
253.039	14.38
253.175	-7.62
253.312	3.38
253.448	-3.62
253.585	-7.62
253.721	-5.62
253.857	12.38
253.994	9.38
254.13	-0.62
254.266	6.38
254.403	-11.62
254.539	5.38
254.675	27.38
254.811	-1.62
254.948	18.38
255.084	-1.62
255.22	-1.62
255.356	9.38
255.493	9.38
255.629	13.38
255.765	27.38
255.901	16.38
256.037	8.38
256.174	21.38
256.31	-5.62
256.446	-9.62
256.582	-2.62
256.718	15.38
256.854	22.38
256.991	13.38
257.127	31.38
257.263	5.38
257.399	15.38
257.535	-1.62
257.671	0.38
257.807	-7.62
257.943	-9.62
258.079	-12.62
258.215	-13.62
258.351	24.38
258.487	8.38
258.623	21.38
258.759	-4.62
258.895	-1.62
259.031	14.38
259.167	-0.62
259.303	15.38
259.439	10.38
259.575	3.38
259.711	-5.62
259.847	4.38
259.983	10.38
260.119	-9.62
260.255	-0.62
260.391	21.38
260.527	20.38
260.663	20.38
260.799	8.38
260.934	4.38
261.07	-0.62
261.206	11.38
261.342	2.38
261.478	-2.62
261.614	9.38
261.749	5.38
261.885	4.38
262.021	-4.62
262.157	12.38
262.293	17.38
262.428	-1.62
262.564	-16.62
262.7	25.38
262.836	6.38
262.971	21.38
263.107	5.38
263.243	20.38
263.378	1.38
263.514	-5.62
263.65	2.38
263.785	-12.62
263.921	-7.62
264.057	-7.62
264.192	14.38
264.328	21.38
264.464	6.38
264.599	5.38
264.735	31.38
264.871	23.38
265.006	-6.62
265.142	9.38
265.277	18.38
265.413	20.38
265.548	36.38
265.684	22.38
265.819	-2.62
265.955	11.38
266.091	-6.62
266.226	2.38
266.362	-15.62
266.497	-10.62
266.633	-5.62
266.768	1.38
266.903	13.38
267.039	19.38
267.174	0.38
267.31	-0.62
267.445	6.38
267.581	-0.62
267.716	17.38
267.851	7.38
267.987	10.38
268.122	32.38
268.258	2.38
268.393	-1.62
268.528	8.38
268.664	-3.62
268.799	-5.62
268.934	18.38
269.07	-10.62
269.205	1.38
269.34	22.38
269.476	14.38
269.611	4.38
269.746	23.38
269.881	2.38
270.017	11.38
270.152	3.38
270.287	5.38
270.422	27.38
270.558	1.38
270.693	21.38
270.828	18.38
270.963	24.38
271.098	6.38
271.234	4.38
271.369	23.38
271.504	22.38
271.639	-7.62
271.774	18.38
271.909	5.38
272.045	-18.62
272.18	7.38
272.315	14.38
272.45	8.38
272.585	10.38
272.72	8.38
272.855	-6.62
272.99	33.38
273.125	2.38
273.26	-15.62
273.395	-8.62
273.53	10.38
273.665	10.38
273.8	19.38
273.935	-0.62
274.07	1.38
274.205	20.38
274.34	1.38
274.475	-2.62
274.61	25.38
274.745	8.38
274.88	20.38
275.015	-13.62
275.15	3.38
275.285	17.38
275.42	4.38
275.555	9.38
275.69	19.38
275.825	4.38
275.959	5.38
276.094	-7.62
276.229	14.38
276.364	9.38
276.499	0.38
276.634	3.38
276.768	4.38
276.903	-9.62
277.038	14.38
277.173	19.38
277.308	-1.62
277.442	-3.62
277.577	-7.62
277.712	12.38
277.847	15.38
277.981	16.38
278.116	-12.62
278.251	5.38
278.386	4.38
278.52	-1.62
278.655	2.38
278.79	12.38
278.924	4.38
279.059	14.38
279.194	-5.62
279.328	27.38
279.463	15.38
279.598	17.38
279.732	-0.62
279.867	17.38
280.001	11.38
280.136	8.38
280.271	30.38
280.405	22.38
280.54	18.38
280.674	5.38
280.809	12.38
280.943	3.38
281.078	-1.62
281.213	20.38
281.347	13.38
281.482	0.38
281.616	-11.62
281.751	20.38
281.885	-3.62
282.02	-5.62
282.154	3.38
282.288	-11.62
282.423	-12.62
282.557	-9.62
282.692	8.38
282.826	17.38
282.961	14.38
283.095	0.38
283.229	-6.62
283.364	-16.62
283.498	-2.62
283.633	26.38
283.767	3.38
283.901	13.38
284.036	6.38
284.17	2.38
284.304	3.38
284.439	-1.62
284.573	-2.62
284.707	15.38
284.842	-5.62
284.976	-1.62
285.11	-4.62
285.244	8.38
285.379	36.38
285.513	1.38
285.647	11.38
285.781	13.38
285.916	18.38
286.05	19.38
286.184	43.38
286.318	20.38
286.453	9.38
286.587	-10.62
286.721	17.38
286.855	10.38
286.989	29.38
287.123	1.38
287.258	12.38
287.392	-5.62
287.526	8.38
287.66	4.38
287.794	8.38
287.928	5.38
288.062	-1.62
288.196	21.38
288.33	8.38
288.464	27.38
288.598	21.38
288.733	8.38
288.867	19.38
289.001	7.38
289.135	7.38
289.269	-0.62
289.403	2.38
289.537	1.38
289.671	15.38
289.805	1.38
289.939	16.38
290.073	8.38
290.207	12.38
290.34	2.38
290.474	26.38
290.608	14.38
290.742	-0.62
290.876	-1.62
291.01	-6.62
291.144	23.38
291.278	7.38
291.412	26.38
291.546	-3.62
291.679	7.38
291.813	12.38
291.947	20.38
292.081	-2.62
292.215	0.38
292.349	3.38
292.482	7.38
292.616	-3.62
292.75	14.38
292.884	16.38
293.018	8.38
293.151	-17.62
293.285	13.38
293.419	-17.62
293.553	-0.62
293.686	10.38
293.82	26.38
293.954	10.38
294.088	40.38
294.221	2.38
294.355	8.38
294.489	11.38
294.622	5.38
294.756	19.38
294.89	2.38
295.023	27.38
295.157	9.38
295.291	20.38
295.424	28.38
295.558	17.38
295.691	-4.62
295.825	0.38
295.959	5.38
296.092	6.38
296.226	-7.62
296.359	8.38
296.493	2.38
296.627	13.38
296.76	5.38
296.894	6.38
297.027	14.38
297.161	4.38
297.294	-6.62
297.428	1.38
297.561	18.38
297.695	-8.62
297.828	7.38
297.962	-1.62
298.095	7.38
298.229	20.38
298.362	6.38
298.495	-6.62
298.629	6.38
298.762	12.38
298.896	1.38
299.029	-9.62
299.162	3.38
299.296	11.38
299.429	4.38
299.563	16.38
299.696	14.38
299.829	19.38
299.963	25.38
300.096	11.38
300.229	12.38
300.363	11.38
300.496	17.38
300.629	0.38
300.763	-2.62
300.896	-14.62
301.029	15.38
301.162	15.38
301.296	-3.62
301.429	14.38
301.562	-7.62
301.695	22.38
301.829	-7.62
301.962	29.38
302.095	9.38
302.228	4.38
302.362	3.38
302.495	0.38
302.628	3.38
302.761	10.38
302.894	3.38
303.027	20.38
303.161	2.38
303.294	-9.62
303.427	22.38
303.56	3.38
303.693	9.38
303.826	-10.62
303.959	8.38
304.092	1.38
304.225	-6.62
304.359	5.38
304.492	-4.62
304.625	12.38
304.758	13.38
304.891	-1.62
305.024	4.38
305.157	-2.62
305.29	-10.62
305.423	-2.62
305.556	17.38
305.689	27.38
305.822	2.38
305.955	-13.62
306.088	-1.62
306.221	14.38
306.354	-8.62
306.487	-0.62
306.62	-2.62
306.752	20.38
306.885	15.38
307.018	0.38
307.151	17.38
307.284	10.38
307.417	-5.62
307.55	5.38
307.683	16.38
307.816	29.38
307.948	13.38
308.081	7.38
308.214	10.38
308.347	35.38
308.48	-1.62
308.613	-15.62
308.745	16.38
308.878	14.38
309.011	17.38
309.144	2.38
309.277	-2.62
309.409	25.38
309.542	20.38
309.675	18.38
309.808	11.38
309.94	9.38
310.073	5.38
310.206	9.38
310.339	6.38
310.471	-3.62
310.604	28.38
310.737	-2.62
310.869	2.38
311.002	-0.62
311.135	9.38
311.267	-20.62
311.4	14.38
311.533	33.38
311.665	-0.62
311.798	7.38
311.93	20.38
312.063	28.38
312.196	45.38
312.328	74.38
312.461	53.38
312.593	18.38
312.726	51.38
312.859	115.38
312.991	176.38
313.124	62.38
313.256	26.38
313.389	1.38
313.521	10.38
313.654	8.38
313.786	-0.62
313.919	-2.62
314.051	-7.62
314.184	21.38
314.316	18.38
314.449	-13.62
314.581	3.38
314.714	11.38
314.846	11.38
314.978	-24.62
315.111	-4.62
315.243	4.38
315.376	20.38
315.508	21.38
315.641	5.38
315.773	18.38
315.905	17.38
316.038	-17.62
316.17	15.38
316.302	15.38
316.435	13.38
316.567	14.38
316.699	28.38
316.832	5.38
316.964	8.38
317.096	-18.62
317.229	-10.62
317.361	-15.62
317.493	5.38
317.625	-5.62
317.758	18.38
317.89	28.38
318.022	32.38
318.155	2.38
318.287	3.38
318.419	-6.62
318.551	8.38
318.683	0.38
318.816	-7.62
318.948	16.38
319.08	-13.62
319.212	8.38
319.344	24.38
319.477	5.38
319.609	25.38
319.741	32.38
319.873	-5.62
320.005	8.38
320.137	-9.62
320.269	25.38
320.401	1.38
320.534	-3.62
320.666	-12.62
320.798	-0.62
320.93	2.38
321.062	-7.62
321.194	1.38
321.326	11.38
321.458	9.38
321.59	20.38
321.722	2.38
321.854	-11.62
321.986	12.38
322.118	10.38
322.25	-8.62
322.382	31.38
322.514	-3.62
322.646	-2.62
322.778	16.38
322.91	10.38
323.042	-3.62
323.174	0.38
323.306	-3.62
323.438	-9.62
323.57	17.38
323.702	-1.62
323.834	3.38
323.966	-9.62
324.097	-8.62
324.229	18.38
324.361	17.38
324.493	6.38
324.625	-5.62
324.757	13.38
324.889	-8.62
325.021	8.38
325.152	17.38
325.284	1.38
325.416	-10.62
325.548	23.38
325.68	11.38
325.811	34.38
325.943	16.38
326.075	-0.62
326.207	18.38
326.339	7.38
326.47	5.38
326.602	17.38
326.734	29.38
326.866	31.38
326.997	-13.62
327.129	-10.62
327.261	5.38
327.392	2.38
327.524	4.38
327.656	-6.62
327.787	14.38
327.919	15.38
328.051	18.38
328.182	22.38
328.314	32.38
328.446	15.38
328.577	29.38
328.709	21.38
328.841	-15.62
328.972	0.38
329.104	-5.62
329.235	-4.62
329.367	1.38
329.499	-2.62
329.63	19.38
329.762	12.38
329.893	20.38
330.025	10.38
330.156	0.38
330.288	10.38
330.419	18.38
330.551	19.38
330.683	35.38
330.814	7.38
330.946	21.38
331.077	-0.62
331.208	0.38
331.34	9.38
331.471	-3.62
331.603	-4.62
331.734	-15.62
331.866	4.38
331.997	21.38
332.129	19.38
332.26	13.38
332.392	25.38
332.523	2.38
332.654	5.38
332.786	-13.62
332.917	11.38
333.048	-3.62
333.18	14.38
333.311	17.38
333.443	13.38
333.574	22.38
333.705	46.38
333.837	50.38
333.968	124.38
334.099	227.38
334.231	201.38
334.362	70.38
334.493	36.38
334.624	35.38
334.756	16.38
334.887	19.38
335.018	19.38
335.15	28.38
335.281	23.38
335.412	27.38
335.543	16.38
335.675	10.38
335.806	2.38
335.937	7.38
336.068	12.38
336.199	25.38
336.331	-2.62
336.462	3.38
336.593	22.38
336.724	-9.62
336.855	0.38
336.986	15.38
337.118	23.38
337.249	21.38
337.38	14.38
337.511	-0.62
337.642	16.38
337.773	7.38
337.904	0.38
338.035	7.38
338.166	-10.62
338.298	28.38
338.429	-5.62
338.56	16.38
338.691	12.38
338.822	17.38
338.953	26.38
339.084	32.38
339.215	25.38
339.346	0.38
339.477	14.38
339.608	14.38
339.739	-4.62
339.87	-0.62
340.001	9.38
340.132	26.38
340.263	18.38
340.394	22.38
340.525	8.38
340.656	-6.62
340.787	15.38
340.918	45.38
341.049	15.38
341.179	14.38
341.31	17.38
341.441	14.38
341.572	11.38
341.703	20.38
341.834	4.38
341.965	18.38
342.096	-3.62
342.227	26.38
342.357	13.38
342.488	23.38
342.619	22.38
342.75	23.38
342.881	0.38
343.012	12.38
343.142	33.38
343.273	5.38
343.404	26.38
343.535	52.38
343.666	43.38
343.796	24.38
343.927	22.38
344.058	26.38
344.189	45.38
344.319	34.38
344.45	28.38
344.581	10.38
344.712	4.38
344.842	23.38
344.973	20.38
345.104	29.38
345.234	28.38
345.365	19.38
345.496	28.38
345.626	32.38
345.757	45.38
345.888	15.38
346.018	35.38
346.149	29.38
346.28	45.38
346.41	31.38
346.541	46.38
346.672	28.38
346.802	19.38
346.933	27.38
347.063	14.38
347.194	41.38
347.325	24.38
347.455	46.38
347.586	32.38
347.716	43.38
347.847	48.38
347.977	51.38
348.108	37.38
348.238	57.38
348.369	38.38
348.499	48.38
348.63	51.38
348.76	54.38
348.891	42.38
349.021	51.38
349.152	60.38
349.282	56.38
349.413	32.38
349.543	64.38
349.674	38.38
349.804	52.38
349.935	31.38
350.065	24.38
350.196	18.38
350.326	31.38
350.456	3.38
350.587	34.38
350.717	18.38
350.848	31.38
350.978	39.38
351.108	5.38
351.239	30.38
351.369	29.38
351.499	40.38
351.63	21.38
351.76	30.38
351.89	24.38
352.021	29.38
352.151	42.38
352.281	24.38
352.412	35.38
352.542	29.38
352.672	19.38
352.803	24.38
352.933	30.38
353.063	43.38
353.193	22.38
353.324	24.38
353.454	39.38
353.584	53.38
353.714	17.38
353.845	24.38
353.975	7.38
354.105	23.38
354.235	32.38
354.365	24.38
354.496	37.38
354.626	37.38
354.756	40.38
354.886	21.38
355.016	26.38
355.146	22.38
355.277	17.38
355.407	30.38
355.537	22.38
355.667	38.38
355.797	29.38
355.927	31.38
356.057	35.38
356.187	32.38
356.318	25.38
356.448	30.38
356.578	30.38
356.708	36.38
356.838	28.38
356.968	24.38
357.098	20.38
357.228	23.38
357.358	29.38
357.488	23.38
357.618	54.38
357.748	44.38
357.878	39.38
358.008	36.38
358.138	21.38
358.268	22.38
358.398	49.38
358.528	15.38
358.658	30.38
358.788	32.38
358.918	29.38
359.048	40.38
359.178	40.38
359.308	47.38
359.438	46.38
359.568	44.38
359.698	37.38
359.827	29.38
359.957	34.38
360.087	28.38
360.217	18.38
360.347	23.38
360.477	36.38
360.607	25.38
360.737	36.38
360.866	36.38
360.996	18.38
361.126	12.38
361.256	38.38
361.386	45.38
361.516	35.38
361.645	19.38
361.775	37.38
361.905	12.38
362.035	50.38
362.165	50.38
362.294	60.38
362.424	66.38
362.554	55.38
362.684	34.38
362.813	41.38
362.943	47.38
363.073	59.38
363.203	64.38
363.332	58.38
363.462	87.38
363.592	117.38
363.721	136.38
363.851	161.38
363.981	201.38
364.111	247.38
364.24	330.38
364.37	510.38
364.5	851.38
364.629	1837.38
364.759	3893.38
364.888	6362.38
365.018	9523.38
365.148	14882.38
365.277	13193.38
365.407	4854.38
365.537	3177.38
365.666	4120.38
365.796	1877.38
365.925	842.38
366.055	776.38
366.184	1090.38
366.314	1451.38
366.444	2529.38
366.573	2174.38
366.703	670.38
366.832	218.38
366.962	117.38
367.091	92.38
367.221	91.38
367.35	60.38
367.48	98.38
367.609	46.38
367.739	57.38
367.868	40.38
367.998	57.38
368.127	46.38
368.257	69.38
368.386	52.38
368.516	48.38
368.645	33.38
368.775	70.38
368.904	35.38
369.033	37.38
369.163	17.38
369.292	60.38
369.422	38.38
369.551	61.38
369.68	53.38
369.81	59.38
369.939	35.38
370.069	63.38
370.198	52.38
370.327	36.38
370.457	38.38
370.586	34.38
370.715	36.38
370.845	37.38
370.974	36.38
371.103	41.38
371.233	65.38
371.362	54.38
371.491	38.38
371.621	64.38
371.75	42.38
371.879	45.38
372.008	59.38
372.138	58.38
372.267	81.38
372.396	56.38
372.525	52.38
372.655	38.38
372.784	32.38
372.913	27.38
373.042	42.38
373.172	55.38
373.301	10.38
373.43	-2.62
373.559	16.38
373.688	37.38
373.818	29.38
373.947	28.38
374.076	23.38
374.205	27.38
374.334	24.38
374.463	-3.62
374.593	20.38
374.722	40.38
374.851	21.38
374.98	14.38
375.109	25.38
375.238	36.38
375.367	22.38
375.496	9.38
375.625	8.38
375.755	15.38
375.884	40.38
376.013	43.38
376.142	24.38
376.271	29.38
376.4	18.38
376.529	24.38
376.658	33.38
376.787	22.38
376.916	37.38
377.045	21.38
377.174	29.38
377.303	41.38
377.432	40.38
377.561	33.38
377.69	14.38
377.819	35.38
377.948	19.38
378.077	27.38
378.206	-1.62
378.335	17.38
378.464	14.38
378.593	28.38
378.722	3.38
378.851	26.38
378.98	31.38
379.108	20.38
379.237	8.38
379.366	20.38
379.495	17.38
379.624	48.38
379.753	6.38
379.882	15.38
380.011	19.38
380.14	10.38
380.268	22.38
380.397	7.38
380.526	34.38
380.655	19.38
380.784	-3.62
380.913	19.38
381.041	14.38
381.17	10.38
381.299	-1.62
381.428	19.38
381.557	39.38
381.685	17.38
381.814	20.38
381.943	25.38
382.072	8.38
382.2	10.38
382.329	16.38
382.458	42.38
382.587	11.38
382.715	30.38
382.844	26.38
382.973	19.38
383.102	19.38
383.23	29.38
383.359	1.38
383.488	30.38
383.616	29.38
383.745	-0.62
383.874	21.38
384.003	23.38
384.131	7.38
384.26	13.38
384.389	44.38
384.517	22.38
384.646	17.38
384.774	33.38
384.903	63.38
385.032	58.38
385.16	19.38
385.289	5.38
385.418	20.38
385.546	38.38
385.675	42.38
385.803	24.38
385.932	20.38
386.06	13.38
386.189	35.38
386.318	32.38
386.446	12.38
386.575	21.38
386.703	21.38
386.832	33.38
386.96	-0.62
387.089	28.38
387.217	26.38
387.346	24.38
387.474	20.38
387.603	32.38
387.731	37.38
387.86	44.38
387.988	27.38
388.117	44.38
388.245	17.38
388.374	2.38
388.502	45.38
388.631	2.38
388.759	16.38
388.888	40.38
389.016	37.38
389.144	20.38
389.273	22.38
389.401	17.38
389.53	12.38
389.658	61.38
389.786	20.38
389.915	8.38
390.043	13.38
390.172	26.38
390.3	45.38
390.428	36.38
390.557	21.38
390.685	43.38
390.813	40.38
390.942	43.38
391.07	37.38
391.198	22.38
391.327	6.38
391.455	0.38
391.583	47.38
391.712	35.38
391.84	20.38
391.968	26.38
392.096	24.38
392.225	26.38
392.353	34.38
392.481	22.38
392.609	52.38
392.738	32.38
392.866	41.38
392.994	17.38
393.122	31.38
393.251	32.38
393.379	31.38
393.507	24.38
393.635	29.38
393.764	19.38
393.892	29.38
394.02	39.38
394.148	20.38
394.276	37.38
394.404	38.38
394.533	22.38
394.661	34.38
394.789	50.38
394.917	37.38
395.045	14.38
395.173	26.38
395.302	12.38
395.43	29.38
395.558	40.38
395.686	45.38
395.814	38.38
395.942	36.38
396.07	50.38
396.198	40.38
396.326	34.38
396.454	45.38
396.582	32.38
396.711	28.38
396.839	32.38
396.967	33.38
397.095	26.38
397.223	41.38
397.351	66.38
397.479	46.38
397.607	41.38
397.735	44.38
397.863	56.38
397.991	45.38
398.119	25.38
398.247	33.38
398.375	48.38
398.503	42.38
398.631	64.38
398.759	49.38
398.887	43.38
399.015	50.38
399.143	59.38
399.271	65.38
399.399	85.38
399.526	83.38
399.654	71.38
399.782	67.38
399.91	109.38
400.038	104.38
400.166	83.38
400.294	86.38
400.422	76.38
400.55	93.38
400.678	110.38
400.805	110.38
400.933	103.38
401.061	144.38
401.189	125.38
401.317	130.38
401.445	120.38
401.573	83.38
401.7	57.38
401.828	55.38
401.956	56.38
402.084	62.38
402.212	47.38
402.34	33.38
402.467	48.38
402.595	33.38
402.723	46.38
402.851	71.38
402.978	59.38
403.106	96.38
403.234	99.38
403.362	120.38
403.489	134.38
403.617	166.38
403.745	206.38
403.873	285.38
404	574.38
404.128	1517.38
404.256	3958.38
404.384	5126.38
404.511	5520.38
404.639	7245.38
404.767	11571.38
404.894	14748.38
405.022	4976.38
405.15	1338.38
405.277	442.38
405.405	242.38
405.533	130.38
405.66	113.38
405.788	64.38
405.916	64.38
406.043	38.38
406.171	55.38
406.299	67.38
406.426	65.38
406.554	68.38
406.681	78.38
406.809	55.38
406.937	55.38
407.064	50.38
407.192	137.38
407.319	306.38
407.447	548.38
407.574	536.38
407.702	640.38
407.83	871.38
407.957	1609.38
408.085	958.38
408.212	292.38
408.34	102.38
408.467	81.38
408.595	56.38
408.722	53.38
408.85	55.38
408.977	39.38
409.105	29.38
409.232	34.38
409.36	22.38
409.487	51.38
409.615	40.38
409.742	25.38
409.87	26.38
409.997	58.38
410.125	51.38
410.252	54.38
410.379	39.38
410.507	51.38
410.634	34.38
410.762	28.38
410.889	40.38
411.017	32.38
411.144	35.38
411.271	29.38
411.399	36.38
411.526	44.38
411.653	39.38
411.781	41.38
411.908	39.38
412.036	32.38
412.163	58.38
412.29	40.38
412.418	46.38
412.545	43.38
412.672	21.38
412.8	46.38
412.927	41.38
413.054	67.38
413.182	22.38
413.309	34.38
413.436	27.38
413.564	18.38
413.691	28.38
413.818	45.38
413.945	16.38
414.073	16.38
414.2	26.38
414.327	45.38
414.454	34.38
414.582	29.38
414.709	22.38
414.836	21.38
414.963	21.38
415.091	51.38
415.218	27.38
415.345	27.38
415.472	39.38
415.6	30.38
415.727	26.38
415.854	46.38
415.981	26.38
416.108	29.38
416.236	30.38
416.363	35.38
416.49	34.38
416.617	20.38
416.744	23.38
416.871	42.38
416.998	24.38
417.126	27.38
417.253	19.38
417.38	50.38
417.507	50.38
417.634	15.38
417.761	28.38
417.888	30.38
418.015	36.38
418.143	30.38
418.27	40.38
418.397	39.38
418.524	57.38
418.651	40.38
418.778	40.38
418.905	56.38
419.032	51.38
419.159	59.38
419.286	66.38
419.413	54.38
419.54	52.38
419.667	45.38
419.794	37.38
419.921	46.38
420.048	49.38
420.175	55.38
420.302	58.38
420.429	55.38
420.556	49.38
420.683	63.38
420.81	59.38
420.937	76.38
421.064	75.38
421.191	72.38
421.318	82.38
421.445	80.38
421.572	57.38
421.699	43.38
421.826	47.38
421.953	39.38
422.08	31.38
422.207	19.38
422.334	10.38
422.461	41.38
422.588	15.38
422.714	28.38
422.841	32.38
422.968	31.38
423.095	15.38
423.222	27.38
423.349	25.38
423.476	30.38
423.603	17.38
423.729	5.38
423.856	20.38
423.983	35.38
424.11	17.38
424.237	23.38
424.364	32.38
424.491	36.38
424.617	10.38
424.744	26.38
424.871	27.38
424.998	25.38
425.125	17.38
425.251	31.38
425.378	23.38
425.505	12.38
425.632	14.38
425.758	25.38
425.885	28.38
426.012	35.38
426.139	36.38
426.266	35.38
426.392	17.38
426.519	40.38
426.646	29.38
426.772	31.38
426.899	25.38
427.026	37.38
427.153	29.38
427.279	23.38
427.406	29.38
427.533	10.38
427.659	20.38
427.786	28.38
427.913	44.38
428.039	18.38
428.166	27.38
428.293	17.38
428.419	40.38
428.546	33.38
428.673	12.38
428.799	14.38
428.926	24.38
429.053	50.38
429.179	31.38
429.306	36.38
429.433	42.38
429.559	19.38
429.686	13.38
429.812	31.38
429.939	29.38
430.066	33.38
430.192	11.38
430.319	50.38
430.445	29.38
430.572	26.38
430.699	17.38
430.825	18.38
430.952	22.38
431.078	29.38
431.205	30.38
431.331	30.38
431.458	37.38
431.584	42.38
431.711	30.38
431.837	35.38
431.964	34.38
432.09	30.38
432.217	14.38
432.343	9.38
432.47	46.38
432.596	30.38
432.723	32.38
432.849	28.38
432.976	35.38
433.102	44.38
433.229	41.38
433.355	59.38
433.482	94.38
433.608	98.38
433.735	100.38
433.861	97.38
433.987	165.38
434.114	218.38
434.24	184.38
434.367	214.38
434.493	224.38
434.62	289.38
434.746	395.38
434.872	641.38
434.999	870.38
435.125	1763.38
435.252	5549.38
435.378	13472.38
435.504	15256.38
435.631	15468.38
435.757	15687.38
435.883	15687.38
436.01	15687.38
436.136	15687.38
436.262	15687.38
436.389	3541.38
436.515	2589.38
436.641	882.38
436.768	667.38
436.894	389.38
437.02	412.38
437.147	294.38
437.273	308.38
437.399	221.38
437.526	237.38
437.652	176.38
437.778	224.38
437.904	147.38
438.031	184.38
438.157	146.38
438.283	166.38
438.409	114.38
438.536	137.38
438.662	130.38
438.788	117.38
438.914	120.38
439.041	136.38
439.167	123.38
439.293	114.38
439.419	103.38
439.546	117.38
439.672	86.38
439.798	99.38
439.924	96.38
440.05	97.38
440.177	64.38
440.303	93.38
440.429	58.38
440.555	82.38
440.681	58.38
440.807	72.38
440.934	72.38
441.06	83.38
441.186	46.38
441.312	53.38
441.438	70.38
441.564	85.38
441.69	85.38
441.816	48.38
441.943	53.38
442.069	60.38
442.195	58.38
442.321	79.38
442.447	36.38
442.573	35.38
442.699	37.38
442.825	43.38
442.951	52.38
443.077	89.38
443.203	56.38
443.33	31.38
443.456	22.38
443.582	72.38
443.708	36.38
443.834	53.38
443.96	43.38
444.086	40.38
444.212	55.38
444.338	54.38
444.464	44.38
444.59	63.38
444.716	37.38
444.842	67.38
444.968	37.38
445.094	38.38
445.22	27.38
445.346	38.38
445.472	37.38
445.598	45.38
445.724	25.38
445.85	43.38
445.976	33.38
446.102	42.38
446.228	51.38
446.354	50.38
446.48	21.38
446.605	22.38
446.731	49.38
446.857	49.38
446.983	44.38
447.109	24.38
447.235	26.38
447.361	34.38
447.487	34.38
447.613	43.38
447.739	22.38
447.865	29.38
447.99	44.38
448.116	18.38
448.242	25.38
448.368	41.38
448.494	14.38
448.62	44.38
448.746	29.38
448.872	40.38
448.997	18.38
449.123	42.38
449.249	43.38
449.375	42.38
449.501	24.38
449.627	0.38
449.752	62.38
449.878	39.38
450.004	27.38
450.13	32.38
450.256	22.38
450.381	37.38
450.507	25.38
450.633	17.38
450.759	39.38
450.884	8.38
451.01	34.38
451.136	17.38
451.262	28.38
451.388	25.38
451.513	22.38
451.639	25.38
451.765	38.38
451.89	40.38
452.016	30.38
452.142	34.38
452.268	11.38
452.393	26.38
452.519	11.38
452.645	35.38
452.771	36.38
452.896	24.38
453.022	11.38
453.148	37.38
453.273	24.38
453.399	34.38
453.525	21.38
453.65	29.38
453.776	44.38
453.902	30.38
454.027	42.38
454.153	38.38
454.279	29.38
454.404	26.38
454.53	49.38
454.656	28.38
454.781	29.38
454.907	36.38
455.032	35.38
455.158	31.38
455.284	40.38
455.409	25.38
455.535	35.38
455.66	36.38
455.786	36.38
455.912	44.38
456.037	19.38
456.163	41.38
456.288	44.38
456.414	7.38
456.539	9.38
456.665	43.38
456.791	32.38
456.916	29.38
457.042	49.38
457.167	32.38
457.293	29.38
457.418	46.38
457.544	25.38
457.669	19.38
457.795	21.38
457.92	49.38
458.046	26.38
458.171	22.38
458.297	12.38
458.422	14.38
458.548	20.38
458.673	14.38
458.799	21.38
458.924	35.38
459.05	25.38
459.175	20.38
459.301	29.38
459.426	41.38
459.552	19.38
459.677	15.38
459.803	41.38
459.928	44.38
460.053	29.38
460.179	22.38
460.304	39.38
460.43	24.38
460.555	31.38
460.681	26.38
460.806	15.38
460.931	48.38
461.057	52.38
461.182	36.38
461.308	40.38
461.433	35.38
461.558	23.38
461.684	53.38
461.809	45.38
461.934	34.38
462.06	30.38
462.185	22.38
462.311	28.38
462.436	37.38
462.561	23.38
462.687	30.38
462.812	23.38
462.937	31.38
463.063	5.38
463.188	14.38
463.313	48.38
463.439	36.38
463.564	27.38
463.689	21.38
463.814	36.38
463.94	37.38
464.065	38.38
464.19	43.38
464.316	15.38
464.441	18.38
464.566	29.38
464.692	21.38
464.817	20.38
464.942	14.38
465.067	28.38
465.193	14.38
465.318	24.38
465.443	16.38
465.568	17.38
465.694	24.38
465.819	55.38
465.944	46.38
466.069	25.38
466.194	35.38
466.32	16.38
466.445	25.38
466.57	37.38
466.695	40.38
466.82	33.38
466.946	30.38
467.071	39.38
467.196	29.38
467.321	50.38
467.446	45.38
467.572	40.38
467.697	22.38
467.822	33.38
467.947	46.38
468.072	37.38
468.197	38.38
468.323	22.38
468.448	38.38
468.573	33.38
468.698	29.38
468.823	34.38
468.948	35.38
469.073	31.38
469.198	26.38
469.324	52.38
469.449	56.38
469.574	66.38
469.699	60.38
469.824	45.38
469.949	21.38
470.074	30.38
470.199	63.38
470.324	47.38
470.449	47.38
470.574	25.38
470.7	28.38
470.825	40.38
470.95	54.38
471.075	28.38
471.2	54.38
471.325	68.38
471.45	45.38
471.575	14.38
471.7	39.38
471.825	19.38
471.95	13.38
472.075	29.38
472.2	36.38
472.325	44.38
472.45	21.38
472.575	34.38
472.7	25.38
472.825	39.38
472.95	52.38
473.075	57.38
473.2	35.38
473.325	48.38
473.45	54.38
473.575	38.38
473.7	50.38
473.825	36.38
473.95	23.38
474.075	45.38
474.2	37.38
474.325	20.38
474.45	42.38
474.574	20.38
474.699	37.38
474.824	29.38
474.949	15.38
475.074	14.38
475.199	44.38
475.324	27.38
475.449	24.38
475.574	14.38
475.699	33.38
475.824	26.38
475.949	22.38
476.073	42.38
476.198	24.38
476.323	17.38
476.448	28.38
476.573	27.38
476.698	27.38
476.823	25.38
476.947	30.38
477.072	31.38
477.197	10.38
477.322	27.38
477.447	-1.62
477.572	19.38
477.697	12.38
477.821	12.38
477.946	20.38
478.071	28.38
478.196	28.38
478.321	13.38
478.445	6.38
478.57	17.38
478.695	21.38
478.82	30.38
478.945	19.38
479.069	16.38
479.194	27.38
479.319	39.38
479.444	26.38
479.569	35.38
479.693	24.38
479.818	35.38
479.943	13.38
480.068	38.38
480.192	31.38
480.317	40.38
480.442	26.38
480.567	17.38
480.691	27.38
480.816	23.38
480.941	9.38
481.066	37.38
481.19	34.38
481.315	20.38
481.44	8.38
481.564	5.38
481.689	27.38
481.814	16.38
481.938	21.38
482.063	9.38
482.188	14.38
482.313	28.38
482.437	11.38
482.562	18.38
482.687	28.38
482.811	39.38
482.936	23.38
483.061	20.38
483.185	6.38
483.31	38.38
483.435	18.38
483.559	16.38
483.684	15.38
483.808	37.38
483.933	29.38
484.058	32.38
484.182	42.38
484.307	12.38
484.432	16.38
484.556	19.38
484.681	18.38
484.805	30.38
484.93	34.38
485.055	34.38
485.179	49.38
485.304	40.38
485.428	42.38
485.553	18.38
485.678	21.38
485.802	21.38
485.927	31.38
486.051	42.38
486.176	18.38
486.3	24.38
486.425	16.38
486.549	36.38
486.674	17.38
486.799	41.38
486.923	10.38
487.048	14.38
487.172	18.38
487.297	20.38
487.421	32.38
487.546	35.38
487.67	33.38
487.795	8.38
487.919	0.38
488.044	34.38
488.168	39.38
488.293	32.38
488.417	25.38
488.542	20.38
488.666	15.38
488.791	21.38
488.915	24.38
489.04	28.38
489.164	34.38
489.289	53.38
489.413	18.38
489.538	30.38
489.662	21.38
489.786	27.38
489.911	29.38
490.035	8.38
490.16	2.38
490.284	9.38
490.409	-1.62
490.533	17.38
490.658	35.38
490.782	43.38
490.906	64.38
491.031	124.38
491.155	152.38
491.28	158.38
491.404	150.38
491.528	273.38
491.653	172.38
491.777	78.38
491.902	41.38
492.026	42.38
492.15	32.38
492.275	36.38
492.399	44.38
492.524	24.38
492.648	39.38
492.772	25.38
492.897	36.38
493.021	21.38
493.145	36.38
493.27	30.38
493.394	20.38
493.518	11.38
493.643	25.38
493.767	31.38
493.891	17.38
494.016	32.38
494.14	24.38
494.264	19.38
494.389	40.38
494.513	23.38
494.637	12.38
494.762	41.38
494.886	44.38
495.01	11.38
495.134	33.38
495.259	38.38
495.383	9.38
495.507	30.38
495.632	50.38
495.756	27.38
495.88	36.38
496.004	31.38
496.129	31.38
496.253	41.38
496.377	20.38
496.501	17.38
496.626	17.38
496.75	16.38
496.874	33.38
496.998	13.38
497.123	28.38
497.247	20.38
497.371	15.38
497.495	14.38
497.62	15.38
497.744	10.38
497.868	27.38
497.992	26.38
498.116	13.38
498.241	24.38
498.365	24.38
498.489	21.38
498.613	33.38
498.737	26.38
498.862	17.38
498.986	20.38
499.11	26.38
499.234	25.38
499.358	21.38
499.482	19.38
499.607	12.38
499.731	27.38
499.855	37.38
499.979	15.38
500.103	39.38
500.227	38.38
500.351	30.38
500.476	21.38
500.6	34.38
500.724	25.38
500.848	27.38
500.972	34.38
501.096	24.38
501.22	43.38
501.344	18.38
501.469	20.38
501.593	22.38
501.717	25.38
501.841	18.38
501.965	25.38
502.089	16.38
502.213	34.38
502.337	17.38
502.461	12.38
502.585	20.38
502.709	13.38
502.834	23.38
502.958	32.38
503.082	29.38
503.206	19.38
503.33	31.38
503.454	34.38
503.578	46.38
503.702	56.38
503.826	33.38
503.95	46.38
504.074	20.38
504.198	18.38
504.322	22.38
504.446	13.38
504.57	27.38
504.694	34.38
504.818	18.38
504.942	37.38
505.066	22.38
505.19	36.38
505.314	40.38
505.438	41.38
505.562	22.38
505.686	36.38
505.81	32.38
505.934	37.38
506.058	32.38
506.182	29.38
506.306	28.38
506.43	23.38
506.554	29.38
506.678	24.38
506.802	30.38
506.926	25.38
507.05	34.38
507.174	45.38
507.298	28.38
507.422	28.38
507.546	35.38
507.67	21.38
507.794	-4.62
507.918	18.38
508.042	35.38
508.165	31.38
508.289	21.38
508.413	15.38
508.537	29.38
508.661	33.38
508.785	23.38
508.909	17.38
509.033	27.38
509.157	29.38
509.281	34.38
509.405	28.38
509.528	64.38
509.652	55.38
509.776	31.38
509.9	40.38
510.024	38.38
510.148	45.38
510.272	52.38
510.396	48.38
510.519	26.38
510.643	37.38
510.767	45.38
510.891	35.38
511.015	48.38
511.139	57.38
511.263	66.38
511.386	37.38
511.51	35.38
511.634	28.38
511.758	22.38
511.882	19.38
512.006	60.38
512.129	55.38
512.253	94.38
512.377	84.38
512.501	81.38
512.625	77.38
512.748	89.38
512.872	75.38
512.996	56.38
513.12	68.38
513.244	48.38
513.367	65.38
513.491	78.38
513.615	83.38
513.739	83.38
513.862	57.38
513.986	111.38
514.11	92.38
514.234	90.38
514.358	108.38
514.481	133.38
514.605	108.38
514.729	112.38
514.853	113.38
514.976	98.38
515.1	101.38
515.224	109.38
515.348	96.38
515.471	87.38
515.595	103.38
515.719	140.38
515.842	227.38
515.966	270.38
516.09	297.38
516.214	304.38
516.337	322.38
516.461	246.38
516.585	110.38
516.708	58.38
516.832	36.38
516.956	6.38
517.08	39.38
517.203	-2.62
517.327	15.38
517.451	49.38
517.574	38.38
517.698	21.38
517.822	21.38
517.945	30.38
518.069	37.38
518.193	51.38
518.316	51.38
518.44	33.38
518.564	11.38
518.687	19.38
518.811	22.38
518.935	43.38
519.058	30.38
519.182	11.38
519.306	18.38
519.429	17.38
519.553	49.38
519.676	28.38
519.8	25.38
519.924	7.38
520.047	14.38
520.171	21.38
520.294	36.38
520.418	36.38
520.542	37.38
520.665	33.38
520.789	28.38
520.913	13.38
521.036	-4.62
521.16	20.38
521.283	-0.62
521.407	18.38
521.53	8.38
521.654	-2.62
521.778	26.38
521.901	15.38
522.025	-0.62
522.148	4.38
522.272	24.38
522.395	12.38
522.519	37.38
522.643	3.38
522.766	10.38
522.89	21.38
523.013	34.38
523.137	25.38
523.26	26.38
523.384	36.38
523.507	31.38
523.631	24.38
523.754	17.38
523.878	18.38
524.002	22.38
524.125	18.38
524.249	11.38
524.372	33.38
524.496	13.38
524.619	30.38
524.743	22.38
524.866	14.38
524.99	10.38
525.113	10.38
525.237	33.38
525.36	9.38
525.484	22.38
525.607	17.38
525.731	8.38
525.854	32.38
525.978	39.38
526.101	25.38
526.224	28.38
526.348	18.38
526.471	28.38
526.595	20.38
526.718	1.38
526.842	4.38
526.965	15.38
527.089	28.38
527.212	33.38
527.336	8.38
527.459	22.38
527.582	28.38
527.706	29.38
527.829	48.38
527.953	26.38
528.076	5.38
528.2	9.38
528.323	34.38
528.446	21.38
528.57	20.38
528.693	25.38
528.817	15.38
528.94	23.38
529.064	43.38
529.187	22.38
529.31	34.38
529.434	19.38
529.557	15.38
529.68	13.38
529.804	25.38
529.927	22.38
530.051	11.38
530.174	5.38
530.297	10.38
530.421	31.38
530.544	43.38
530.668	24.38
530.791	10.38
530.914	40.38
531.038	28.38
531.161	20.38
531.284	46.38
531.408	17.38
531.531	22.38
531.654	13.38
531.778	31.38
531.901	14.38
532.024	32.38
532.148	13.38
532.271	16.38
532.394	-7.62
532.518	16.38
532.641	13.38
532.764	16.38
532.888	16.38
533.011	6.38
533.134	-2.62
533.258	48.38
533.381	10.38
533.504	12.38
533.628	26.38
533.751	23.38
533.874	33.38
533.997	9.38
534.121	18.38
534.244	19.38
534.367	28.38
534.491	32.38
534.614	26.38
534.737	34.38
534.86	33.38
534.984	16.38
535.107	22.38
535.23	25.38
535.354	25.38
535.477	17.38
535.6	22.38
535.723	25.38
535.847	24.38
535.97	-1.62
536.093	24.38
536.216	-2.62
536.34	17.38
536.463	24.38
536.586	33.38
536.709	24.38
536.833	24.38
536.956	16.38
537.079	30.38
537.202	33.38
537.325	31.38
537.449	18.38
537.572	22.38
537.695	12.38
537.818	21.38
537.941	17.38
538.065	29.38
538.188	2.38
538.311	16.38
538.434	37.38
538.558	40.38
538.681	24.38
538.804	36.38
538.927	24.38
539.05	27.38
539.173	27.38
539.297	40.38
539.42	25.38
539.543	24.38
539.666	36.38
539.789	37.38
539.913	28.38
540.036	36.38
540.159	22.38
540.282	24.38
540.405	9.38
540.528	14.38
540.651	38.38
540.775	19.38
540.898	13.38
541.021	19.38
541.144	30.38
541.267	49.38
541.39	36.38
541.513	33.38
541.637	37.38
541.76	30.38
541.883	26.38
542.006	43.38
542.129	49.38
542.252	24.38
542.375	43.38
542.498	50.38
542.622	51.38
542.745	55.38
542.868	56.38
542.991	60.38
543.114	62.38
543.237	72.38
543.36	67.38
543.483	62.38
543.606	71.38
543.73	82.38
543.853	82.38
543.976	85.38
544.099	110.38
544.222	124.38
544.345	143.38
544.468	152.38
544.591	212.38
544.714	271.38
544.837	368.38
544.96	455.38
545.083	695.38
545.206	1086.38
545.329	2461.38
545.453	11066.38
545.576	15274.38
545.699	15687.38
545.822	15687.38
545.945	15687.38
546.068	15687.38
546.191	15687.38
546.314	15687.38
546.437	15687.38
546.56	15687.38
546.683	15687.38
546.806	15687.38
546.929	15687.38
547.052	15687.38
547.175	15687.38
547.298	15687.38
547.421	15687.38
547.544	15687.38
547.667	4021.38
547.79	4334.38
547.913	1363.38
548.036	991.38
548.159	687.38
548.282	657.38
548.405	499.38
548.528	518.38
548.651	423.38
548.774	409.38
548.897	348.38
549.02	388.38
549.143	333.38
549.266	300.38
549.389	272.38
549.512	262.38
549.635	255.38
549.758	280.38
549.881	229.38
550.004	216.38
550.127	184.38
550.25	211.38
550.373	168.38
550.496	194.38
550.619	155.38
550.742	163.38
550.865	132.38
550.988	163.38
551.111	143.38
551.234	157.38
551.356	133.38
551.479	131.38
551.602	133.38
551.725	143.38
551.848	153.38
551.971	139.38
552.094	123.38
552.217	112.38
552.34	106.38
552.463	113.38
552.586	117.38
552.709	108.38
552.832	135.38
552.955	113.38
553.077	98.38
553.2	121.38
553.323	95.38
553.446	100.38
553.569	105.38
553.692	100.38
553.815	105.38
553.938	110.38
554.061	115.38
554.184	92.38
554.306	98.38
554.429	69.38
554.552	84.38
554.675	82.38
554.798	85.38
554.921	87.38
555.044	71.38
555.167	78.38
555.29	86.38
555.412	78.38
555.535	77.38
555.658	59.38
555.781	80.38
555.904	70.38
556.027	84.38
556.15	68.38
556.272	81.38
556.395	88.38
556.518	77.38
556.641	64.38
556.764	84.38
556.887	84.38
557.01	67.38
557.132	61.38
557.255	66.38
557.378	74.38
557.501	64.38
557.624	97.38
557.747	69.38
557.869	94.38
557.992	104.38
558.115	107.38
558.238	88.38
558.361	86.38
558.483	101.38
558.606	85.38
558.729	57.38
558.852	87.38
558.975	73.38
559.098	58.38
559.22	73.38
559.343	45.38
559.466	40.38
559.589	46.38
559.712	53.38
559.834	42.38
559.957	43.38
560.08	48.38
560.203	72.38
560.325	64.38
560.448	77.38
560.571	61.38
560.694	56.38
560.817	70.38
560.939	51.38
561.062	56.38
561.185	81.38
561.308	59.38
561.43	56.38
561.553	81.38
561.676	70.38
561.799	76.38
561.921	74.38
562.044	72.38
562.167	57.38
562.29	83.38
562.413	67.38
562.535	70.38
562.658	41.38
562.781	63.38
562.903	63.38
563.026	94.38
563.149	134.38
563.272	126.38
563.394	107.38
563.517	101.38
563.64	71.38
563.763	67.38
563.885	59.38
564.008	65.38
564.131	38.38
564.254	28.38
564.376	32.38
564.499	29.38
564.622	37.38
564.744	41.38
564.867	34.38
564.99	50.38
565.113	60.38
565.235	35.38
565.358	41.38
565.481	12.38
565.603	18.38
565.726	36.38
565.849	42.38
565.971	44.38
566.094	39.38
566.217	37.38
566.34	53.38
566.462	51.38
566.585	48.38
566.708	56.38
566.83	44.38
566.953	72.38
567.076	49.38
567.198	33.38
567.321	22.38
567.444	40.38
567.566	49.38
567.689	29.38
567.812	25.38
567.934	31.38
568.057	40.38
568.18	45.38
568.302	29.38
568.425	27.38
568.548	14.38
568.67	46.38
568.793	43.38
568.916	45.38
569.038	20.38
569.161	41.38
569.283	63.38
569.406	29.38
569.529	30.38
569.651	23.38
569.774	20.38
569.897	16.38
570.019	52.38
570.142	42.38
570.265	30.38
570.387	24.38
570.51	31.38
570.632	48.38
570.755	35.38
570.878	36.38
571	25.38
571.123	52.38
571.246	39.38
571.368	24.38
571.491	39.38
571.613	30.38
571.736	15.38
571.859	38.38
571.981	22.38
572.104	16.38
572.226	48.38
572.349	21.38
572.472	36.38
572.594	42.38
572.717	38.38
572.839	40.38
572.962	28.38
573.085	30.38
573.207	47.38
573.33	46.38
573.452	46.38
573.575	52.38
573.697	33.38
573.82	39.38
573.943	37.38
574.065	48.38
574.188	28.38
574.31	50.38
574.433	60.38
574.555	45.38
574.678	32.38
574.801	54.38
574.923	33.38
575.046	35.38
575.168	41.38
575.291	32.38
575.413	36.38
575.536	31.38
575.659	58.38
575.781	61.38
575.904	53.38
576.026	82.38
576.149	97.38
576.271	144.38
576.394	208.38
576.516	554.38
576.639	3705.38
576.761	10333.38
576.884	8977.38
577.007	8841.38
577.129	8120.38
577.252	3800.38
577.374	1321.38
577.497	530.38
577.619	297.38
577.742	182.38
577.864	163.38
577.987	127.38
578.109	144.38
578.232	130.38
578.354	166.38
578.477	208.38
578.599	409.38
578.722	1974.38
578.844	9192.38
578.967	9957.38
579.089	8959.38
579.212	9235.38
579.334	5342.38
579.457	1929.38
579.579	710.38
579.702	321.38
579.824	217.38
579.947	123.38
580.069	108.38
580.192	92.38
580.314	109.38
580.437	81.38
580.559	99.38
580.682	81.38
580.804	55.38
580.927	67.38
581.049	68.38
581.172	65.38
581.294	62.38
581.417	56.38
581.539	56.38
581.662	50.38
581.784	62.38
581.907	57.38
582.029	52.38
582.152	32.38
582.274	34.38
582.396	30.38
582.519	40.38
582.641	43.38
582.764	45.38
582.886	61.38
583.009	43.38
583.131	32.38
583.254	33.38
583.376	55.38
583.499	40.38
583.621	37.38
583.743	43.38
583.866	35.38
583.988	38.38
584.111	57.38
584.233	35.38
584.356	44.38
584.478	32.38
584.601	32.38
584.723	36.38
584.845	47.38
584.968	29.38
585.09	16.38
585.213	32.38
585.335	17.38
585.458	22.38
585.58	35.38
585.702	33.38
585.825	46.38
585.947	33.38
586.07	18.38
586.192	15.38
586.315	17.38
586.437	13.38
586.559	38.38
586.682	23.38
586.804	33.38
586.927	36.38
587.049	33.38
587.171	37.38
587.294	47.38
587.416	44.38
587.539	35.38
587.661	17.38
587.783	24.38
587.906	40.38
588.028	32.38
588.151	31.38
588.273	39.38
588.395	12.38
588.518	32.38
588.64	31.38
588.763	49.38
588.885	35.38
589.007	44.38
589.13	24.38
589.252	8.38
589.375	41.38
589.497	25.38
589.619	34.38
589.742	36.38
589.864	39.38
589.986	35.38
590.109	10.38
590.231	16.38
590.354	31.38
590.476	25.38
590.598	34.38
590.721	11.38
590.843	35.38
590.965	34.38
591.088	25.38
591.21	34.38
591.332	31.38
591.455	19.38
591.577	9.38
591.7	34.38
591.822	31.38
591.944	20.38
592.067	22.38
592.189	32.38
592.311	47.38
592.434	25.38
592.556	37.38
592.678	27.38
592.801	30.38
592.923	40.38
593.045	33.38
593.168	36.38
593.29	42.38
593.412	33.38
593.535	28.38
593.657	24.38
593.779	22.38
593.902	37.38
594.024	32.38
594.146	37.38
594.269	28.38
594.391	30.38
594.513	37.38
594.636	16.38
594.758	14.38
594.88	41.38
595.003	31.38
595.125	13.38
595.247	27.38
595.37	32.38
595.492	27.38
595.614	41.38
595.737	24.38
595.859	22.38
595.981	25.38
596.104	31.38
596.226	14.38
596.348	21.38
596.471	24.38
596.593	38.38
596.715	22.38
596.838	32.38
596.96	40.38
597.082	36.38
597.204	21.38
597.327	29.38
597.449	28.38
597.571	16.38
597.694	21.38
597.816	26.38
597.938	44.38
598.061	17.38
598.183	27.38
598.305	36.38
598.427	30.38
598.55	30.38
598.672	42.38
598.794	24.38
598.917	13.38
599.039	22.38
599.161	38.38
599.283	32.38
599.406	40.38
599.528	28.38
599.65	44.38
599.773	22.38
599.895	60.38
600.017	63.38
600.139	37.38
600.262	29.38
600.384	11.38
600.506	54.38
600.628	46.38
600.751	22.38
600.873	29.38
600.995	14.38
601.118	41.38
601.24	13.38
601.362	32.38
601.484	39.38
601.607	19.38
601.729	24.38
601.851	15.38
601.973	22.38
602.096	24.38
602.218	32.38
602.34	26.38
602.462	38.38
602.585	24.38
602.707	20.38
602.829	18.38
602.951	22.38
603.074	18.38
603.196	40.38
603.318	24.38
603.44	39.38
603.563	37.38
603.685	7.38
603.807	30.38
603.929	25.38
604.052	42.38
604.174	36.38
604.296	21.38
604.418	31.38
604.541	18.38
604.663	17.38
604.785	49.38
604.907	34.38
605.03	18.38
605.152	45.38
605.274	22.38
605.396	22.38
605.519	22.38
605.641	26.38
605.763	29.38
605.885	22.38
606.008	25.38
606.13	29.38
606.252	45.38
606.374	15.38
606.496	10.38
606.619	25.38
606.741	10.38
606.863	30.38
606.985	36.38
607.108	33.38
607.23	21.38
607.352	13.38
607.474	20.38
607.596	42.38
607.719	21.38
607.841	46.38
607.963	33.38
608.085	17.38
608.207	33.38
608.33	28.38
608.452	25.38
608.574	19.38
608.696	47.38
608.819	36.38
608.941	33.38
609.063	38.38
609.185	28.38
609.307	20.38
609.43	30.38
609.552	33.38
609.674	18.38
609.796	29.38
609.918	42.38
610.041	25.38
610.163	29.38
610.285	18.38
610.407	26.38
610.529	12.38
610.652	29.38
610.774	42.38
610.896	30.38
611.018	35.38
611.14	19.38
611.263	10.38
611.385	-1.62
611.507	35.38
611.629	14.38
611.751	33.38
611.873	54.38
611.996	25.38
612.118	37.38
612.24	34.38
612.362	50.38
612.484	61.38
612.607	64.38
612.729	65.38
612.851	48.38
612.973	10.38
613.095	18.38
613.218	29.38
613.34	41.38
613.462	33.38
613.584	19.38
613.706	6.38
613.828	33.38
613.951	29.38
614.073	16.38
614.195	-3.62
614.317	29.38
614.439	13.38
614.561	35.38
614.684	36.38
614.806	40.38
614.928	21.38
615.05	27.38
615.172	35.38
615.294	23.38
615.417	21.38
615.539	18.38
615.661	31.38
615.783	35.38
615.905	13.38
616.027	22.38
616.15	22.38
616.272	11.38
616.394	17.38
616.516	5.38
616.638	16.38
616.76	21.38
616.883	24.38
617.005	18.38
617.127	32.38
617.249	51.38
617.371	33.38
617.493	19.38
617.615	31.38
617.738	26.38
617.86	22.38
617.982	33.38
618.104	24.38
618.226	-5.62
618.348	12.38
618.471	32.38
618.593	24.38
618.715	4.38
618.837	32.38
618.959	19.38
619.081	38.38
619.203	22.38
619.326	17.38
619.448	47.38
619.57	31.38
619.692	24.38
619.814	44.38
619.936	30.38
620.058	36.38
620.181	40.38
620.303	33.38
620.425	25.38
620.547	13.38
620.669	17.38
620.791	34.38
620.913	26.38
621.036	12.38
621.158	19.38
621.28	33.38
621.402	18.38
621.524	16.38
621.646	30.38
621.768	24.38
621.891	4.38
622.013	15.38
622.135	23.38
622.257	10.38
622.379	8.38
622.501	24.38
622.623	24.38
622.745	36.38
622.868	24.38
622.99	13.38
623.112	21.38
623.234	24.38
623.356	27.38
623.478	23.38
623.6	23.38
623.722	13.38
623.845	23.38
623.967	28.38
624.089	34.38
624.211	37.38
624.333	29.38
624.455	24.38
624.577	43.38
624.699	18.38
624.822	24.38
624.944	16.38
625.066	26.38
625.188	-3.62
625.31	18.38
625.432	42.38
625.554	32.38
625.676	42.38
625.799	5.38
625.921	29.38
626.043	45.38
626.165	14.38
626.287	25.38
626.409	32.38
626.531	4.38
626.653	32.38
626.775	32.38
626.898	25.38
627.02	26.38
627.142	47.38
627.264	24.38
627.386	15.38
627.508	23.38
627.63	19.38
627.752	25.38
627.874	18.38
627.997	40.38
628.119	21.38
628.241	24.38
628.363	34.38
628.485	28.38
628.607	24.38
628.729	12.38
628.851	12.38
628.973	19.38
629.096	-3.62
629.218	24.38
629.34	17.38
629.462	-4.62
629.584	12.38
629.706	13.38
629.828	36.38
629.95	39.38
630.072	20.38
630.195	15.38
630.317	28.38
630.439	9.38
630.561	12.38
630.683	16.38
630.805	18.38
630.927	12.38
631.049	29.38
631.171	6.38
631.293	30.38
631.416	51.38
631.538	16.38
631.66	17.38
631.782	37.38
631.904	30.38
632.026	6.38
632.148	22.38
632.27	22.38
632.392	4.38
632.514	28.38
632.637	12.38
632.759	4.38
632.881	17.38
633.003	-10.62
633.125	-19.62
633.247	10.38
633.369	5.38
633.491	3.38
633.613	16.38
633.735	11.38
633.858	24.38
633.98	24.38
634.102	9.38
634.224	20.38
634.346	20.38
634.468	14.38
634.59	12.38
634.712	16.38
634.834	26.38
634.956	8.38
635.078	1.38
635.201	6.38
635.323	15.38
635.445	0.38
635.567	5.38
635.689	18.38
635.811	12.38
635.933	17.38
636.055	15.38
636.177	6.38
636.299	6.38
636.421	7.38
636.544	6.38
636.666	26.38
636.788	28.38
636.91	31.38
637.032	20.38
637.154	24.38
637.276	45.38
637.398	50.38
637.52	32.38
637.642	19.38
637.764	26.38
637.887	16.38
638.009	27.38
638.131	12.38
638.253	15.38
638.375	28.38
638.497	24.38
638.619	12.38
638.741	22.38
638.863	7.38
638.985	19.38
639.107	-4.62
639.23	2.38
639.352	30.38
639.474	20.38
639.596	24.38
639.718	17.38
639.84	-12.62
639.962	-6.62
640.084	39.38
640.206	33.38
640.328	8.38
640.45	22.38
640.573	16.38
640.695	15.38
640.817	31.38
640.939	33.38
641.061	9.38
641.183	10.38
641.305	35.38
641.427	14.38
641.549	16.38
641.671	18.38
641.793	16.38
641.915	19.38
642.038	12.38
642.16	-5.62
642.282	8.38
642.404	8.38
642.526	17.38
642.648	26.38
642.77	15.38
642.892	21.38
643.014	28.38
643.136	22.38
643.258	15.38
643.381	40.38
643.503	37.38
643.625	16.38
643.747	17.38
643.869	1.38
643.991	11.38
644.113	5.38
644.235	11.38
644.357	16.38
644.479	35.38
644.601	27.38
644.723	16.38
644.846	33.38
644.968	19.38
645.09	1.38
645.212	13.38
645.334	35.38
645.456	34.38
645.578	48.38
645.7	30.38
645.822	38.38
645.944	34.38
646.066	16.38
646.188	14.38
646.311	24.38
646.433	17.38
646.555	42.38
646.677	45.38
646.799	29.38
646.921	17.38
647.043	24.38
647.165	12.38
647.287	11.38
647.409	14.38
647.531	38.38
647.654	12.38
647.776	32.38
647.898	34.38
648.02	2.38
648.142	21.38
648.264	24.38
648.386	17.38
648.508	13.38
648.63	19.38
648.752	10.38
648.874	3.38
648.997	24.38
649.119	25.38
649.241	17.38
649.363	28.38
649.485	21.38
649.607	21.38
649.729	-7.62
649.851	5.38
649.973	20.38
650.095	20.38
650.217	4.38
650.34	8.38
650.462	30.38
650.584	14.38
650.706	24.38
650.828	14.38
650.95	-0.62
651.072	25.38
651.194	9.38
651.316	13.38
651.438	31.38
651.56	16.38
651.683	-1.62
651.805	12.38
651.927	14.38
652.049	10.38
652.171	13.38
652.293	18.38
652.415	20.38
652.537	8.38
652.659	8.38
652.781	34.38
652.903	26.38
653.026	25.38
653.148	17.38
653.27	29.38
653.392	25.38
653.514	8.38
653.636	9.38
653.758	8.38
653.88	-9.62
654.002	11.38
654.124	8.38
654.247	24.38
654.369	30.38
654.491	9.38
654.613	9.38
654.735	17.38
654.857	17.38
654.979	24.38
655.101	19.38
655.223	36.38
655.345	21.38
655.468	10.38
655.59	12.38
655.712	24.38
655.834	8.38
655.956	18.38
656.078	26.38
656.2	12.38
656.322	12.38
656.444	-5.62
656.566	38.38
656.689	26.38
656.811	14.38
656.933	24.38
657.055	-3.62
657.177	15.38
657.299	-1.62
657.421	16.38
657.543	16.38
657.665	5.38
657.787	9.38
657.91	13.38
658.032	14.38
658.154	4.38
658.276	4.38
658.398	3.38
658.52	25.38
658.642	10.38
658.764	19.38
658.886	-10.62
659.009	17.38
659.131	19.38
659.253	22.38
659.375	18.38
659.497	19.38
659.619	32.38
659.741	17.38
659.863	15.38
659.985	14.38
660.108	29.38
660.23	1.38
660.352	5.38
660.474	24.38
660.596	29.38
660.718	18.38
660.84	16.38
660.962	24.38
661.084	18.38
661.207	13.38
661.329	17.38
661.451	10.38
661.573	2.38
661.695	24.38
661.817	20.38
661.939	35.38
662.061	27.38
662.184	9.38
662.306	7.38
662.428	25.38
662.55	39.38
662.672	1.38
662.794	24.38
662.916	2.38
663.038	18.38
663.161	40.38
663.283	19.38
663.405	15.38
663.527	12.38
663.649	37.38
663.771	22.38
663.893	12.38
664.015	5.38
664.138	13.38
664.26	20.38
664.382	1.38
664.504	12.38
664.626	10.38
664.748	14.38
664.87	-3.62
664.992	27.38
665.115	14.38
665.237	18.38
665.359	14.38
665.481	20.38
665.603	20.38
665.725	8.38
665.847	-5.62
665.97	23.38
666.092	4.38
666.214	17.38
666.336	1.38
666.458	27.38
666.58	20.38
666.702	8.38
666.825	21.38
666.947	-22.62
667.069	19.38
667.191	6.38
667.313	19.38
667.435	-1.62
667.557	-12.62
667.68	-13.62
667.802	0.38
667.924	15.38
668.046	26.38
668.168	24.38
668.29	24.38
668.412	1.38
668.535	16.38
668.657	8.38
668.779	3.38
668.901	19.38
669.023	26.38
669.145	4.38
669.267	13.38
669.39	5.38
669.512	11.38
669.634	28.38
669.756	21.38
669.878	8.38
670	6.38
670.123	14.38
670.245	45.38
670.367	28.38
670.489	25.38
670.611	6.38
670.733	15.38
670.856	20.38
670.978	3.38
671.1	9.38
671.222	15.38
671.344	10.38
671.466	-1.62
671.589	4.38
671.711	10.38
671.833	10.38
671.955	2.38
672.077	11.38
672.199	34.38
672.322	28.38
672.444	16.38
672.566	17.38
672.688	6.38
672.81	13.38
672.932	23.38
673.055	17.38
673.177	12.38
673.299	9.38
673.421	11.38
673.543	24.38
673.665	20.38
673.788	17.38
673.91	19.38
674.032	8.38
674.154	16.38
674.276	13.38
674.399	8.38
674.521	22.38
674.643	2.38
674.765	10.38
674.887	26.38
675.009	6.38
675.132	11.38
675.254	15.38
675.376	21.38
675.498	5.38
675.62	15.38
675.743	2.38
675.865	24.38
675.987	11.38
676.109	10.38
676.231	-4.62
676.354	38.38
676.476	4.38
676.598	22.38
676.72	27.38
676.842	25.38
676.965	28.38
677.087	17.38
677.209	18.38
677.331	9.38
677.453	2.38
677.576	3.38
677.698	25.38
677.82	11.38
677.942	2.38
678.064	10.38
678.187	9.38
678.309	27.38
678.431	9.38
678.553	19.38
678.675	30.38
678.798	44.38
678.92	14.38
679.042	-2.62
679.164	16.38
679.286	13.38
679.409	0.38
679.531	2.38
679.653	7.38
679.775	6.38
679.898	8.38
680.02	-1.62
680.142	8.38
680.264	16.38
680.386	5.38
680.509	3.38
680.631	12.38
680.753	10.38
680.875	15.38
680.998	25.38
681.12	11.38
681.242	23.38
681.364	8.38
681.486	13.38
681.609	6.38
681.731	3.38
681.853	-2.62
681.975	-14.62
682.098	28.38
682.22	24.38
682.342	3.38
682.464	24.38
682.587	8.38
682.709	19.38
682.831	14.38
682.953	19.38
683.076	14.38
683.198	10.38
683.32	14.38
683.442	25.38
683.565	19.38
683.687	6.38
683.809	-3.62
683.931	5.38
684.054	15.38
684.176	17.38
684.298	2.38
684.42	18.38
684.543	8.38
684.665	2.38
684.787	17.38
684.909	23.38
685.032	33.38
685.154	-1.62
685.276	12.38
685.398	25.38
685.521	12.38
685.643	9.38
685.765	13.38
685.887	20.38
686.01	12.38
686.132	12.38
686.254	-10.62
686.377	11.38
686.499	14.38
686.621	12.38
686.743	19.38
686.866	4.38
686.988	33.38
687.11	37.38
687.232	17.38
687.355	-1.62
687.477	16.38
687.599	28.38
687.722	-0.62
687.844	-0.62
687.966	2.38
688.088	11.38
688.211	37.38
688.333	29.38
688.455	1.38
688.578	16.38
688.7	13.38
688.822	25.38
688.944	-6.62
689.067	44.38
689.189	14.38
689.311	-7.62
689.434	9.38
689.556	3.38
689.678	8.38
689.801	15.38
689.923	29.38
690.045	22.38
690.167	37.38
690.29	20.38
690.412	21.38
690.534	25.38
690.657	8.38
690.779	-3.62
690.901	22.38
691.024	20.38
691.146	-3.62
691.268	8.38
691.391	23.38
691.513	25.38
691.635	42.38
691.758	27.38
691.88	34.38
692.002	13.38
692.125	10.38
692.247	9.38
692.369	10.38
692.492	14.38
692.614	12.38
692.736	9.38
692.859	13.38
692.981	18.38
693.103	20.38
693.226	16.38
693.348	31.38
693.47	14.38
693.593	41.38
693.715	38.38
693.837	32.38
693.96	13.38
694.082	6.38
694.204	19.38
694.327	17.38
694.449	-0.62
694.571	13.38
694.694	4.38
694.816	13.38
694.938	20.38
695.061	24.38
695.183	13.38
695.305	21.38
695.428	25.38
695.55	20.38
695.672	-7.62
695.795	15.38
695.917	13.38
696.04	2.38
696.162	5.38
696.284	34.38
696.407	18.38
696.529	2.38
696.651	27.38
696.774	13.38
696.896	22.38
697.019	5.38
697.141	1.38
697.263	10.38
697.386	-12.62
697.508	13.38
697.63	21.38
697.753	14.38
697.875	15.38
697.998	16.38
698.12	10.38
698.242	9.38
698.365	4.38
698.487	-0.62
698.61	12.38
698.732	16.38
698.854	32.38
698.977	11.38
699.099	21.38
699.221	13.38
699.344	4.38
699.466	16.38
699.589	-0.62
699.711	-4.62
699.834	-8.62
699.956	9.38
700.078	17.38
700.201	-1.62
700.323	22.38
700.446	16.38
700.568	11.38
700.69	24.38
700.813	7.38
700.935	20.38
701.058	20.38
701.18	8.38
701.302	8.38
701.425	7.38
701.547	12.38
701.67	8.38
701.792	-4.62
701.915	0.38
702.037	1.38
702.159	14.38
702.282	4.38
702.404	15.38
702.527	17.38
702.649	40.38
702.772	12.38
702.894	8.38
703.017	18.38
703.139	31.38
703.261	30.38
703.384	21.38
703.506	8.38
703.629	12.38
703.751	12.38
703.874	16.38
703.996	5.38
704.119	-1.62
704.241	14.38
704.364	19.38
704.486	11.38
704.608	14.38
704.731	4.38
704.853	13.38
704.976	10.38
705.098	24.38
705.221	9.38
705.343	14.38
705.466	6.38
705.588	3.38
705.711	4.38
705.833	24.38
705.956	3.38
706.078	24.38
706.201	10.38
706.323	10.38
706.446	4.38
