Data from LowRes_mercury_15_20_11_07_2024_HR4C61881__91__15-23-41-370.txt Node

Date: Thu Nov 07 15:23:41 EST 2024
User: crc00042
Spectrometer: HR4C6188
Trigger mode: 4
Integration Time (sec): 1.000000E-1
Scans to average: 1
Electric dark correction enabled: true
Nonlinearity correction enabled: false
Boxcar width: 0
XAxis mode: Wavelengths
Number of Pixels in Spectrum: 3648
>>>>>Begin Spectral Data<<<<<
245.66	-68.15
245.797	-68.15
245.934	-68.15
246.071	-97.15
246.208	2.85
246.344	5.85
246.481	-7.15
246.618	6.85
246.755	10.85
246.892	15.85
247.029	-0.15
247.165	-10.15
247.302	17.85
247.439	0.85
247.576	-2.15
247.713	-20.15
247.849	-0.15
247.986	-18.15
248.123	-2.15
248.26	9.85
248.396	-0.15
248.533	6.85
248.67	1.85
248.806	-5.15
248.943	-12.15
249.08	-24.15
249.216	-2.15
249.353	-5.15
249.49	-9.15
249.626	9.85
249.763	10.85
249.9	-23.15
250.036	11.85
250.173	-6.15
250.309	-2.15
250.446	-7.15
250.582	-12.15
250.719	-12.15
250.856	-8.15
250.992	6.85
251.129	2.85
251.265	3.85
251.402	-9.15
251.538	-0.15
251.675	6.85
251.811	13.85
251.948	8.85
252.084	-14.15
252.221	-1.15
252.357	-6.15
252.493	24.85
252.63	1.85
252.766	3.85
252.903	-5.15
253.039	-7.15
253.175	-8.15
253.312	20.85
253.448	-11.15
253.585	-11.15
253.721	12.85
253.857	-8.15
253.994	16.85
254.13	-12.15
254.266	2.85
254.403	-4.15
254.539	-10.15
254.675	6.85
254.811	-0.15
254.948	2.85
255.084	4.85
255.22	9.85
255.356	-15.15
255.493	2.85
255.629	-6.15
255.765	-18.15
255.901	-10.15
256.037	0.85
256.174	-1.15
256.31	-12.15
256.446	-12.15
256.582	-6.15
256.718	-0.15
256.854	19.85
256.991	-3.15
257.127	5.85
257.263	6.85
257.399	10.85
257.535	-0.15
257.671	4.85
257.807	-8.15
257.943	-6.15
258.079	-24.15
258.215	6.85
258.351	1.85
258.487	-2.15
258.623	31.85
258.759	5.85
258.895	-13.15
259.031	17.85
259.167	-18.15
259.303	11.85
259.439	-6.15
259.575	-5.15
259.711	-13.15
259.847	-11.15
259.983	5.85
260.119	-12.15
260.255	2.85
260.391	1.85
260.527	13.85
260.663	2.85
260.799	18.85
260.934	2.85
261.07	-27.15
261.206	-16.15
261.342	-12.15
261.478	10.85
261.614	11.85
261.749	4.85
261.885	6.85
262.021	8.85
262.157	10.85
262.293	-8.15
262.428	-18.15
262.564	0.85
262.7	11.85
262.836	8.85
262.971	6.85
263.107	9.85
263.243	19.85
263.378	10.85
263.514	1.85
263.65	14.85
263.785	-17.15
263.921	-15.15
264.057	0.85
264.192	-8.15
264.328	11.85
264.464	-4.15
264.599	9.85
264.735	19.85
264.871	-12.15
265.006	-3.15
265.142	-6.15
265.277	6.85
265.413	22.85
265.548	12.85
265.684	10.85
265.819	-10.15
265.955	-11.15
266.091	-7.15
266.226	2.85
266.362	7.85
266.497	17.85
266.633	-11.15
266.768	-12.15
266.903	-1.15
267.039	24.85
267.174	14.85
267.31	-4.15
267.445	-14.15
267.581	8.85
267.716	24.85
267.851	6.85
267.987	14.85
268.122	13.85
268.258	3.85
268.393	0.85
268.528	17.85
268.664	-1.15
268.799	-5.15
268.934	6.85
269.07	2.85
269.205	-3.15
269.34	39.85
269.476	7.85
269.611	-7.15
269.746	24.85
269.881	-8.15
270.017	14.85
270.152	0.85
270.287	8.85
270.422	-17.15
270.558	-9.15
270.693	17.85
270.828	-10.15
270.963	-8.15
271.098	-3.15
271.234	5.85
271.369	17.85
271.504	19.85
271.639	-5.15
271.774	-5.15
271.909	-10.15
272.045	-23.15
272.18	-5.15
272.315	-8.15
272.45	29.85
272.585	-5.15
272.72	-9.15
272.855	17.85
272.99	25.85
273.125	-8.15
273.26	-14.15
273.395	-4.15
273.53	-6.15
273.665	15.85
273.8	-7.15
273.935	-3.15
274.07	-3.15
274.205	-12.15
274.34	7.85
274.475	-2.15
274.61	24.85
274.745	-18.15
274.88	22.85
275.015	-24.15
275.15	-7.15
275.285	27.85
275.42	6.85
275.555	23.85
275.69	14.85
275.825	2.85
275.959	11.85
276.094	-9.15
276.229	7.85
276.364	-5.15
276.499	1.85
276.634	7.85
276.768	-16.15
276.903	6.85
277.038	3.85
277.173	13.85
277.308	1.85
277.442	-15.15
277.577	1.85
277.712	-0.15
277.847	-2.15
277.981	1.85
278.116	-26.15
278.251	9.85
278.386	9.85
278.52	19.85
278.655	-8.15
278.79	2.85
278.924	2.85
279.059	8.85
279.194	-5.15
279.328	21.85
279.463	12.85
279.598	25.85
279.732	2.85
279.867	8.85
280.001	6.85
280.136	-9.15
280.271	-10.15
280.405	-7.15
280.54	9.85
280.674	2.85
280.809	28.85
280.943	19.85
281.078	12.85
281.213	18.85
281.347	22.85
281.482	-8.15
281.616	-19.15
281.751	-2.15
281.885	-13.15
282.02	7.85
282.154	13.85
282.288	3.85
282.423	-5.15
282.557	2.85
282.692	10.85
282.826	-11.15
282.961	25.85
283.095	-12.15
283.229	-15.15
283.364	-28.15
283.498	2.85
283.633	4.85
283.767	-5.15
283.901	22.85
284.036	-2.15
284.17	-12.15
284.304	-10.15
284.439	1.85
284.573	-10.15
284.707	18.85
284.842	9.85
284.976	9.85
285.11	-0.15
285.244	8.85
285.379	38.85
285.513	-9.15
285.647	5.85
285.781	5.85
285.916	8.85
286.05	-0.15
286.184	27.85
286.318	27.85
286.453	11.85
286.587	-20.15
286.721	-12.15
286.855	5.85
286.989	20.85
287.123	1.85
287.258	4.85
287.392	3.85
287.526	21.85
287.66	4.85
287.794	-6.15
287.928	-8.15
288.062	12.85
288.196	0.85
288.33	-6.15
288.464	10.85
288.598	11.85
288.733	-0.15
288.867	-3.15
289.001	-15.15
289.135	-14.15
289.269	-8.15
289.403	-9.15
289.537	10.85
289.671	-0.15
289.805	-14.15
289.939	12.85
290.073	3.85
290.207	19.85
290.34	4.85
290.474	19.85
290.608	-7.15
290.742	-0.15
290.876	-7.15
291.01	15.85
291.144	24.85
291.278	12.85
291.412	12.85
291.546	-0.15
291.679	-2.15
291.813	-11.15
291.947	1.85
292.081	5.85
292.215	-3.15
292.349	8.85
292.482	9.85
292.616	-5.15
292.75	7.85
292.884	5.85
293.018	8.85
293.151	4.85
293.285	0.85
293.419	-2.15
293.553	-3.15
293.686	-12.15
293.82	5.85
293.954	13.85
294.088	18.85
294.221	-12.15
294.355	-7.15
294.489	-12.15
294.622	-14.15
294.756	2.85
294.89	25.85
295.023	30.85
295.157	8.85
295.291	3.85
295.424	10.85
295.558	-9.15
295.691	8.85
295.825	1.85
295.959	-16.15
296.092	-6.15
296.226	-2.15
296.359	19.85
296.493	28.85
296.627	3.85
296.76	-0.15
296.894	-7.15
297.027	12.85
297.161	8.85
297.294	-9.15
297.428	-2.15
297.561	31.85
297.695	1.85
297.828	-2.15
297.962	-14.15
298.095	-13.15
298.229	-0.15
298.362	-8.15
298.495	-9.15
298.629	-3.15
298.762	-3.15
298.896	12.85
299.029	-6.15
299.162	14.85
299.296	8.85
299.429	-7.15
299.563	16.85
299.696	0.85
299.829	-2.15
299.963	1.85
300.096	-3.15
300.229	-8.15
300.363	5.85
300.496	-2.15
300.629	-6.15
300.763	-4.15
300.896	-7.15
301.029	-4.15
301.162	18.85
301.296	-11.15
301.429	-1.15
301.562	-20.15
301.695	3.85
301.829	14.85
301.962	24.85
302.095	6.85
302.228	-17.15
302.362	-9.15
302.495	-17.15
302.628	5.85
302.761	-6.15
302.894	8.85
303.027	7.85
303.161	6.85
303.294	-3.15
303.427	-0.15
303.56	2.85
303.693	2.85
303.826	-10.15
303.959	9.85
304.092	11.85
304.225	6.85
304.359	4.85
304.492	1.85
304.625	2.85
304.758	10.85
304.891	1.85
305.024	-2.15
305.157	-19.15
305.29	-1.15
305.423	-2.15
305.556	12.85
305.689	25.85
305.822	-7.15
305.955	-6.15
306.088	6.85
306.221	-8.15
306.354	-20.15
306.487	-6.15
306.62	-4.15
306.752	-2.15
306.885	-4.15
307.018	-7.15
307.151	10.85
307.284	26.85
307.417	-4.15
307.55	-4.15
307.683	8.85
307.816	20.85
307.948	12.85
308.081	26.85
308.214	6.85
308.347	15.85
308.48	-17.15
308.613	-2.15
308.745	1.85
308.878	3.85
309.011	5.85
309.144	0.85
309.277	7.85
309.409	5.85
309.542	-4.15
309.675	19.85
309.808	4.85
309.94	21.85
310.073	-16.15
310.206	-8.15
310.339	2.85
310.471	-25.15
310.604	8.85
310.737	0.85
310.869	1.85
311.002	5.85
311.135	7.85
311.267	-12.15
311.4	-6.15
311.533	19.85
311.665	8.85
311.798	1.85
311.93	0.85
312.063	17.85
312.196	29.85
312.328	76.85
312.461	56.85
312.593	23.85
312.726	50.85
312.859	99.85
312.991	158.85
313.124	51.85
313.256	14.85
313.389	11.85
313.521	7.85
313.654	12.85
313.786	-12.15
313.919	-5.15
314.051	-4.15
314.184	8.85
314.316	-7.15
314.449	-24.15
314.581	-2.15
314.714	-9.15
314.846	17.85
314.978	-10.15
315.111	-10.15
315.243	-10.15
315.376	5.85
315.508	10.85
315.641	-10.15
315.773	10.85
315.905	14.85
316.038	3.85
316.17	-7.15
316.302	-2.15
316.435	2.85
316.567	-11.15
316.699	9.85
316.832	-12.15
316.964	-12.15
317.096	-3.15
317.229	-11.15
317.361	-30.15
317.493	-15.15
317.625	-19.15
317.758	7.85
317.89	19.85
318.022	-6.15
318.155	-22.15
318.287	-25.15
318.419	-13.15
318.551	-15.15
318.683	-14.15
318.816	-3.15
318.948	-9.15
319.08	-16.15
319.212	-3.15
319.344	9.85
319.477	3.85
319.609	10.85
319.741	16.85
319.873	-5.15
320.005	7.85
320.137	3.85
320.269	-1.15
320.401	11.85
320.534	-8.15
320.666	-18.15
320.798	-22.15
320.93	-6.15
321.062	-11.15
321.194	-10.15
321.326	-0.15
321.458	15.85
321.59	-0.15
321.722	10.85
321.854	8.85
321.986	5.85
322.118	11.85
322.25	-14.15
322.382	-0.15
322.514	-6.15
322.646	-18.15
322.778	5.85
322.91	-25.15
323.042	-9.15
323.174	-7.15
323.306	-10.15
323.438	-13.15
323.57	10.85
323.702	3.85
323.834	-0.15
323.966	-10.15
324.097	-3.15
324.229	9.85
324.361	8.85
324.493	6.85
324.625	-1.15
324.757	17.85
324.889	6.85
325.021	17.85
325.152	10.85
325.284	8.85
325.416	-3.15
325.548	5.85
325.68	4.85
325.811	1.85
325.943	19.85
326.075	-0.15
326.207	9.85
326.339	10.85
326.47	2.85
326.602	6.85
326.734	7.85
326.866	9.85
326.997	-8.15
327.129	4.85
327.261	4.85
327.392	-9.15
327.524	6.85
327.656	7.85
327.787	12.85
327.919	2.85
328.051	15.85
328.182	13.85
328.314	15.85
328.446	-0.15
328.577	10.85
328.709	14.85
328.841	-38.15
328.972	-12.15
329.104	-26.15
329.235	-7.15
329.367	-5.15
329.499	12.85
329.63	-2.15
329.762	5.85
329.893	6.85
330.025	12.85
330.156	-6.15
330.288	8.85
330.419	6.85
330.551	9.85
330.683	8.85
330.814	-12.15
330.946	17.85
331.077	-11.15
331.208	-0.15
331.34	-10.15
331.471	-7.15
331.603	5.85
331.734	-10.15
331.866	-3.15
331.997	2.85
332.129	-3.15
332.26	-21.15
332.392	15.85
332.523	6.85
332.654	-5.15
332.786	9.85
332.917	5.85
333.048	18.85
333.18	37.85
333.311	13.85
333.443	16.85
333.574	3.85
333.705	40.85
333.837	51.85
333.968	122.85
334.099	209.85
334.231	199.85
334.362	54.85
334.493	32.85
334.624	2.85
334.756	-0.15
334.887	11.85
335.018	4.85
335.15	22.85
335.281	4.85
335.412	28.85
335.543	14.85
335.675	1.85
335.806	15.85
335.937	4.85
336.068	-0.15
336.199	35.85
336.331	4.85
336.462	13.85
336.593	10.85
336.724	-11.15
336.855	0.85
336.986	27.85
337.118	13.85
337.249	16.85
337.38	20.85
337.511	21.85
337.642	23.85
337.773	13.85
337.904	25.85
338.035	25.85
338.166	-1.15
338.298	9.85
338.429	-2.15
338.56	8.85
338.691	17.85
338.822	4.85
338.953	15.85
339.084	13.85
339.215	10.85
339.346	21.85
339.477	25.85
339.608	8.85
339.739	2.85
339.87	12.85
340.001	2.85
340.132	20.85
340.263	-1.15
340.394	24.85
340.525	9.85
340.656	-3.15
340.787	-5.15
340.918	35.85
341.049	11.85
341.179	15.85
341.31	-10.15
341.441	22.85
341.572	18.85
341.703	-4.15
341.834	8.85
341.965	23.85
342.096	14.85
342.227	21.85
342.357	22.85
342.488	12.85
342.619	6.85
342.75	20.85
342.881	2.85
343.012	17.85
343.142	39.85
343.273	7.85
343.404	18.85
343.535	33.85
343.666	25.85
343.796	33.85
343.927	22.85
344.058	41.85
344.189	37.85
344.319	26.85
344.45	19.85
344.581	22.85
344.712	-0.15
344.842	14.85
344.973	21.85
345.104	29.85
345.234	29.85
345.365	6.85
345.496	26.85
345.626	22.85
345.757	31.85
345.888	4.85
346.018	38.85
346.149	18.85
346.28	39.85
346.41	3.85
346.541	26.85
346.672	15.85
346.802	23.85
346.933	16.85
347.063	30.85
347.194	28.85
347.325	23.85
347.455	39.85
347.586	28.85
347.716	22.85
347.847	24.85
347.977	27.85
348.108	51.85
348.238	53.85
348.369	32.85
348.499	45.85
348.63	56.85
348.76	37.85
348.891	45.85
349.021	41.85
349.152	62.85
349.282	44.85
349.413	38.85
349.543	53.85
349.674	22.85
349.804	31.85
349.935	21.85
350.065	5.85
350.196	35.85
350.326	25.85
350.456	23.85
350.587	40.85
350.717	31.85
350.848	26.85
350.978	40.85
351.108	11.85
351.239	45.85
351.369	10.85
351.499	28.85
351.63	34.85
351.76	28.85
351.89	24.85
352.021	30.85
352.151	4.85
352.281	23.85
352.412	24.85
352.542	39.85
352.672	19.85
352.803	20.85
352.933	35.85
353.063	26.85
353.193	18.85
353.324	10.85
353.454	7.85
353.584	29.85
353.714	25.85
353.845	15.85
353.975	10.85
354.105	12.85
354.235	10.85
354.365	17.85
354.496	19.85
354.626	27.85
354.756	25.85
354.886	7.85
355.016	21.85
355.146	9.85
355.277	17.85
355.407	22.85
355.537	8.85
355.667	6.85
355.797	26.85
355.927	13.85
356.057	28.85
356.187	5.85
356.318	14.85
356.448	14.85
356.578	21.85
356.708	27.85
356.838	32.85
356.968	28.85
357.098	23.85
357.228	29.85
357.358	-7.15
357.488	20.85
357.618	47.85
357.748	37.85
357.878	14.85
358.008	6.85
358.138	20.85
358.268	22.85
358.398	22.85
358.528	-6.15
358.658	14.85
358.788	24.85
358.918	21.85
359.048	12.85
359.178	35.85
359.308	27.85
359.438	41.85
359.568	13.85
359.698	31.85
359.827	7.85
359.957	26.85
360.087	22.85
360.217	25.85
360.347	30.85
360.477	36.85
360.607	13.85
360.737	37.85
360.866	23.85
360.996	2.85
361.126	27.85
361.256	47.85
361.386	35.85
361.516	35.85
361.645	18.85
361.775	49.85
361.905	11.85
362.035	42.85
362.165	13.85
362.294	49.85
362.424	53.85
362.554	35.85
362.684	33.85
362.813	58.85
362.943	44.85
363.073	58.85
363.203	63.85
363.332	76.85
363.462	77.85
363.592	89.85
363.721	121.85
363.851	163.85
363.981	200.85
364.111	262.85
364.24	309.85
364.37	501.85
364.5	819.85
364.629	1753.85
364.759	3807.85
364.888	6183.85
365.018	9244.85
365.148	14730.85
365.277	12823.85
365.407	4692.85
365.537	3076.85
365.666	4007.85
365.796	1796.85
365.925	793.85
366.055	731.85
366.184	1011.85
366.314	1401.85
366.444	2439.85
366.573	2094.85
366.703	660.85
366.832	218.85
366.962	117.85
367.091	88.85
367.221	71.85
367.35	46.85
367.48	79.85
367.609	51.85
367.739	51.85
367.868	19.85
367.998	42.85
368.127	38.85
368.257	59.85
368.386	57.85
368.516	57.85
368.645	30.85
368.775	25.85
368.904	44.85
369.033	24.85
369.163	16.85
369.292	42.85
369.422	40.85
369.551	51.85
369.68	33.85
369.81	44.85
369.939	35.85
370.069	35.85
370.198	32.85
370.327	30.85
370.457	36.85
370.586	42.85
370.715	14.85
370.845	41.85
370.974	31.85
371.103	37.85
371.233	44.85
371.362	45.85
371.491	28.85
371.621	45.85
371.75	61.85
371.879	40.85
372.008	41.85
372.138	55.85
372.267	57.85
372.396	56.85
372.525	34.85
372.655	35.85
372.784	35.85
372.913	29.85
373.042	32.85
373.172	25.85
373.301	-1.15
373.43	23.85
373.559	17.85
373.688	29.85
373.818	41.85
373.947	30.85
374.076	31.85
374.205	43.85
374.334	14.85
374.463	6.85
374.593	18.85
374.722	35.85
374.851	29.85
374.98	-8.15
375.109	-1.15
375.238	47.85
375.367	42.85
375.496	-4.15
375.625	-0.15
375.755	31.85
375.884	36.85
376.013	22.85
376.142	-2.15
376.271	18.85
376.4	13.85
376.529	14.85
376.658	4.85
376.787	9.85
376.916	26.85
377.045	17.85
377.174	23.85
377.303	14.85
377.432	43.85
377.561	48.85
377.69	16.85
377.819	47.85
377.948	4.85
378.077	15.85
378.206	9.85
378.335	19.85
378.464	15.85
378.593	21.85
378.722	7.85
378.851	25.85
378.98	32.85
379.108	-4.15
379.237	3.85
379.366	18.85
379.495	28.85
379.624	39.85
379.753	9.85
379.882	13.85
380.011	-0.15
380.14	7.85
380.268	22.85
380.397	16.85
380.526	32.85
380.655	1.85
380.784	-5.15
380.913	15.85
381.041	32.85
381.17	-5.15
381.299	11.85
381.428	14.85
381.557	20.85
381.685	21.85
381.814	14.85
381.943	12.85
382.072	4.85
382.2	14.85
382.329	49.85
382.458	15.85
382.587	27.85
382.715	20.85
382.844	13.85
382.973	25.85
383.102	26.85
383.23	13.85
383.359	-2.15
383.488	18.85
383.616	19.85
383.745	-2.15
383.874	17.85
384.003	14.85
384.131	7.85
384.26	21.85
384.389	27.85
384.517	4.85
384.646	-3.15
384.774	-1.15
384.903	22.85
385.032	25.85
385.16	24.85
385.289	11.85
385.418	-0.15
385.546	23.85
385.675	38.85
385.803	-1.15
385.932	8.85
386.06	18.85
386.189	26.85
386.318	24.85
386.446	8.85
386.575	22.85
386.703	22.85
386.832	6.85
386.96	10.85
387.089	18.85
387.217	-4.15
387.346	13.85
387.474	-0.15
387.603	26.85
387.731	21.85
387.86	24.85
387.988	20.85
388.117	14.85
388.245	15.85
388.374	9.85
388.502	17.85
388.631	-0.15
388.759	21.85
388.888	11.85
389.016	3.85
389.144	8.85
389.273	25.85
389.401	18.85
389.53	10.85
389.658	40.85
389.786	16.85
389.915	9.85
390.043	-6.15
390.172	16.85
390.3	28.85
390.428	49.85
390.557	32.85
390.685	41.85
390.813	38.85
390.942	59.85
391.07	34.85
391.198	22.85
391.327	17.85
391.455	6.85
391.583	32.85
391.712	22.85
391.84	19.85
391.968	9.85
392.096	18.85
392.225	27.85
392.353	35.85
392.481	21.85
392.609	39.85
392.738	36.85
392.866	17.85
392.994	-4.15
393.122	40.85
393.251	18.85
393.379	13.85
393.507	27.85
393.635	24.85
393.764	33.85
393.892	28.85
394.02	18.85
394.148	23.85
394.276	13.85
394.404	38.85
394.533	15.85
394.661	38.85
394.789	47.85
394.917	35.85
395.045	16.85
395.173	13.85
395.302	26.85
395.43	30.85
395.558	31.85
395.686	50.85
395.814	48.85
395.942	25.85
396.07	42.85
396.198	26.85
396.326	36.85
396.454	49.85
396.582	23.85
396.711	29.85
396.839	35.85
396.967	31.85
397.095	26.85
397.223	30.85
397.351	46.85
397.479	34.85
397.607	18.85
397.735	51.85
397.863	66.85
397.991	52.85
398.119	25.85
398.247	31.85
398.375	40.85
398.503	29.85
398.631	54.85
398.759	52.85
398.887	71.85
399.015	41.85
399.143	69.85
399.271	58.85
399.399	80.85
399.526	74.85
399.654	93.85
399.782	60.85
399.91	88.85
400.038	87.85
400.166	78.85
400.294	81.85
400.422	79.85
400.55	117.85
400.678	105.85
400.805	114.85
400.933	130.85
401.061	107.85
401.189	101.85
401.317	130.85
401.445	110.85
401.573	70.85
401.7	37.85
401.828	52.85
401.956	55.85
402.084	48.85
402.212	35.85
402.34	41.85
402.467	31.85
402.595	44.85
402.723	44.85
402.851	53.85
402.978	41.85
403.106	70.85
403.234	77.85
403.362	128.85
403.489	121.85
403.617	162.85
403.745	194.85
403.873	271.85
404	559.85
404.128	1443.85
404.256	3888.85
404.384	5020.85
404.511	5439.85
404.639	7162.85
404.767	11352.85
404.894	14524.85
405.022	4832.85
405.15	1254.85
405.277	428.85
405.405	234.85
405.533	126.85
405.66	101.85
405.788	44.85
405.916	73.85
406.043	37.85
406.171	60.85
406.299	59.85
406.426	69.85
406.554	52.85
406.681	49.85
406.809	53.85
406.937	65.85
407.064	70.85
407.192	113.85
407.319	305.85
407.447	528.85
407.574	520.85
407.702	633.85
407.83	862.85
407.957	1588.85
408.085	922.85
408.212	279.85
408.34	85.85
408.467	58.85
408.595	44.85
408.722	65.85
408.85	51.85
408.977	26.85
409.105	42.85
409.232	33.85
409.36	34.85
409.487	42.85
409.615	38.85
409.742	34.85
409.87	25.85
409.997	43.85
410.125	43.85
410.252	37.85
410.379	34.85
410.507	39.85
410.634	34.85
410.762	25.85
410.889	37.85
411.017	37.85
411.144	36.85
411.271	32.85
411.399	12.85
411.526	19.85
411.653	22.85
411.781	32.85
411.908	37.85
412.036	5.85
412.163	36.85
412.29	26.85
412.418	36.85
412.545	38.85
412.672	24.85
412.8	30.85
412.927	30.85
413.054	45.85
413.182	35.85
413.309	11.85
413.436	30.85
413.564	26.85
413.691	26.85
413.818	36.85
413.945	21.85
414.073	20.85
414.2	32.85
414.327	18.85
414.454	23.85
414.582	44.85
414.709	33.85
414.836	23.85
414.963	23.85
415.091	20.85
415.218	23.85
415.345	29.85
415.472	20.85
415.6	29.85
415.727	37.85
415.854	18.85
415.981	10.85
416.108	26.85
416.236	39.85
416.363	30.85
416.49	14.85
416.617	32.85
416.744	25.85
416.871	33.85
416.998	29.85
417.126	38.85
417.253	28.85
417.38	10.85
417.507	26.85
417.634	18.85
417.761	44.85
417.888	24.85
418.015	35.85
418.143	22.85
418.27	50.85
418.397	15.85
418.524	37.85
418.651	17.85
418.778	51.85
418.905	54.85
419.032	29.85
419.159	42.85
419.286	63.85
419.413	38.85
419.54	34.85
419.667	26.85
419.794	31.85
419.921	42.85
420.048	38.85
420.175	54.85
420.302	46.85
420.429	53.85
420.556	55.85
420.683	42.85
420.81	47.85
420.937	54.85
421.064	63.85
421.191	50.85
421.318	67.85
421.445	76.85
421.572	38.85
421.699	58.85
421.826	38.85
421.953	21.85
422.08	23.85
422.207	14.85
422.334	1.85
422.461	24.85
422.588	17.85
422.714	20.85
422.841	28.85
422.968	35.85
423.095	16.85
423.222	27.85
423.349	12.85
423.476	46.85
423.603	15.85
423.729	5.85
423.856	25.85
423.983	32.85
424.11	4.85
424.237	18.85
424.364	17.85
424.491	15.85
424.617	4.85
424.744	27.85
424.871	26.85
424.998	7.85
425.125	5.85
425.251	4.85
425.378	10.85
425.505	11.85
425.632	8.85
425.758	20.85
425.885	9.85
426.012	22.85
426.139	33.85
426.266	39.85
426.392	27.85
426.519	30.85
426.646	18.85
426.772	40.85
426.899	13.85
427.026	22.85
427.153	22.85
427.279	18.85
427.406	8.85
427.533	5.85
427.659	26.85
427.786	19.85
427.913	28.85
428.039	25.85
428.166	20.85
428.293	12.85
428.419	29.85
428.546	21.85
428.673	17.85
428.799	19.85
428.926	11.85
429.053	31.85
429.179	19.85
429.306	14.85
429.433	24.85
429.559	31.85
429.686	12.85
429.812	25.85
429.939	19.85
430.066	20.85
430.192	21.85
430.319	22.85
430.445	18.85
430.572	17.85
430.699	-9.15
430.825	14.85
430.952	13.85
431.078	31.85
431.205	36.85
431.331	15.85
431.458	39.85
431.584	38.85
431.711	20.85
431.837	27.85
431.964	26.85
432.09	13.85
432.217	14.85
432.343	10.85
432.47	25.85
432.596	36.85
432.723	4.85
432.849	10.85
432.976	6.85
433.102	20.85
433.229	17.85
433.355	51.85
433.482	66.85
433.608	95.85
433.735	103.85
433.861	109.85
433.987	172.85
434.114	210.85
434.24	175.85
434.367	212.85
434.493	200.85
434.62	273.85
434.746	372.85
434.872	612.85
434.999	826.85
435.125	1709.85
435.252	5434.85
435.378	13312.85
435.504	15133.85
435.631	15345.85
435.757	15680.85
435.883	15680.85
436.01	15680.85
436.136	15680.85
436.262	15680.85
436.389	3428.85
436.515	1887.85
436.641	745.85
436.768	607.85
436.894	389.85
437.02	381.85
437.147	294.85
437.273	294.85
437.399	204.85
437.526	235.85
437.652	181.85
437.778	204.85
437.904	134.85
438.031	166.85
438.157	140.85
438.283	160.85
438.409	97.85
438.536	108.85
438.662	115.85
438.788	123.85
438.914	92.85
439.041	115.85
439.167	107.85
439.293	88.85
439.419	89.85
439.546	85.85
439.672	77.85
439.798	91.85
439.924	73.85
440.05	87.85
440.177	62.85
440.303	77.85
440.429	57.85
440.555	49.85
440.681	55.85
440.807	60.85
440.934	58.85
441.06	59.85
441.186	59.85
441.312	41.85
441.438	45.85
441.564	50.85
441.69	57.85
441.816	67.85
441.943	42.85
442.069	61.85
442.195	50.85
442.321	38.85
442.447	39.85
442.573	38.85
442.699	33.85
442.825	32.85
442.951	33.85
443.077	47.85
443.203	49.85
443.33	28.85
443.456	22.85
443.582	57.85
443.708	35.85
443.834	49.85
443.96	50.85
444.086	30.85
444.212	41.85
444.338	41.85
444.464	57.85
444.59	54.85
444.716	45.85
444.842	50.85
444.968	44.85
445.094	38.85
445.22	30.85
445.346	39.85
445.472	32.85
445.598	35.85
445.724	42.85
445.85	30.85
445.976	46.85
446.102	33.85
446.228	44.85
446.354	54.85
446.48	39.85
446.605	50.85
446.731	45.85
446.857	32.85
446.983	20.85
447.109	32.85
447.235	29.85
447.361	5.85
447.487	44.85
447.613	62.85
447.739	19.85
447.865	21.85
447.99	33.85
448.116	33.85
448.242	22.85
448.368	17.85
448.494	23.85
448.62	30.85
448.746	25.85
448.872	22.85
448.997	15.85
449.123	39.85
449.249	40.85
449.375	38.85
449.501	14.85
449.627	18.85
449.752	51.85
449.878	19.85
450.004	21.85
450.13	24.85
450.256	13.85
450.381	31.85
450.507	7.85
450.633	21.85
450.759	38.85
450.884	23.85
451.01	25.85
451.136	22.85
451.262	30.85
451.388	34.85
451.513	14.85
451.639	34.85
451.765	33.85
451.89	44.85
452.016	37.85
452.142	33.85
452.268	30.85
452.393	26.85
452.519	26.85
452.645	19.85
452.771	15.85
452.896	11.85
453.022	25.85
453.148	37.85
453.273	22.85
453.399	12.85
453.525	17.85
453.65	11.85
453.776	51.85
453.902	34.85
454.027	41.85
454.153	46.85
454.279	18.85
454.404	11.85
454.53	27.85
454.656	52.85
454.781	35.85
454.907	11.85
455.032	33.85
455.158	35.85
455.284	33.85
455.409	34.85
455.535	26.85
455.66	23.85
455.786	29.85
455.912	23.85
456.037	20.85
456.163	29.85
456.288	38.85
456.414	24.85
456.539	9.85
456.665	46.85
456.791	28.85
456.916	30.85
457.042	23.85
457.167	18.85
457.293	27.85
457.418	12.85
457.544	19.85
457.669	22.85
457.795	27.85
457.92	31.85
458.046	28.85
458.171	34.85
458.297	14.85
458.422	40.85
458.548	17.85
458.673	11.85
458.799	18.85
458.924	8.85
459.05	18.85
459.175	18.85
459.301	33.85
459.426	43.85
459.552	18.85
459.677	17.85
459.803	39.85
459.928	38.85
460.053	36.85
460.179	27.85
460.304	27.85
460.43	9.85
460.555	25.85
460.681	18.85
460.806	23.85
460.931	21.85
461.057	34.85
461.182	22.85
461.308	27.85
461.433	26.85
461.558	12.85
461.684	37.85
461.809	50.85
461.934	39.85
462.06	14.85
462.185	15.85
462.311	29.85
462.436	35.85
462.561	35.85
462.687	33.85
462.812	35.85
462.937	28.85
463.063	11.85
463.188	23.85
463.313	30.85
463.439	24.85
463.564	7.85
463.689	26.85
463.814	20.85
463.94	20.85
464.065	52.85
464.19	31.85
464.316	20.85
464.441	16.85
464.566	21.85
464.692	47.85
464.817	24.85
464.942	36.85
465.067	27.85
465.193	3.85
465.318	13.85
465.443	22.85
465.568	26.85
465.694	21.85
465.819	42.85
465.944	22.85
466.069	32.85
466.194	36.85
466.32	45.85
466.445	17.85
466.57	24.85
466.695	23.85
466.82	32.85
466.946	36.85
467.071	18.85
467.196	5.85
467.321	37.85
467.446	13.85
467.572	22.85
467.697	29.85
467.822	42.85
467.947	38.85
468.072	20.85
468.197	25.85
468.323	17.85
468.448	21.85
468.573	21.85
468.698	30.85
468.823	36.85
468.948	15.85
469.073	24.85
469.198	30.85
469.324	36.85
469.449	25.85
469.574	49.85
469.699	47.85
469.824	37.85
469.949	13.85
470.074	30.85
470.199	57.85
470.324	51.85
470.449	52.85
470.574	26.85
470.7	26.85
470.825	39.85
470.95	42.85
471.075	23.85
471.2	48.85
471.325	49.85
471.45	39.85
471.575	17.85
471.7	11.85
471.825	28.85
471.95	28.85
472.075	38.85
472.2	35.85
472.325	21.85
472.45	39.85
472.575	22.85
472.7	26.85
472.825	35.85
472.95	43.85
473.075	41.85
473.2	30.85
473.325	38.85
473.45	28.85
473.575	20.85
473.7	38.85
473.825	18.85
473.95	19.85
474.075	20.85
474.2	17.85
474.325	10.85
474.45	40.85
474.574	-2.15
474.699	18.85
474.824	27.85
474.949	1.85
475.074	14.85
475.199	15.85
475.324	18.85
475.449	22.85
475.574	21.85
475.699	21.85
475.824	6.85
475.949	25.85
476.073	14.85
476.198	31.85
476.323	20.85
476.448	9.85
476.573	23.85
476.698	38.85
476.823	22.85
476.947	28.85
477.072	22.85
477.197	14.85
477.322	17.85
477.447	15.85
477.572	27.85
477.697	27.85
477.821	21.85
477.946	30.85
478.071	34.85
478.196	39.85
478.321	33.85
478.445	28.85
478.57	5.85
478.695	18.85
478.82	24.85
478.945	14.85
479.069	30.85
479.194	20.85
479.319	26.85
479.444	40.85
479.569	18.85
479.693	12.85
479.818	18.85
479.943	19.85
480.068	35.85
480.192	29.85
480.317	13.85
480.442	8.85
480.567	14.85
480.691	12.85
480.816	18.85
480.941	3.85
481.066	13.85
481.19	24.85
481.315	20.85
481.44	11.85
481.564	17.85
481.689	24.85
481.814	16.85
481.938	26.85
482.063	-8.15
482.188	21.85
482.313	33.85
482.437	0.85
482.562	10.85
482.687	23.85
482.811	16.85
482.936	-8.15
483.061	22.85
483.185	19.85
483.31	20.85
483.435	6.85
483.559	13.85
483.684	34.85
483.808	39.85
483.933	28.85
484.058	11.85
484.182	21.85
484.307	15.85
484.432	42.85
484.556	1.85
484.681	20.85
484.805	16.85
484.93	18.85
485.055	22.85
485.179	47.85
485.304	33.85
485.428	25.85
485.553	21.85
485.678	26.85
485.802	5.85
485.927	27.85
486.051	18.85
486.176	12.85
486.3	15.85
486.425	27.85
486.549	18.85
486.674	15.85
486.799	7.85
486.923	21.85
487.048	18.85
487.172	8.85
487.297	15.85
487.421	41.85
487.546	32.85
487.67	17.85
487.795	1.85
487.919	23.85
488.044	38.85
488.168	17.85
488.293	21.85
488.417	17.85
488.542	45.85
488.666	20.85
488.791	27.85
488.915	17.85
489.04	17.85
489.164	42.85
489.289	33.85
489.413	13.85
489.538	21.85
489.662	22.85
489.786	6.85
489.911	17.85
490.035	17.85
490.16	15.85
490.284	8.85
490.409	12.85
490.533	17.85
490.658	34.85
490.782	21.85
490.906	45.85
491.031	94.85
491.155	132.85
491.28	153.85
491.404	164.85
491.528	252.85
491.653	147.85
491.777	71.85
491.902	7.85
492.026	25.85
492.15	31.85
492.275	40.85
492.399	36.85
492.524	9.85
492.648	28.85
492.772	31.85
492.897	41.85
493.021	20.85
493.145	44.85
493.27	25.85
493.394	5.85
493.518	21.85
493.643	3.85
493.767	12.85
493.891	3.85
494.016	13.85
494.14	9.85
494.264	25.85
494.389	21.85
494.513	18.85
494.637	5.85
494.762	17.85
494.886	26.85
495.01	35.85
495.134	35.85
495.259	30.85
495.383	13.85
495.507	13.85
495.632	38.85
495.756	51.85
495.88	28.85
496.004	12.85
496.129	4.85
496.253	22.85
496.377	3.85
496.501	31.85
496.626	-5.15
496.75	13.85
496.874	39.85
496.998	19.85
497.123	41.85
497.247	19.85
497.371	9.85
497.495	20.85
497.62	23.85
497.744	34.85
497.868	14.85
497.992	19.85
498.116	11.85
498.241	14.85
498.365	9.85
498.489	5.85
498.613	34.85
498.737	4.85
498.862	10.85
498.986	15.85
499.11	15.85
499.234	6.85
499.358	5.85
499.482	9.85
499.607	24.85
499.731	33.85
499.855	3.85
499.979	23.85
500.103	27.85
500.227	22.85
500.351	20.85
500.476	14.85
500.6	13.85
500.724	9.85
500.848	17.85
500.972	19.85
501.096	27.85
501.22	28.85
501.344	19.85
501.469	22.85
501.593	21.85
501.717	27.85
501.841	27.85
501.965	31.85
502.089	2.85
502.213	27.85
502.337	8.85
502.461	1.85
502.585	33.85
502.709	39.85
502.834	2.85
502.958	17.85
503.082	25.85
503.206	20.85
503.33	30.85
503.454	31.85
503.578	34.85
503.702	34.85
503.826	17.85
503.95	34.85
504.074	31.85
504.198	33.85
504.322	18.85
504.446	1.85
504.57	15.85
504.694	17.85
504.818	14.85
504.942	33.85
505.066	29.85
505.19	29.85
505.314	24.85
505.438	32.85
505.562	6.85
505.686	16.85
505.81	14.85
505.934	46.85
506.058	29.85
506.182	18.85
506.306	31.85
506.43	20.85
506.554	4.85
506.678	22.85
506.802	18.85
506.926	17.85
507.05	23.85
507.174	31.85
507.298	31.85
507.422	24.85
507.546	19.85
507.67	38.85
507.794	2.85
507.918	7.85
508.042	21.85
508.165	15.85
508.289	4.85
508.413	32.85
508.537	12.85
508.661	12.85
508.785	31.85
508.909	16.85
509.033	14.85
509.157	25.85
509.281	26.85
509.405	38.85
509.528	42.85
509.652	31.85
509.776	22.85
509.9	22.85
510.024	34.85
510.148	32.85
510.272	36.85
510.396	27.85
510.519	28.85
510.643	45.85
510.767	18.85
510.891	26.85
511.015	29.85
511.139	48.85
511.263	49.85
511.386	43.85
511.51	39.85
511.634	37.85
511.758	30.85
511.882	35.85
512.006	60.85
512.129	66.85
512.253	90.85
512.377	76.85
512.501	82.85
512.625	105.85
512.748	82.85
512.872	57.85
512.996	43.85
513.12	49.85
513.244	65.85
513.367	63.85
513.491	66.85
513.615	62.85
513.739	58.85
513.862	62.85
513.986	86.85
514.11	102.85
514.234	81.85
514.358	89.85
514.481	130.85
514.605	117.85
514.729	103.85
514.853	133.85
514.976	106.85
515.1	107.85
515.224	117.85
515.348	84.85
515.471	84.85
515.595	90.85
515.719	127.85
515.842	236.85
515.966	287.85
516.09	304.85
516.214	319.85
516.337	330.85
516.461	216.85
516.585	80.85
516.708	25.85
516.832	20.85
516.956	6.85
517.08	26.85
517.203	17.85
517.327	31.85
517.451	22.85
517.574	36.85
517.698	9.85
517.822	24.85
517.945	29.85
518.069	33.85
518.193	33.85
518.316	6.85
518.44	19.85
518.564	5.85
518.687	1.85
518.811	23.85
518.935	31.85
519.058	21.85
519.182	8.85
519.306	25.85
519.429	7.85
519.553	24.85
519.676	31.85
519.8	14.85
519.924	26.85
520.047	13.85
520.171	12.85
520.294	8.85
520.418	30.85
520.542	27.85
520.665	27.85
520.789	23.85
520.913	15.85
521.036	6.85
521.16	6.85
521.283	27.85
521.407	21.85
521.53	27.85
521.654	-2.15
521.778	20.85
521.901	15.85
522.025	2.85
522.148	1.85
522.272	19.85
522.395	27.85
522.519	30.85
522.643	13.85
522.766	7.85
522.89	14.85
523.013	8.85
523.137	1.85
523.26	14.85
523.384	18.85
523.507	27.85
523.631	14.85
523.754	6.85
523.878	11.85
524.002	18.85
524.125	17.85
524.249	-5.15
524.372	16.85
524.496	20.85
524.619	13.85
524.743	29.85
524.866	22.85
524.99	31.85
525.113	8.85
525.237	17.85
525.36	17.85
525.484	15.85
525.607	15.85
525.731	-4.15
525.854	32.85
525.978	26.85
526.101	7.85
526.224	17.85
526.348	6.85
526.471	1.85
526.595	2.85
526.718	19.85
526.842	13.85
526.965	3.85
527.089	3.85
527.212	12.85
527.336	4.85
527.459	18.85
527.582	17.85
527.706	19.85
527.829	17.85
527.953	24.85
528.076	-5.15
528.2	-2.15
528.323	30.85
528.446	26.85
528.57	12.85
528.693	33.85
528.817	3.85
528.94	-4.15
529.064	31.85
529.187	1.85
529.31	11.85
529.434	6.85
529.557	15.85
529.68	21.85
529.804	26.85
529.927	36.85
530.051	18.85
530.174	26.85
530.297	5.85
530.421	21.85
530.544	30.85
530.668	17.85
530.791	-0.15
530.914	25.85
531.038	18.85
531.161	7.85
531.284	17.85
531.408	21.85
531.531	19.85
531.654	27.85
531.778	-5.15
531.901	0.85
532.024	26.85
532.148	19.85
532.271	25.85
532.394	6.85
532.518	25.85
532.641	9.85
532.764	21.85
532.888	21.85
533.011	16.85
533.134	17.85
533.258	28.85
533.381	-6.15
533.504	13.85
533.628	6.85
533.751	19.85
533.874	14.85
533.997	11.85
534.121	4.85
534.244	17.85
534.367	4.85
534.491	2.85
534.614	10.85
534.737	5.85
534.86	29.85
534.984	5.85
535.107	14.85
535.23	11.85
535.354	3.85
535.477	11.85
535.6	-6.15
535.723	22.85
535.847	26.85
535.97	3.85
536.093	21.85
536.216	5.85
536.34	18.85
536.463	12.85
536.586	46.85
536.709	38.85
536.833	10.85
536.956	8.85
537.079	11.85
537.202	31.85
537.325	15.85
537.449	17.85
537.572	16.85
537.695	7.85
537.818	18.85
537.941	9.85
538.065	12.85
538.188	12.85
538.311	29.85
538.434	20.85
538.558	13.85
538.681	43.85
538.804	26.85
538.927	25.85
539.05	14.85
539.173	31.85
539.297	13.85
539.42	24.85
539.543	12.85
539.666	31.85
539.789	22.85
539.913	22.85
540.036	21.85
540.159	29.85
540.282	11.85
540.405	10.85
540.528	10.85
540.651	32.85
540.775	15.85
540.898	31.85
541.021	12.85
541.144	27.85
541.267	34.85
541.39	11.85
541.513	40.85
541.637	26.85
541.76	26.85
541.883	28.85
542.006	36.85
542.129	52.85
542.252	30.85
542.375	35.85
542.498	35.85
542.622	45.85
542.745	24.85
542.868	29.85
542.991	51.85
543.114	49.85
543.237	64.85
543.36	57.85
543.483	67.85
543.606	49.85
543.73	76.85
543.853	71.85
543.976	72.85
544.099	97.85
544.222	107.85
544.345	133.85
544.468	177.85
544.591	219.85
544.714	276.85
544.837	373.85
544.96	436.85
545.083	645.85
545.206	1080.85
545.329	2447.85
545.453	10799.85
545.576	15228.85
545.699	15680.85
545.822	15680.85
545.945	15680.85
546.068	15680.85
546.191	15680.85
546.314	15680.85
546.437	15680.85
546.56	15680.85
546.683	15680.85
546.806	15680.85
546.929	15680.85
547.052	15680.85
547.175	15680.85
547.298	15680.85
547.421	15680.85
547.544	15680.85
547.667	3457.85
547.79	1923.85
547.913	932.85
548.036	848.85
548.159	604.85
548.282	604.85
548.405	475.85
548.528	474.85
548.651	388.85
548.774	396.85
548.897	346.85
549.02	369.85
549.143	303.85
549.266	313.85
549.389	257.85
549.512	269.85
549.635	265.85
549.758	237.85
549.881	199.85
550.004	214.85
550.127	191.85
550.25	187.85
550.373	164.85
550.496	181.85
550.619	157.85
550.742	147.85
550.865	123.85
550.988	162.85
551.111	157.85
551.234	155.85
551.356	127.85
551.479	125.85
551.602	124.85
551.725	122.85
551.848	126.85
551.971	131.85
552.094	141.85
552.217	129.85
552.34	108.85
552.463	102.85
552.586	91.85
552.709	88.85
552.832	135.85
552.955	107.85
553.077	106.85
553.2	112.85
553.323	74.85
553.446	98.85
553.569	75.85
553.692	101.85
553.815	90.85
553.938	102.85
554.061	97.85
554.184	81.85
554.306	67.85
554.429	83.85
554.552	75.85
554.675	82.85
554.798	67.85
554.921	84.85
555.044	60.85
555.167	83.85
555.29	70.85
555.412	81.85
555.535	76.85
555.658	76.85
555.781	74.85
555.904	80.85
556.027	55.85
556.15	78.85
556.272	73.85
556.395	72.85
556.518	58.85
556.641	56.85
556.764	78.85
556.887	68.85
557.01	65.85
557.132	62.85
557.255	59.85
557.378	56.85
557.501	56.85
557.624	72.85
557.747	69.85
557.869	71.85
557.992	98.85
558.115	93.85
558.238	88.85
558.361	89.85
558.483	106.85
558.606	69.85
558.729	39.85
558.852	50.85
558.975	63.85
559.098	52.85
559.22	58.85
559.343	50.85
559.466	55.85
559.589	66.85
559.712	54.85
559.834	51.85
559.957	55.85
560.08	42.85
560.203	73.85
560.325	82.85
560.448	74.85
560.571	57.85
560.694	34.85
560.817	65.85
560.939	73.85
561.062	46.85
561.185	52.85
561.308	62.85
561.43	48.85
561.553	62.85
561.676	58.85
561.799	67.85
561.921	66.85
562.044	69.85
562.167	42.85
562.29	89.85
562.413	73.85
562.535	70.85
562.658	35.85
562.781	39.85
562.903	57.85
563.026	72.85
563.149	125.85
563.272	123.85
563.394	122.85
563.517	99.85
563.64	82.85
563.763	65.85
563.885	66.85
564.008	50.85
564.131	46.85
564.254	28.85
564.376	27.85
564.499	21.85
564.622	18.85
564.744	41.85
564.867	38.85
564.99	34.85
565.113	41.85
565.235	24.85
565.358	35.85
565.481	26.85
565.603	41.85
565.726	43.85
565.849	40.85
565.971	35.85
566.094	28.85
566.217	40.85
566.34	47.85
566.462	59.85
566.585	32.85
566.708	48.85
566.83	28.85
566.953	57.85
567.076	31.85
567.198	24.85
567.321	33.85
567.444	37.85
567.566	32.85
567.689	63.85
567.812	17.85
567.934	33.85
568.057	31.85
568.18	35.85
568.302	22.85
568.425	32.85
568.548	38.85
568.67	40.85
568.793	38.85
568.916	32.85
569.038	44.85
569.161	29.85
569.283	38.85
569.406	21.85
569.529	24.85
569.651	9.85
569.774	20.85
569.897	27.85
570.019	38.85
570.142	43.85
570.265	27.85
570.387	32.85
570.51	43.85
570.632	43.85
570.755	24.85
570.878	25.85
571	47.85
571.123	40.85
571.246	21.85
571.368	10.85
571.491	25.85
571.613	35.85
571.736	17.85
571.859	20.85
571.981	22.85
572.104	38.85
572.226	47.85
572.349	30.85
572.472	32.85
572.594	42.85
572.717	19.85
572.839	19.85
572.962	24.85
573.085	32.85
573.207	23.85
573.33	18.85
573.452	30.85
573.575	37.85
573.697	36.85
573.82	30.85
573.943	22.85
574.065	42.85
574.188	30.85
574.31	38.85
574.433	27.85
574.555	46.85
574.678	24.85
574.801	25.85
574.923	20.85
575.046	24.85
575.168	34.85
575.291	50.85
575.413	20.85
575.536	46.85
575.659	56.85
575.781	44.85
575.904	46.85
576.026	78.85
576.149	89.85
576.271	102.85
576.394	199.85
576.516	525.85
576.639	3619.85
576.761	10002.85
576.884	8787.85
577.007	8671.85
577.129	7891.85
577.252	3653.85
577.374	1305.85
577.497	505.85
577.619	265.85
577.742	177.85
577.864	154.85
577.987	125.85
578.109	131.85
578.232	109.85
578.354	146.85
578.477	183.85
578.599	379.85
578.722	1943.85
578.844	9009.85
578.967	9665.85
579.089	8659.85
579.212	8971.85
579.334	5193.85
579.457	1890.85
579.579	687.85
579.702	322.85
579.824	217.85
579.947	137.85
580.069	106.85
580.192	73.85
580.314	92.85
580.437	75.85
580.559	89.85
580.682	80.85
580.804	73.85
580.927	65.85
581.049	80.85
581.172	49.85
581.294	50.85
581.417	55.85
581.539	52.85
581.662	31.85
581.784	53.85
581.907	49.85
582.029	54.85
582.152	21.85
582.274	60.85
582.396	31.85
582.519	42.85
582.641	29.85
582.764	30.85
582.886	44.85
583.009	23.85
583.131	24.85
583.254	41.85
583.376	49.85
583.499	25.85
583.621	34.85
583.743	30.85
583.866	43.85
583.988	27.85
584.111	50.85
584.233	51.85
584.356	40.85
584.478	27.85
584.601	8.85
584.723	45.85
584.845	29.85
584.968	14.85
585.09	21.85
585.213	35.85
585.335	44.85
585.458	22.85
585.58	11.85
585.702	37.85
585.825	53.85
585.947	30.85
586.07	13.85
586.192	36.85
586.315	26.85
586.437	20.85
586.559	21.85
586.682	13.85
586.804	37.85
586.927	12.85
587.049	21.85
587.171	50.85
587.294	50.85
587.416	47.85
587.539	33.85
587.661	18.85
587.783	22.85
587.906	31.85
588.028	42.85
588.151	20.85
588.273	31.85
588.395	26.85
588.518	25.85
588.64	35.85
588.763	41.85
588.885	30.85
589.007	37.85
589.13	15.85
589.252	7.85
589.375	15.85
589.497	32.85
589.619	14.85
589.742	22.85
589.864	30.85
589.986	19.85
590.109	14.85
590.231	21.85
590.354	30.85
590.476	20.85
590.598	14.85
590.721	13.85
590.843	13.85
590.965	22.85
591.088	35.85
591.21	27.85
591.332	25.85
591.455	21.85
591.577	25.85
591.7	12.85
591.822	23.85
591.944	27.85
592.067	18.85
592.189	29.85
592.311	38.85
592.434	27.85
592.556	22.85
592.678	19.85
592.801	3.85
592.923	34.85
593.045	16.85
593.168	33.85
593.29	13.85
593.412	20.85
593.535	24.85
593.657	30.85
593.779	34.85
593.902	11.85
594.024	21.85
594.146	28.85
594.269	38.85
594.391	11.85
594.513	22.85
594.636	15.85
594.758	11.85
594.88	8.85
595.003	32.85
595.125	11.85
595.247	18.85
595.37	41.85
595.492	6.85
595.614	60.85
595.737	26.85
595.859	31.85
595.981	26.85
596.104	22.85
596.226	18.85
596.348	18.85
596.471	3.85
596.593	36.85
596.715	21.85
596.838	5.85
596.96	11.85
597.082	29.85
597.204	17.85
597.327	17.85
597.449	16.85
597.571	18.85
597.694	23.85
597.816	12.85
597.938	30.85
598.061	10.85
598.183	22.85
598.305	29.85
598.427	11.85
598.55	21.85
598.672	38.85
598.794	29.85
598.917	-3.15
599.039	14.85
599.161	26.85
599.283	10.85
599.406	24.85
599.528	40.85
599.65	36.85
599.773	35.85
599.895	34.85
600.017	29.85
600.139	33.85
600.262	7.85
600.384	16.85
600.506	39.85
600.628	52.85
600.751	42.85
600.873	20.85
600.995	27.85
601.118	40.85
601.24	28.85
601.362	30.85
601.484	34.85
601.607	18.85
601.729	27.85
601.851	17.85
601.973	21.85
602.096	21.85
602.218	26.85
602.34	2.85
602.462	2.85
602.585	19.85
602.707	14.85
602.829	39.85
602.951	15.85
603.074	-3.15
603.196	19.85
603.318	6.85
603.44	22.85
603.563	38.85
603.685	11.85
603.807	17.85
603.929	11.85
604.052	9.85
604.174	27.85
604.296	13.85
604.418	24.85
604.541	39.85
604.663	6.85
604.785	13.85
604.907	15.85
605.03	9.85
605.152	57.85
605.274	18.85
605.396	6.85
605.519	13.85
605.641	27.85
605.763	29.85
605.885	40.85
606.008	32.85
606.13	29.85
606.252	36.85
606.374	7.85
606.496	5.85
606.619	16.85
606.741	10.85
606.863	23.85
606.985	25.85
607.108	15.85
607.23	19.85
607.352	19.85
607.474	23.85
607.596	21.85
607.719	10.85
607.841	23.85
607.963	22.85
608.085	12.85
608.207	43.85
608.33	2.85
608.452	6.85
608.574	-5.15
608.696	25.85
608.819	30.85
608.941	29.85
609.063	24.85
609.185	21.85
609.307	23.85
609.43	33.85
609.552	19.85
609.674	14.85
609.796	11.85
609.918	9.85
610.041	24.85
610.163	13.85
610.285	25.85
610.407	19.85
610.529	15.85
610.652	32.85
610.774	37.85
610.896	23.85
611.018	18.85
611.14	5.85
611.263	-14.15
611.385	11.85
611.507	18.85
611.629	10.85
611.751	23.85
611.873	49.85
611.996	31.85
612.118	21.85
612.24	11.85
612.362	38.85
612.484	40.85
612.607	30.85
612.729	34.85
612.851	37.85
612.973	29.85
613.095	19.85
613.218	12.85
613.34	36.85
613.462	27.85
613.584	11.85
613.706	26.85
613.828	49.85
613.951	23.85
614.073	19.85
614.195	2.85
614.317	30.85
614.439	40.85
614.561	37.85
614.684	25.85
614.806	32.85
614.928	8.85
615.05	15.85
615.172	28.85
615.294	22.85
615.417	13.85
615.539	1.85
615.661	25.85
615.783	33.85
615.905	11.85
616.027	21.85
616.15	13.85
616.272	12.85
616.394	12.85
616.516	34.85
616.638	15.85
616.76	13.85
616.883	17.85
617.005	8.85
617.127	17.85
617.249	23.85
617.371	22.85
617.493	25.85
617.615	26.85
617.738	27.85
617.86	19.85
617.982	10.85
618.104	-1.15
618.226	2.85
618.348	-2.15
618.471	24.85
618.593	20.85
618.715	14.85
618.837	19.85
618.959	3.85
619.081	28.85
619.203	23.85
619.326	30.85
619.448	35.85
619.57	26.85
619.692	26.85
619.814	30.85
619.936	18.85
620.058	25.85
620.181	22.85
620.303	7.85
620.425	21.85
620.547	17.85
620.669	11.85
620.791	17.85
620.913	14.85
621.036	10.85
621.158	17.85
621.28	31.85
621.402	-0.15
621.524	1.85
621.646	25.85
621.768	14.85
621.891	-5.15
622.013	18.85
622.135	14.85
622.257	23.85
622.379	27.85
622.501	10.85
622.623	9.85
622.745	2.85
622.868	7.85
622.99	21.85
623.112	-2.15
623.234	6.85
623.356	21.85
623.478	8.85
623.6	17.85
623.722	14.85
623.845	19.85
623.967	25.85
624.089	31.85
624.211	11.85
624.333	20.85
624.455	28.85
624.577	13.85
624.699	32.85
624.822	24.85
624.944	6.85
625.066	26.85
625.188	2.85
625.31	25.85
625.432	31.85
625.554	23.85
625.676	38.85
625.799	11.85
625.921	24.85
626.043	20.85
626.165	20.85
626.287	15.85
626.409	21.85
626.531	8.85
626.653	17.85
626.775	17.85
626.898	27.85
627.02	25.85
627.142	54.85
627.264	12.85
627.386	18.85
627.508	20.85
627.63	19.85
627.752	26.85
627.874	24.85
627.997	17.85
628.119	10.85
628.241	18.85
628.363	20.85
628.485	27.85
628.607	-8.15
628.729	1.85
628.851	14.85
628.973	15.85
629.096	1.85
629.218	6.85
629.34	8.85
629.462	1.85
629.584	6.85
629.706	24.85
629.828	17.85
629.95	37.85
630.072	4.85
630.195	5.85
630.317	15.85
630.439	3.85
630.561	19.85
630.683	20.85
630.805	12.85
630.927	18.85
631.049	11.85
631.171	7.85
631.293	0.85
631.416	24.85
631.538	5.85
631.66	14.85
631.782	18.85
631.904	17.85
632.026	-0.15
632.148	9.85
632.27	-3.15
632.392	22.85
632.514	18.85
632.637	36.85
632.759	13.85
632.881	-4.15
633.003	-0.15
633.125	5.85
633.247	6.85
633.369	23.85
633.491	0.85
633.613	20.85
633.735	10.85
633.858	17.85
633.98	11.85
634.102	-3.15
634.224	14.85
634.346	10.85
634.468	11.85
634.59	19.85
634.712	15.85
634.834	29.85
634.956	2.85
635.078	-0.15
635.201	3.85
635.323	26.85
635.445	6.85
635.567	7.85
635.689	21.85
635.811	27.85
635.933	-7.15
636.055	8.85
636.177	13.85
636.299	37.85
636.421	14.85
636.544	-6.15
636.666	23.85
636.788	18.85
636.91	27.85
637.032	6.85
637.154	11.85
637.276	30.85
637.398	19.85
637.52	16.85
637.642	1.85
637.764	-2.15
637.887	8.85
638.009	2.85
638.131	-1.15
638.253	2.85
638.375	4.85
638.497	18.85
638.619	9.85
638.741	0.85
638.863	-16.15
638.985	-11.15
639.107	-2.15
639.23	-5.15
639.352	20.85
639.474	8.85
639.596	9.85
639.718	1.85
639.84	5.85
639.962	13.85
640.084	15.85
640.206	27.85
640.328	5.85
640.45	31.85
640.573	4.85
640.695	13.85
640.817	11.85
640.939	25.85
641.061	-2.15
641.183	3.85
641.305	6.85
641.427	4.85
641.549	20.85
641.671	6.85
641.793	2.85
641.915	26.85
642.038	9.85
642.16	5.85
642.282	17.85
642.404	-2.15
642.526	15.85
642.648	12.85
642.77	-0.15
642.892	15.85
643.014	23.85
643.136	9.85
643.258	7.85
643.381	19.85
643.503	26.85
643.625	8.85
643.747	10.85
643.869	1.85
643.991	21.85
644.113	26.85
644.235	17.85
644.357	7.85
644.479	20.85
644.601	3.85
644.723	2.85
644.846	25.85
644.968	29.85
645.09	17.85
645.212	15.85
645.334	15.85
645.456	10.85
645.578	25.85
645.7	10.85
645.822	35.85
645.944	37.85
646.066	15.85
646.188	13.85
646.311	26.85
646.433	2.85
646.555	26.85
646.677	17.85
646.799	15.85
646.921	15.85
647.043	48.85
647.165	3.85
647.287	5.85
647.409	19.85
647.531	18.85
647.654	1.85
647.776	27.85
647.898	22.85
648.02	4.85
648.142	4.85
648.264	8.85
648.386	6.85
648.508	2.85
648.63	9.85
648.752	7.85
648.874	17.85
648.997	13.85
649.119	32.85
649.241	26.85
649.363	24.85
649.485	13.85
649.607	3.85
649.729	-9.15
649.851	7.85
649.973	3.85
650.095	21.85
650.217	14.85
650.34	6.85
650.462	9.85
650.584	17.85
650.706	28.85
650.828	12.85
650.95	5.85
651.072	28.85
651.194	17.85
651.316	4.85
651.438	13.85
651.56	-0.15
651.683	-10.15
651.805	-2.15
651.927	27.85
652.049	10.85
652.171	11.85
652.293	14.85
652.415	26.85
652.537	9.85
652.659	-13.15
652.781	1.85
652.903	21.85
653.026	41.85
653.148	24.85
653.27	17.85
653.392	6.85
653.514	14.85
653.636	23.85
653.758	-8.15
653.88	9.85
654.002	3.85
654.124	10.85
654.247	-10.15
654.369	-6.15
654.491	-1.15
654.613	11.85
654.735	6.85
654.857	3.85
654.979	21.85
655.101	30.85
655.223	32.85
655.345	15.85
655.468	2.85
655.59	5.85
655.712	29.85
655.834	18.85
655.956	15.85
656.078	5.85
656.2	-0.15
656.322	10.85
656.444	-12.15
656.566	21.85
656.689	-7.15
656.811	7.85
656.933	12.85
657.055	-19.15
657.177	7.85
657.299	-0.15
657.421	19.85
657.543	7.85
657.665	8.85
657.787	14.85
657.91	8.85
658.032	4.85
658.154	4.85
658.276	17.85
658.398	-1.15
658.52	20.85
658.642	8.85
658.764	19.85
658.886	4.85
659.009	21.85
659.131	17.85
659.253	4.85
659.375	11.85
659.497	12.85
659.619	14.85
659.741	3.85
659.863	20.85
659.985	-1.15
660.108	9.85
660.23	11.85
660.352	-0.15
660.474	13.85
660.596	26.85
660.718	23.85
660.84	0.85
660.962	15.85
661.084	30.85
661.207	8.85
661.329	11.85
661.451	10.85
661.573	7.85
661.695	21.85
661.817	20.85
661.939	17.85
662.061	23.85
662.184	17.85
662.306	1.85
662.428	17.85
662.55	28.85
662.672	10.85
662.794	9.85
662.916	1.85
663.038	15.85
663.161	18.85
663.283	6.85
663.405	28.85
663.527	-5.15
663.649	15.85
663.771	1.85
663.893	16.85
664.015	8.85
664.138	7.85
664.26	15.85
664.382	6.85
664.504	-9.15
664.626	-2.15
664.748	-2.15
664.87	7.85
664.992	19.85
665.115	17.85
665.237	24.85
665.359	-5.15
665.481	8.85
665.603	9.85
665.725	-1.15
665.847	-2.15
665.97	3.85
666.092	-3.15
666.214	12.85
666.336	1.85
666.458	7.85
666.58	17.85
666.702	7.85
666.825	-0.15
666.947	-4.15
667.069	10.85
667.191	10.85
667.313	19.85
667.435	-3.15
667.557	21.85
667.68	-8.15
667.802	-2.15
667.924	-1.15
668.046	11.85
668.168	24.85
668.29	26.85
668.412	9.85
668.535	8.85
668.657	10.85
668.779	3.85
668.901	2.85
669.023	17.85
669.145	21.85
669.267	17.85
669.39	12.85
669.512	12.85
669.634	13.85
669.756	2.85
669.878	17.85
670	15.85
670.123	13.85
670.245	39.85
670.367	29.85
670.489	25.85
670.611	0.85
670.733	15.85
670.856	2.85
670.978	11.85
671.1	18.85
671.222	20.85
671.344	6.85
671.466	3.85
671.589	-12.15
671.711	-10.15
671.833	10.85
671.955	13.85
672.077	8.85
672.199	34.85
672.322	29.85
672.444	2.85
672.566	17.85
672.688	3.85
672.81	6.85
672.932	15.85
673.055	1.85
673.177	-14.15
673.299	-1.15
673.421	-11.15
673.543	18.85
673.665	15.85
673.788	10.85
673.91	-14.15
674.032	-17.15
674.154	2.85
674.276	11.85
674.399	-3.15
674.521	14.85
674.643	1.85
674.765	8.85
674.887	14.85
675.009	7.85
675.132	-1.15
675.254	6.85
675.376	1.85
675.498	4.85
675.62	25.85
675.743	22.85
675.865	14.85
675.987	1.85
676.109	19.85
676.231	25.85
676.354	19.85
676.476	3.85
676.598	16.85
676.72	13.85
676.842	3.85
676.965	3.85
677.087	23.85
677.209	21.85
677.331	15.85
677.453	10.85
677.576	-1.15
677.698	10.85
677.82	4.85
677.942	-0.15
678.064	7.85
678.187	3.85
678.309	31.85
678.431	-2.15
678.553	14.85
678.675	34.85
678.798	14.85
678.92	-4.15
679.042	0.85
679.164	3.85
679.286	22.85
679.409	12.85
679.531	5.85
679.653	2.85
679.775	-12.15
679.898	4.85
680.02	4.85
680.142	13.85
680.264	12.85
680.386	-7.15
680.509	13.85
680.631	1.85
680.753	6.85
680.875	5.85
680.998	10.85
681.12	-11.15
681.242	14.85
681.364	-9.15
681.486	9.85
681.609	3.85
681.731	1.85
681.853	3.85
681.975	6.85
682.098	22.85
682.22	30.85
682.342	4.85
682.464	14.85
682.587	30.85
682.709	-11.15
682.831	-12.15
682.953	5.85
683.076	28.85
683.198	21.85
683.32	18.85
683.442	31.85
683.565	12.85
683.687	11.85
683.809	18.85
683.931	-5.15
684.054	31.85
684.176	13.85
684.298	24.85
684.42	7.85
684.543	2.85
684.665	1.85
684.787	-2.15
684.909	1.85
685.032	17.85
685.154	2.85
685.276	5.85
685.398	12.85
685.521	2.85
685.643	5.85
685.765	26.85
685.887	18.85
686.01	23.85
686.132	-0.15
686.254	33.85
686.377	15.85
686.499	1.85
686.621	24.85
686.743	10.85
686.866	12.85
686.988	24.85
687.11	23.85
687.232	24.85
687.355	3.85
687.477	-5.15
687.599	-0.15
687.722	5.85
687.844	10.85
687.966	2.85
688.088	2.85
688.211	23.85
688.333	22.85
688.455	1.85
688.578	9.85
688.7	9.85
688.822	13.85
688.944	-1.15
689.067	46.85
689.189	4.85
689.311	-10.15
689.434	11.85
689.556	22.85
689.678	13.85
689.801	-2.15
689.923	25.85
690.045	6.85
690.167	34.85
690.29	11.85
690.412	17.85
690.534	24.85
690.657	7.85
690.779	18.85
690.901	21.85
691.024	20.85
691.146	3.85
691.268	1.85
691.391	21.85
691.513	14.85
691.635	14.85
691.758	18.85
691.88	18.85
692.002	-2.15
692.125	-0.15
692.247	8.85
692.369	8.85
692.492	12.85
692.614	5.85
692.736	-1.15
692.859	-3.15
692.981	13.85
693.103	-9.15
693.226	23.85
693.348	9.85
693.47	20.85
693.593	35.85
693.715	27.85
693.837	39.85
693.96	2.85
694.082	4.85
694.204	20.85
694.327	6.85
694.449	-17.15
694.571	13.85
694.694	12.85
694.816	22.85
694.938	11.85
695.061	6.85
695.183	13.85
695.305	14.85
695.428	-4.15
695.55	-19.15
695.672	-2.15
695.795	4.85
695.917	21.85
696.04	8.85
696.162	1.85
696.284	11.85
696.407	-0.15
696.529	6.85
696.651	23.85
696.774	15.85
696.896	1.85
697.019	-13.15
697.141	-6.15
697.263	3.85
697.386	1.85
697.508	4.85
697.63	9.85
697.753	9.85
697.875	9.85
697.998	-13.15
698.12	18.85
698.242	24.85
698.365	2.85
698.487	9.85
698.61	26.85
698.732	18.85
698.854	23.85
698.977	10.85
699.099	30.85
699.221	3.85
699.344	5.85
699.466	8.85
699.589	8.85
699.711	-20.15
699.834	-0.15
699.956	3.85
700.078	4.85
700.201	3.85
700.323	25.85
700.446	-4.15
700.568	0.85
700.69	7.85
700.813	23.85
700.935	12.85
701.058	4.85
701.18	3.85
701.302	6.85
701.425	-9.15
701.547	22.85
701.67	11.85
701.792	20.85
701.915	9.85
702.037	-1.15
702.159	9.85
702.282	27.85
702.404	-1.15
702.527	31.85
702.649	36.85
702.772	23.85
702.894	4.85
703.017	11.85
703.139	11.85
703.261	34.85
703.384	7.85
703.506	1.85
703.629	6.85
703.751	14.85
703.874	-2.15
703.996	-1.15
704.119	-9.15
704.241	7.85
704.364	-3.15
704.486	17.85
704.608	12.85
704.731	-1.15
704.853	10.85
704.976	-5.15
705.098	7.85
705.221	8.85
705.343	4.85
705.466	6.85
705.588	31.85
705.711	3.85
705.833	18.85
705.956	12.85
706.078	17.85
706.201	1.85
706.323	10.85
706.446	-6.15
