Data from LowRes_mercury_15_20_11_07_2024_HR4C61881__43__15-23-36-571.txt Node

Date: Thu Nov 07 15:23:36 EST 2024
User: crc00042
Spectrometer: HR4C6188
Trigger mode: 4
Integration Time (sec): 1.000000E-1
Scans to average: 1
Electric dark correction enabled: true
Nonlinearity correction enabled: false
Boxcar width: 0
XAxis mode: Wavelengths
Number of Pixels in Spectrum: 3648
>>>>>Begin Spectral Data<<<<<
245.66	-68.31
245.797	-68.31
245.934	-68.31
246.071	-80.31
246.208	2.69
246.344	-6.31
246.481	-14.31
246.618	-7.31
246.755	11.69
246.892	-11.31
247.029	-3.31
247.165	-4.31
247.302	17.69
247.439	3.69
247.576	7.69
247.713	-19.31
247.849	28.69
247.986	-3.31
248.123	10.69
248.26	2.69
248.396	24.69
248.533	20.69
248.67	-4.31
248.806	-5.31
248.943	-4.31
249.08	7.69
249.216	8.69
249.353	-11.31
249.49	-10.31
249.626	-2.31
249.763	-7.31
249.9	1.69
250.036	15.69
250.173	7.69
250.309	-2.31
250.446	4.69
250.582	0.69
250.719	-0.31
250.856	16.69
250.992	12.69
251.129	4.69
251.265	1.69
251.402	8.69
251.538	-11.31
251.675	-15.31
251.811	14.69
251.948	13.69
252.084	0.69
252.221	10.69
252.357	11.69
252.493	37.69
252.63	-11.31
252.766	17.69
252.903	4.69
253.039	3.69
253.175	-2.31
253.312	24.69
253.448	1.69
253.585	-2.31
253.721	28.69
253.857	-14.31
253.994	-2.31
254.13	8.69
254.266	12.69
254.403	23.69
254.539	14.69
254.675	34.69
254.811	34.69
254.948	11.69
255.084	0.69
255.22	-1.31
255.356	1.69
255.493	23.69
255.629	11.69
255.765	12.69
255.901	16.69
256.037	3.69
256.174	18.69
256.31	-13.31
256.446	-9.31
256.582	2.69
256.718	21.69
256.854	29.69
256.991	-6.31
257.127	5.69
257.263	-3.31
257.399	13.69
257.535	-24.31
257.671	8.69
257.807	-1.31
257.943	-1.31
258.079	-7.31
258.215	12.69
258.351	16.69
258.487	-1.31
258.623	19.69
258.759	5.69
258.895	-3.31
259.031	11.69
259.167	-3.31
259.303	25.69
259.439	-9.31
259.575	-4.31
259.711	-8.31
259.847	-4.31
259.983	0.69
260.119	7.69
260.255	-3.31
260.391	4.69
260.527	16.69
260.663	27.69
260.799	7.69
260.934	20.69
261.07	-10.31
261.206	-13.31
261.342	-8.31
261.478	23.69
261.614	5.69
261.749	20.69
261.885	7.69
262.021	-5.31
262.157	24.69
262.293	15.69
262.428	0.69
262.564	-19.31
262.7	13.69
262.836	0.69
262.971	28.69
263.107	18.69
263.243	17.69
263.378	21.69
263.514	-15.31
263.65	4.69
263.785	-3.31
263.921	21.69
264.057	17.69
264.192	22.69
264.328	32.69
264.464	13.69
264.599	2.69
264.735	18.69
264.871	9.69
265.006	-1.31
265.142	2.69
265.277	16.69
265.413	9.69
265.548	13.69
265.684	25.69
265.819	11.69
265.955	7.69
266.091	-7.31
266.226	-0.31
266.362	9.69
266.497	10.69
266.633	9.69
266.768	-10.31
266.903	34.69
267.039	33.69
267.174	6.69
267.31	9.69
267.445	-3.31
267.581	0.69
267.716	10.69
267.851	6.69
267.987	21.69
268.122	32.69
268.258	-4.31
268.393	2.69
268.528	5.69
268.664	0.69
268.799	4.69
268.934	17.69
269.07	12.69
269.205	13.69
269.34	16.69
269.476	1.69
269.611	-13.31
269.746	39.69
269.881	10.69
270.017	17.69
270.152	16.69
270.287	18.69
270.422	15.69
270.558	0.69
270.693	5.69
270.828	-4.31
270.963	-5.31
271.098	0.69
271.234	5.69
271.369	19.69
271.504	3.69
271.639	-2.31
271.774	11.69
271.909	4.69
272.045	-8.31
272.18	-0.31
272.315	-4.31
272.45	19.69
272.585	-22.31
272.72	19.69
272.855	-1.31
272.99	21.69
273.125	-7.31
273.26	4.69
273.395	-9.31
273.53	1.69
273.665	15.69
273.8	13.69
273.935	0.69
274.07	2.69
274.205	-2.31
274.34	1.69
274.475	1.69
274.61	6.69
274.745	0.69
274.88	28.69
275.015	-7.31
275.15	2.69
275.285	18.69
275.42	17.69
275.555	17.69
275.69	13.69
275.825	-16.31
275.959	1.69
276.094	-4.31
276.229	2.69
276.364	-6.31
276.499	-2.31
276.634	13.69
276.768	-4.31
276.903	5.69
277.038	19.69
277.173	17.69
277.308	-0.31
277.442	0.69
277.577	-14.31
277.712	14.69
277.847	13.69
277.981	-5.31
278.116	-7.31
278.251	7.69
278.386	10.69
278.52	9.69
278.655	8.69
278.79	19.69
278.924	11.69
279.059	33.69
279.194	-6.31
279.328	49.69
279.463	20.69
279.598	23.69
279.732	23.69
279.867	13.69
280.001	19.69
280.136	5.69
280.271	24.69
280.405	-3.31
280.54	-10.31
280.674	-8.31
280.809	10.69
280.943	-2.31
281.078	17.69
281.213	36.69
281.347	22.69
281.482	25.69
281.616	-9.31
281.751	19.69
281.885	-19.31
282.02	-4.31
282.154	4.69
282.288	-2.31
282.423	-11.31
282.557	-11.31
282.692	16.69
282.826	0.69
282.961	23.69
283.095	2.69
283.229	-3.31
283.364	5.69
283.498	25.69
283.633	16.69
283.767	-2.31
283.901	-1.31
284.036	-3.31
284.17	7.69
284.304	-1.31
284.439	12.69
284.573	0.69
284.707	30.69
284.842	-1.31
284.976	1.69
285.11	-6.31
285.244	23.69
285.379	42.69
285.513	-4.31
285.647	31.69
285.781	15.69
285.916	26.69
286.05	-5.31
286.184	33.69
286.318	7.69
286.453	1.69
286.587	-11.31
286.721	-10.31
286.855	1.69
286.989	7.69
287.123	9.69
287.258	15.69
287.392	2.69
287.526	10.69
287.66	2.69
287.794	13.69
287.928	2.69
288.062	9.69
288.196	6.69
288.33	9.69
288.464	5.69
288.598	16.69
288.733	28.69
288.867	30.69
289.001	11.69
289.135	-8.31
289.269	-12.31
289.403	13.69
289.537	9.69
289.671	2.69
289.805	-23.31
289.939	8.69
290.073	6.69
290.207	18.69
290.34	0.69
290.474	19.69
290.608	8.69
290.742	1.69
290.876	0.69
291.01	8.69
291.144	42.69
291.278	30.69
291.412	21.69
291.546	5.69
291.679	-7.31
291.813	11.69
291.947	3.69
292.081	0.69
292.215	-14.31
292.349	12.69
292.482	11.69
292.616	16.69
292.75	16.69
292.884	5.69
293.018	19.69
293.151	-14.31
293.285	7.69
293.419	-8.31
293.553	-1.31
293.686	-3.31
293.82	-10.31
293.954	11.69
294.088	33.69
294.221	-0.31
294.355	-19.31
294.489	9.69
294.622	7.69
294.756	21.69
294.89	6.69
295.023	14.69
295.157	3.69
295.291	19.69
295.424	26.69
295.558	27.69
295.691	2.69
295.825	13.69
295.959	14.69
296.092	1.69
296.226	8.69
296.359	12.69
296.493	-0.31
296.627	5.69
296.76	5.69
296.894	6.69
297.027	-4.31
297.161	-4.31
297.294	-13.31
297.428	3.69
297.561	28.69
297.695	-0.31
297.828	8.69
297.962	-4.31
298.095	5.69
298.229	12.69
298.362	8.69
298.495	-13.31
298.629	-3.31
298.762	7.69
298.896	8.69
299.029	-5.31
299.162	9.69
299.296	17.69
299.429	5.69
299.563	6.69
299.696	4.69
299.829	5.69
299.963	12.69
300.096	18.69
300.229	15.69
300.363	9.69
300.496	11.69
300.629	0.69
300.763	12.69
300.896	13.69
301.029	36.69
301.162	8.69
301.296	-6.31
301.429	2.69
301.562	-10.31
301.695	25.69
301.829	17.69
301.962	11.69
302.095	-1.31
302.228	-3.31
302.362	3.69
302.495	8.69
302.628	0.69
302.761	18.69
302.894	-4.31
303.027	27.69
303.161	10.69
303.294	12.69
303.427	11.69
303.56	-0.31
303.693	-8.31
303.826	-5.31
303.959	17.69
304.092	-6.31
304.225	18.69
304.359	4.69
304.492	21.69
304.625	4.69
304.758	17.69
304.891	-7.31
305.024	17.69
305.157	-5.31
305.29	-0.31
305.423	6.69
305.556	32.69
305.689	14.69
305.822	-5.31
305.955	11.69
306.088	1.69
306.221	7.69
306.354	-10.31
306.487	10.69
306.62	-3.31
306.752	-0.31
306.885	13.69
307.018	24.69
307.151	21.69
307.284	10.69
307.417	16.69
307.55	17.69
307.683	-3.31
307.816	4.69
307.948	-2.31
308.081	-1.31
308.214	2.69
308.347	22.69
308.48	10.69
308.613	-1.31
308.745	4.69
308.878	16.69
309.011	9.69
309.144	17.69
309.277	4.69
309.409	20.69
309.542	17.69
309.675	14.69
309.808	9.69
309.94	41.69
310.073	-3.31
310.206	-12.31
310.339	8.69
310.471	-15.31
310.604	13.69
310.737	-7.31
310.869	4.69
311.002	14.69
311.135	16.69
311.267	-13.31
311.4	10.69
311.533	32.69
311.665	-3.31
311.798	-0.31
311.93	11.69
312.063	32.69
312.196	28.69
312.328	83.69
312.461	50.69
312.593	30.69
312.726	54.69
312.859	82.69
312.991	164.69
313.124	43.69
313.256	19.69
313.389	17.69
313.521	-10.31
313.654	-9.31
313.786	-13.31
313.919	-1.31
314.051	2.69
314.184	7.69
314.316	25.69
314.449	-14.31
314.581	2.69
314.714	13.69
314.846	10.69
314.978	-1.31
315.111	-8.31
315.243	8.69
315.376	-3.31
315.508	-2.31
315.641	3.69
315.773	23.69
315.905	-2.31
316.038	4.69
316.17	5.69
316.302	13.69
316.435	8.69
316.567	15.69
316.699	13.69
316.832	-3.31
316.964	3.69
317.096	-14.31
317.229	-2.31
317.361	-2.31
317.493	-1.31
317.625	9.69
317.758	6.69
317.89	8.69
318.022	5.69
318.155	1.69
318.287	0.69
318.419	-7.31
318.551	7.69
318.683	-3.31
318.816	-7.31
318.948	-3.31
319.08	-9.31
319.212	7.69
319.344	10.69
319.477	15.69
319.609	21.69
319.741	10.69
319.873	0.69
320.005	17.69
320.137	8.69
320.269	21.69
320.401	4.69
320.534	19.69
320.666	-17.31
320.798	-5.31
320.93	-8.31
321.062	13.69
321.194	-9.31
321.326	4.69
321.458	19.69
321.59	30.69
321.722	8.69
321.854	-5.31
321.986	-3.31
322.118	-5.31
322.25	-23.31
322.382	-4.31
322.514	-9.31
322.646	-6.31
322.778	23.69
322.91	12.69
323.042	12.69
323.174	11.69
323.306	8.69
323.438	-3.31
323.57	10.69
323.702	8.69
323.834	2.69
323.966	-3.31
324.097	1.69
324.229	18.69
324.361	9.69
324.493	2.69
324.625	-0.31
324.757	5.69
324.889	-5.31
325.021	23.69
325.152	19.69
325.284	27.69
325.416	2.69
325.548	17.69
325.68	7.69
325.811	32.69
325.943	18.69
326.075	-7.31
326.207	14.69
326.339	20.69
326.47	-3.31
326.602	12.69
326.734	17.69
326.866	23.69
326.997	-6.31
327.129	1.69
327.261	0.69
327.392	-3.31
327.524	10.69
327.656	3.69
327.787	16.69
327.919	-3.31
328.051	-0.31
328.182	26.69
328.314	27.69
328.446	-11.31
328.577	23.69
328.709	-8.31
328.841	-7.31
328.972	1.69
329.104	-1.31
329.235	5.69
329.367	10.69
329.499	8.69
329.63	20.69
329.762	-1.31
329.893	24.69
330.025	7.69
330.156	-7.31
330.288	5.69
330.419	15.69
330.551	32.69
330.683	4.69
330.814	7.69
330.946	37.69
331.077	4.69
331.208	-1.31
331.34	7.69
331.471	-2.31
331.603	-2.31
331.734	-5.31
331.866	8.69
331.997	9.69
332.129	8.69
332.26	11.69
332.392	13.69
332.523	-3.31
332.654	6.69
332.786	23.69
332.917	20.69
333.048	22.69
333.18	21.69
333.311	8.69
333.443	5.69
333.574	19.69
333.705	26.69
333.837	31.69
333.968	128.69
334.099	220.69
334.231	215.69
334.362	62.69
334.493	39.69
334.624	30.69
334.756	24.69
334.887	5.69
335.018	6.69
335.15	19.69
335.281	13.69
335.412	29.69
335.543	20.69
335.675	25.69
335.806	24.69
335.937	19.69
336.068	25.69
336.199	50.69
336.331	26.69
336.462	21.69
336.593	24.69
336.724	0.69
336.855	6.69
336.986	32.69
337.118	19.69
337.249	10.69
337.38	24.69
337.511	14.69
337.642	11.69
337.773	13.69
337.904	33.69
338.035	17.69
338.166	-2.31
338.298	11.69
338.429	-8.31
338.56	33.69
338.691	36.69
338.822	31.69
338.953	19.69
339.084	22.69
339.215	12.69
339.346	10.69
339.477	4.69
339.608	17.69
339.739	6.69
339.87	11.69
340.001	13.69
340.132	23.69
340.263	4.69
340.394	17.69
340.525	13.69
340.656	-7.31
340.787	-2.31
340.918	36.69
341.049	24.69
341.179	13.69
341.31	3.69
341.441	16.69
341.572	25.69
341.703	27.69
341.834	0.69
341.965	30.69
342.096	5.69
342.227	29.69
342.357	6.69
342.488	24.69
342.619	10.69
342.75	5.69
342.881	-1.31
343.012	23.69
343.142	44.69
343.273	18.69
343.404	18.69
343.535	53.69
343.666	47.69
343.796	37.69
343.927	37.69
344.058	31.69
344.189	34.69
344.319	27.69
344.45	24.69
344.581	5.69
344.712	3.69
344.842	18.69
344.973	22.69
345.104	38.69
345.234	28.69
345.365	16.69
345.496	15.69
345.626	16.69
345.757	32.69
345.888	5.69
346.018	25.69
346.149	28.69
346.28	53.69
346.41	25.69
346.541	43.69
346.672	36.69
346.802	24.69
346.933	35.69
347.063	20.69
347.194	43.69
347.325	44.69
347.455	42.69
347.586	43.69
347.716	13.69
347.847	27.69
347.977	49.69
348.108	34.69
348.238	35.69
348.369	57.69
348.499	51.69
348.63	36.69
348.76	55.69
348.891	56.69
349.021	63.69
349.152	54.69
349.282	52.69
349.413	45.69
349.543	71.69
349.674	42.69
349.804	47.69
349.935	26.69
350.065	25.69
350.196	29.69
350.326	29.69
350.456	22.69
350.587	38.69
350.717	47.69
350.848	53.69
350.978	21.69
351.108	25.69
351.239	49.69
351.369	23.69
351.499	13.69
351.63	19.69
351.76	8.69
351.89	19.69
352.021	21.69
352.151	21.69
352.281	28.69
352.412	39.69
352.542	18.69
352.672	15.69
352.803	21.69
352.933	26.69
353.063	23.69
353.193	25.69
353.324	26.69
353.454	34.69
353.584	29.69
353.714	22.69
353.845	34.69
353.975	19.69
354.105	23.69
354.235	35.69
354.365	30.69
354.496	24.69
354.626	20.69
354.756	41.69
354.886	18.69
355.016	28.69
355.146	24.69
355.277	27.69
355.407	20.69
355.537	33.69
355.667	29.69
355.797	23.69
355.927	23.69
356.057	34.69
356.187	17.69
356.318	23.69
356.448	36.69
356.578	28.69
356.708	44.69
356.838	46.69
356.968	28.69
357.098	25.69
357.228	37.69
357.358	25.69
357.488	34.69
357.618	58.69
357.748	28.69
357.878	28.69
358.008	11.69
358.138	24.69
358.268	24.69
358.398	23.69
358.528	14.69
358.658	50.69
358.788	24.69
358.918	31.69
359.048	35.69
359.178	46.69
359.308	31.69
359.438	47.69
359.568	44.69
359.698	20.69
359.827	26.69
359.957	18.69
360.087	28.69
360.217	20.69
360.347	28.69
360.477	40.69
360.607	11.69
360.737	49.69
360.866	25.69
360.996	21.69
361.126	24.69
361.256	42.69
361.386	43.69
361.516	63.69
361.645	25.69
361.775	47.69
361.905	28.69
362.035	49.69
362.165	37.69
362.294	46.69
362.424	44.69
362.554	45.69
362.684	43.69
362.813	43.69
362.943	57.69
363.073	72.69
363.203	77.69
363.332	89.69
363.462	73.69
363.592	101.69
363.721	126.69
363.851	177.69
363.981	207.69
364.111	248.69
364.24	311.69
364.37	487.69
364.5	868.69
364.629	1817.69
364.759	3826.69
364.888	6229.69
365.018	9394.69
365.148	14803.69
365.277	12962.69
365.407	4697.69
365.537	3072.69
365.666	3997.69
365.796	1846.69
365.925	784.69
366.055	745.69
366.184	1028.69
366.314	1412.69
366.444	2464.69
366.573	2121.69
366.703	655.69
366.832	217.69
366.962	124.69
367.091	87.69
367.221	70.69
367.35	52.69
367.48	81.69
367.609	58.69
367.739	62.69
367.868	34.69
367.998	60.69
368.127	57.69
368.257	63.69
368.386	66.69
368.516	43.69
368.645	48.69
368.775	59.69
368.904	44.69
369.033	19.69
369.163	4.69
369.292	41.69
369.422	45.69
369.551	43.69
369.68	40.69
369.81	40.69
369.939	32.69
370.069	66.69
370.198	47.69
370.327	32.69
370.457	51.69
370.586	40.69
370.715	37.69
370.845	45.69
370.974	46.69
371.103	61.69
371.233	57.69
371.362	44.69
371.491	28.69
371.621	63.69
371.75	44.69
371.879	46.69
372.008	35.69
372.138	63.69
372.267	56.69
372.396	39.69
372.525	47.69
372.655	40.69
372.784	27.69
372.913	32.69
373.042	47.69
373.172	46.69
373.301	1.69
373.43	22.69
373.559	18.69
373.688	29.69
373.818	34.69
373.947	43.69
374.076	8.69
374.205	29.69
374.334	14.69
374.463	25.69
374.593	41.69
374.722	15.69
374.851	37.69
374.98	20.69
375.109	23.69
375.238	26.69
375.367	41.69
375.496	-1.31
375.625	4.69
375.755	29.69
375.884	43.69
376.013	10.69
376.142	25.69
376.271	1.69
376.4	9.69
376.529	23.69
376.658	36.69
376.787	33.69
376.916	23.69
377.045	11.69
377.174	30.69
377.303	30.69
377.432	42.69
377.561	24.69
377.69	29.69
377.819	49.69
377.948	26.69
378.077	12.69
378.206	17.69
378.335	30.69
378.464	28.69
378.593	39.69
378.722	4.69
378.851	24.69
378.98	45.69
379.108	27.69
379.237	24.69
379.366	41.69
379.495	36.69
379.624	39.69
379.753	32.69
379.882	18.69
380.011	8.69
380.14	1.69
380.268	15.69
380.397	23.69
380.526	37.69
380.655	20.69
380.784	-0.31
380.913	3.69
381.041	-0.31
381.17	-9.31
381.299	7.69
381.428	27.69
381.557	15.69
381.685	2.69
381.814	28.69
381.943	34.69
382.072	29.69
382.2	29.69
382.329	25.69
382.458	27.69
382.587	35.69
382.715	38.69
382.844	35.69
382.973	26.69
383.102	25.69
383.23	16.69
383.359	-2.31
383.488	23.69
383.616	9.69
383.745	1.69
383.874	28.69
384.003	21.69
384.131	14.69
384.26	35.69
384.389	18.69
384.517	11.69
384.646	-4.31
384.774	15.69
384.903	34.69
385.032	36.69
385.16	18.69
385.289	32.69
385.418	24.69
385.546	37.69
385.675	22.69
385.803	3.69
385.932	25.69
386.06	2.69
386.189	12.69
386.318	19.69
386.446	9.69
386.575	33.69
386.703	19.69
386.832	9.69
386.96	-5.31
387.089	24.69
387.217	15.69
387.346	18.69
387.474	25.69
387.603	15.69
387.731	30.69
387.86	14.69
387.988	8.69
388.117	42.69
388.245	27.69
388.374	13.69
388.502	20.69
388.631	12.69
388.759	20.69
388.888	23.69
389.016	14.69
389.144	23.69
389.273	36.69
389.401	7.69
389.53	0.69
389.658	33.69
389.786	26.69
389.915	18.69
390.043	13.69
390.172	24.69
390.3	55.69
390.428	39.69
390.557	24.69
390.685	29.69
390.813	53.69
390.942	35.69
391.07	27.69
391.198	8.69
391.327	13.69
391.455	0.69
391.583	20.69
391.712	26.69
391.84	15.69
391.968	17.69
392.096	16.69
392.225	21.69
392.353	35.69
392.481	28.69
392.609	42.69
392.738	37.69
392.866	33.69
392.994	6.69
393.122	56.69
393.251	18.69
393.379	12.69
393.507	12.69
393.635	19.69
393.764	27.69
393.892	35.69
394.02	18.69
394.148	28.69
394.276	26.69
394.404	56.69
394.533	35.69
394.661	31.69
394.789	58.69
394.917	52.69
395.045	25.69
395.173	14.69
395.302	20.69
395.43	39.69
395.558	29.69
395.686	36.69
395.814	39.69
395.942	30.69
396.07	30.69
396.198	39.69
396.326	44.69
396.454	40.69
396.582	38.69
396.711	19.69
396.839	41.69
396.967	35.69
397.095	30.69
397.223	37.69
397.351	40.69
397.479	38.69
397.607	35.69
397.735	67.69
397.863	52.69
397.991	60.69
398.119	33.69
398.247	46.69
398.375	70.69
398.503	50.69
398.631	59.69
398.759	63.69
398.887	46.69
399.015	49.69
399.143	63.69
399.271	75.69
399.399	73.69
399.526	75.69
399.654	90.69
399.782	65.69
399.91	113.69
400.038	96.69
400.166	81.69
400.294	105.69
400.422	82.69
400.55	93.69
400.678	109.69
400.805	96.69
400.933	119.69
401.061	123.69
401.189	120.69
401.317	139.69
401.445	113.69
401.573	71.69
401.7	62.69
401.828	53.69
401.956	53.69
402.084	48.69
402.212	46.69
402.34	37.69
402.467	43.69
402.595	43.69
402.723	45.69
402.851	56.69
402.978	57.69
403.106	83.69
403.234	96.69
403.362	114.69
403.489	133.69
403.617	147.69
403.745	211.69
403.873	286.69
404	573.69
404.128	1427.69
404.256	3867.69
404.384	5020.69
404.511	5377.69
404.639	7124.69
404.767	11396.69
404.894	14574.69
405.022	4872.69
405.15	1296.69
405.277	428.69
405.405	233.69
405.533	123.69
405.66	100.69
405.788	63.69
405.916	65.69
406.043	48.69
406.171	59.69
406.299	59.69
406.426	63.69
406.554	48.69
406.681	65.69
406.809	56.69
406.937	60.69
407.064	59.69
407.192	132.69
407.319	304.69
407.447	521.69
407.574	537.69
407.702	638.69
407.83	834.69
407.957	1598.69
408.085	950.69
408.212	266.69
408.34	96.69
408.467	67.69
408.595	69.69
408.722	54.69
408.85	66.69
408.977	23.69
409.105	52.69
409.232	39.69
409.36	20.69
409.487	23.69
409.615	32.69
409.742	47.69
409.87	47.69
409.997	26.69
410.125	37.69
410.252	49.69
410.379	28.69
410.507	57.69
410.634	44.69
410.762	24.69
410.889	49.69
411.017	37.69
411.144	13.69
411.271	19.69
411.399	21.69
411.526	37.69
411.653	22.69
411.781	37.69
411.908	29.69
412.036	30.69
412.163	33.69
412.29	28.69
412.418	36.69
412.545	43.69
412.672	26.69
412.8	75.69
412.927	38.69
413.054	54.69
413.182	31.69
413.309	32.69
413.436	27.69
413.564	19.69
413.691	27.69
413.818	38.69
413.945	8.69
414.073	23.69
414.2	25.69
414.327	27.69
414.454	35.69
414.582	47.69
414.709	0.69
414.836	16.69
414.963	32.69
415.091	43.69
415.218	38.69
415.345	23.69
415.472	30.69
415.6	30.69
415.727	21.69
415.854	30.69
415.981	28.69
416.108	28.69
416.236	32.69
416.363	23.69
416.49	33.69
416.617	21.69
416.744	35.69
416.871	34.69
416.998	24.69
417.126	41.69
417.253	35.69
417.38	17.69
417.507	47.69
417.634	28.69
417.761	22.69
417.888	30.69
418.015	34.69
418.143	37.69
418.27	43.69
418.397	29.69
418.524	31.69
418.651	45.69
418.778	25.69
418.905	43.69
419.032	43.69
419.159	50.69
419.286	50.69
419.413	49.69
419.54	37.69
419.667	33.69
419.794	35.69
419.921	52.69
420.048	56.69
420.175	53.69
420.302	45.69
420.429	31.69
420.556	66.69
420.683	50.69
420.81	46.69
420.937	77.69
421.064	57.69
421.191	68.69
421.318	67.69
421.445	84.69
421.572	69.69
421.699	67.69
421.826	37.69
421.953	27.69
422.08	35.69
422.207	18.69
422.334	20.69
422.461	31.69
422.588	24.69
422.714	31.69
422.841	44.69
422.968	37.69
423.095	24.69
423.222	17.69
423.349	33.69
423.476	32.69
423.603	24.69
423.729	-6.31
423.856	31.69
423.983	34.69
424.11	1.69
424.237	32.69
424.364	31.69
424.491	30.69
424.617	-6.31
424.744	26.69
424.871	27.69
424.998	-0.31
425.125	32.69
425.251	43.69
425.378	16.69
425.505	21.69
425.632	33.69
425.758	4.69
425.885	24.69
426.012	32.69
426.139	38.69
426.266	25.69
426.392	50.69
426.519	40.69
426.646	38.69
426.772	38.69
426.899	10.69
427.026	26.69
427.153	23.69
427.279	46.69
427.406	30.69
427.533	17.69
427.659	16.69
427.786	32.69
427.913	39.69
428.039	24.69
428.166	19.69
428.293	23.69
428.419	29.69
428.546	31.69
428.673	15.69
428.799	17.69
428.926	29.69
429.053	34.69
429.179	42.69
429.306	27.69
429.433	36.69
429.559	28.69
429.686	9.69
429.812	19.69
429.939	9.69
430.066	16.69
430.192	18.69
430.319	38.69
430.445	41.69
430.572	48.69
430.699	21.69
430.825	22.69
430.952	35.69
431.078	17.69
431.205	34.69
431.331	43.69
431.458	44.69
431.584	30.69
431.711	10.69
431.837	37.69
431.964	39.69
432.09	26.69
432.217	11.69
432.343	36.69
432.47	43.69
432.596	19.69
432.723	21.69
432.849	28.69
432.976	45.69
433.102	28.69
433.229	30.69
433.355	67.69
433.482	97.69
433.608	110.69
433.735	119.69
433.861	100.69
433.987	170.69
434.114	187.69
434.24	177.69
434.367	225.69
434.493	219.69
434.62	283.69
434.746	380.69
434.872	639.69
434.999	837.69
435.125	1736.69
435.252	5455.69
435.378	13328.69
435.504	15174.69
435.631	15394.69
435.757	15686.69
435.883	15686.69
436.01	15686.69
436.136	15686.69
436.262	15686.69
436.389	3451.69
436.515	2001.69
436.641	775.69
436.768	627.69
436.894	381.69
437.02	387.69
437.147	285.69
437.273	291.69
437.399	203.69
437.526	238.69
437.652	185.69
437.778	191.69
437.904	142.69
438.031	158.69
438.157	143.69
438.283	166.69
438.409	107.69
438.536	142.69
438.662	138.69
438.788	140.69
438.914	129.69
439.041	111.69
439.167	115.69
439.293	107.69
439.419	93.69
439.546	96.69
439.672	93.69
439.798	112.69
439.924	90.69
440.05	95.69
440.177	94.69
440.303	72.69
440.429	67.69
440.555	83.69
440.681	65.69
440.807	73.69
440.934	41.69
441.06	84.69
441.186	46.69
441.312	56.69
441.438	72.69
441.564	80.69
441.69	85.69
441.816	66.69
441.943	48.69
442.069	58.69
442.195	67.69
442.321	55.69
442.447	36.69
442.573	28.69
442.699	29.69
442.825	34.69
442.951	59.69
443.077	79.69
443.203	52.69
443.33	49.69
443.456	42.69
443.582	50.69
443.708	33.69
443.834	48.69
443.96	56.69
444.086	55.69
444.212	56.69
444.338	61.69
444.464	66.69
444.59	60.69
444.716	47.69
444.842	30.69
444.968	47.69
445.094	44.69
445.22	25.69
445.346	33.69
445.472	38.69
445.598	47.69
445.724	55.69
445.85	60.69
445.976	45.69
446.102	28.69
446.228	56.69
446.354	54.69
446.48	36.69
446.605	43.69
446.731	32.69
446.857	34.69
446.983	47.69
447.109	31.69
447.235	44.69
447.361	28.69
447.487	32.69
447.613	43.69
447.739	23.69
447.865	48.69
447.99	36.69
448.116	35.69
448.242	45.69
448.368	30.69
448.494	36.69
448.62	24.69
448.746	28.69
448.872	21.69
448.997	23.69
449.123	18.69
449.249	38.69
449.375	48.69
449.501	24.69
449.627	3.69
449.752	45.69
449.878	25.69
450.004	36.69
450.13	21.69
450.256	31.69
450.381	26.69
450.507	44.69
450.633	27.69
450.759	46.69
450.884	26.69
451.01	55.69
451.136	31.69
451.262	33.69
451.388	28.69
451.513	22.69
451.639	40.69
451.765	32.69
451.89	31.69
452.016	14.69
452.142	23.69
452.268	46.69
452.393	22.69
452.519	26.69
452.645	43.69
452.771	22.69
452.896	21.69
453.022	19.69
453.148	41.69
453.273	39.69
453.399	46.69
453.525	25.69
453.65	11.69
453.776	53.69
453.902	29.69
454.027	38.69
454.153	34.69
454.279	30.69
454.404	16.69
454.53	46.69
454.656	58.69
454.781	49.69
454.907	36.69
455.032	32.69
455.158	47.69
455.284	44.69
455.409	47.69
455.535	29.69
455.66	38.69
455.786	30.69
455.912	38.69
456.037	30.69
456.163	55.69
456.288	40.69
456.414	15.69
456.539	28.69
456.665	38.69
456.791	25.69
456.916	12.69
457.042	31.69
457.167	6.69
457.293	36.69
457.418	38.69
457.544	31.69
457.669	30.69
457.795	34.69
457.92	28.69
458.046	19.69
458.171	29.69
458.297	23.69
458.422	20.69
458.548	30.69
458.673	32.69
458.799	29.69
458.924	23.69
459.05	13.69
459.175	24.69
459.301	36.69
459.426	38.69
459.552	20.69
459.677	25.69
459.803	44.69
459.928	30.69
460.053	27.69
460.179	25.69
460.304	31.69
460.43	19.69
460.555	15.69
460.681	39.69
460.806	27.69
460.931	10.69
461.057	24.69
461.182	25.69
461.308	47.69
461.433	37.69
461.558	44.69
461.684	63.69
461.809	46.69
461.934	28.69
462.06	23.69
462.185	10.69
462.311	18.69
462.436	32.69
462.561	33.69
462.687	17.69
462.812	30.69
462.937	25.69
463.063	27.69
463.188	7.69
463.313	43.69
463.439	37.69
463.564	31.69
463.689	32.69
463.814	30.69
463.94	25.69
464.065	31.69
464.19	46.69
464.316	15.69
464.441	16.69
464.566	27.69
464.692	25.69
464.817	36.69
464.942	29.69
465.067	34.69
465.193	16.69
465.318	27.69
465.443	26.69
465.568	31.69
465.694	33.69
465.819	30.69
465.944	23.69
466.069	29.69
466.194	33.69
466.32	40.69
466.445	35.69
466.57	42.69
466.695	47.69
466.82	34.69
466.946	35.69
467.071	29.69
467.196	12.69
467.321	44.69
467.446	20.69
467.572	32.69
467.697	37.69
467.822	43.69
467.947	43.69
468.072	21.69
468.197	33.69
468.323	28.69
468.448	30.69
468.573	32.69
468.698	31.69
468.823	42.69
468.948	33.69
469.073	37.69
469.198	52.69
469.324	55.69
469.449	30.69
469.574	63.69
469.699	47.69
469.824	37.69
469.949	30.69
470.074	30.69
470.199	56.69
470.324	40.69
470.449	37.69
470.574	27.69
470.7	22.69
470.825	48.69
470.95	57.69
471.075	34.69
471.2	31.69
471.325	41.69
471.45	41.69
471.575	39.69
471.7	23.69
471.825	27.69
471.95	29.69
472.075	17.69
472.2	29.69
472.325	31.69
472.45	41.69
472.575	36.69
472.7	27.69
472.825	45.69
472.95	43.69
473.075	25.69
473.2	39.69
473.325	37.69
473.45	44.69
473.575	27.69
473.7	58.69
473.825	41.69
473.95	18.69
474.075	31.69
474.2	9.69
474.325	17.69
474.45	31.69
474.574	32.69
474.699	42.69
474.824	48.69
474.949	33.69
475.074	22.69
475.199	17.69
475.324	28.69
475.449	-0.31
475.574	23.69
475.699	28.69
475.824	37.69
475.949	31.69
476.073	2.69
476.198	23.69
476.323	25.69
476.448	32.69
476.573	28.69
476.698	37.69
476.823	25.69
476.947	24.69
477.072	15.69
477.197	35.69
477.322	28.69
477.447	18.69
477.572	17.69
477.697	26.69
477.821	28.69
477.946	35.69
478.071	33.69
478.196	35.69
478.321	26.69
478.445	28.69
478.57	9.69
478.695	20.69
478.82	27.69
478.945	30.69
479.069	-0.31
479.194	21.69
479.319	28.69
479.444	30.69
479.569	16.69
479.693	31.69
479.818	29.69
479.943	39.69
480.068	27.69
480.192	31.69
480.317	30.69
480.442	23.69
480.567	15.69
480.691	19.69
480.816	8.69
480.941	-2.31
481.066	7.69
481.19	21.69
481.315	24.69
481.44	26.69
481.564	-0.31
481.689	35.69
481.814	29.69
481.938	41.69
482.063	15.69
482.188	9.69
482.313	33.69
482.437	17.69
482.562	36.69
482.687	19.69
482.811	29.69
482.936	30.69
483.061	23.69
483.185	21.69
483.31	37.69
483.435	28.69
483.559	26.69
483.684	32.69
483.808	38.69
483.933	33.69
484.058	26.69
484.182	18.69
484.307	7.69
484.432	32.69
484.556	23.69
484.681	23.69
484.805	9.69
484.93	21.69
485.055	21.69
485.179	57.69
485.304	30.69
485.428	27.69
485.553	9.69
485.678	14.69
485.802	15.69
485.927	37.69
486.051	35.69
486.176	36.69
486.3	19.69
486.425	28.69
486.549	37.69
486.674	24.69
486.799	18.69
486.923	35.69
487.048	19.69
487.172	31.69
487.297	26.69
487.421	37.69
487.546	23.69
487.67	30.69
487.795	11.69
487.919	23.69
488.044	40.69
488.168	28.69
488.293	13.69
488.417	11.69
488.542	27.69
488.666	37.69
488.791	35.69
488.915	33.69
489.04	20.69
489.164	34.69
489.289	32.69
489.413	28.69
489.538	26.69
489.662	27.69
489.786	1.69
489.911	17.69
490.035	22.69
490.16	13.69
490.284	13.69
490.409	14.69
490.533	25.69
490.658	53.69
490.782	31.69
490.906	57.69
491.031	125.69
491.155	145.69
491.28	157.69
491.404	183.69
491.528	261.69
491.653	163.69
491.777	75.69
491.902	39.69
492.026	24.69
492.15	35.69
492.275	59.69
492.399	20.69
492.524	25.69
492.648	36.69
492.772	20.69
492.897	17.69
493.021	8.69
493.145	26.69
493.27	34.69
493.394	12.69
493.518	7.69
493.643	32.69
493.767	40.69
493.891	16.69
494.016	16.69
494.14	28.69
494.264	30.69
494.389	35.69
494.513	17.69
494.637	20.69
494.762	24.69
494.886	32.69
495.01	17.69
495.134	30.69
495.259	32.69
495.383	24.69
495.507	-2.31
495.632	21.69
495.756	49.69
495.88	34.69
496.004	24.69
496.129	19.69
496.253	32.69
496.377	24.69
496.501	32.69
496.626	9.69
496.75	20.69
496.874	28.69
496.998	20.69
497.123	31.69
497.247	24.69
497.371	15.69
497.495	19.69
497.62	37.69
497.744	24.69
497.868	33.69
497.992	26.69
498.116	11.69
498.241	33.69
498.365	28.69
498.489	15.69
498.613	24.69
498.737	-2.31
498.862	26.69
498.986	23.69
499.11	17.69
499.234	19.69
499.358	23.69
499.482	29.69
499.607	36.69
499.731	31.69
499.855	48.69
499.979	23.69
500.103	28.69
500.227	33.69
500.351	25.69
500.476	27.69
500.6	-1.31
500.724	19.69
500.848	18.69
500.972	28.69
501.096	23.69
501.22	17.69
501.344	22.69
501.469	22.69
501.593	25.69
501.717	31.69
501.841	17.69
501.965	29.69
502.089	21.69
502.213	24.69
502.337	13.69
502.461	20.69
502.585	16.69
502.709	29.69
502.834	2.69
502.958	16.69
503.082	17.69
503.206	25.69
503.33	32.69
503.454	21.69
503.578	36.69
503.702	31.69
503.826	23.69
503.95	19.69
504.074	28.69
504.198	20.69
504.322	10.69
504.446	25.69
504.57	48.69
504.694	17.69
504.818	12.69
504.942	30.69
505.066	3.69
505.19	15.69
505.314	27.69
505.438	30.69
505.562	31.69
505.686	34.69
505.81	21.69
505.934	40.69
506.058	36.69
506.182	33.69
506.306	37.69
506.43	18.69
506.554	26.69
506.678	7.69
506.802	17.69
506.926	45.69
507.05	26.69
507.174	38.69
507.298	28.69
507.422	33.69
507.546	30.69
507.67	44.69
507.794	26.69
507.918	18.69
508.042	18.69
508.165	0.69
508.289	6.69
508.413	4.69
508.537	17.69
508.661	19.69
508.785	22.69
508.909	48.69
509.033	37.69
509.157	38.69
509.281	28.69
509.405	23.69
509.528	48.69
509.652	50.69
509.776	31.69
509.9	53.69
510.024	40.69
510.148	33.69
510.272	30.69
510.396	36.69
510.519	46.69
510.643	65.69
510.767	40.69
510.891	53.69
511.015	27.69
511.139	41.69
511.263	75.69
511.386	46.69
511.51	50.69
511.634	41.69
511.758	45.69
511.882	40.69
512.006	61.69
512.129	63.69
512.253	82.69
512.377	80.69
512.501	91.69
512.625	96.69
512.748	99.69
512.872	94.69
512.996	36.69
513.12	51.69
513.244	51.69
513.367	69.69
513.491	73.69
513.615	75.69
513.739	75.69
513.862	84.69
513.986	84.69
514.11	98.69
514.234	77.69
514.358	110.69
514.481	108.69
514.605	96.69
514.729	135.69
514.853	137.69
514.976	101.69
515.1	90.69
515.224	109.69
515.348	100.69
515.471	81.69
515.595	99.69
515.719	132.69
515.842	244.69
515.966	274.69
516.09	292.69
516.214	297.69
516.337	347.69
516.461	215.69
516.585	94.69
516.708	52.69
516.832	40.69
516.956	25.69
517.08	19.69
517.203	8.69
517.327	22.69
517.451	38.69
517.574	29.69
517.698	24.69
517.822	24.69
517.945	36.69
518.069	35.69
518.193	45.69
518.316	25.69
518.44	24.69
518.564	14.69
518.687	1.69
518.811	30.69
518.935	33.69
519.058	25.69
519.182	21.69
519.306	34.69
519.429	4.69
519.553	55.69
519.676	30.69
519.8	18.69
519.924	7.69
520.047	12.69
520.171	14.69
520.294	28.69
520.418	41.69
520.542	16.69
520.665	43.69
520.789	36.69
520.913	7.69
521.036	12.69
521.16	17.69
521.283	14.69
521.407	7.69
521.53	15.69
521.654	-4.31
521.778	15.69
521.901	20.69
522.025	30.69
522.148	-0.31
522.272	25.69
522.395	17.69
522.519	33.69
522.643	5.69
522.766	25.69
522.89	22.69
523.013	31.69
523.137	22.69
523.26	13.69
523.384	24.69
523.507	27.69
523.631	21.69
523.754	5.69
523.878	18.69
524.002	25.69
524.125	18.69
524.249	8.69
524.372	27.69
524.496	20.69
524.619	35.69
524.743	32.69
524.866	20.69
524.99	24.69
525.113	8.69
525.237	27.69
525.36	23.69
525.484	18.69
525.607	14.69
525.731	6.69
525.854	24.69
525.978	37.69
526.101	17.69
526.224	29.69
526.348	32.69
526.471	23.69
526.595	22.69
526.718	11.69
526.842	20.69
526.965	35.69
527.089	24.69
527.212	37.69
527.336	12.69
527.459	9.69
527.582	18.69
527.706	48.69
527.829	27.69
527.953	21.69
528.076	14.69
528.2	19.69
528.323	34.69
528.446	21.69
528.57	27.69
528.693	21.69
528.817	23.69
528.94	34.69
529.064	45.69
529.187	23.69
529.31	7.69
529.434	9.69
529.557	18.69
529.68	12.69
529.804	27.69
529.927	21.69
530.051	23.69
530.174	4.69
530.297	29.69
530.421	31.69
530.544	21.69
530.668	23.69
530.791	14.69
530.914	13.69
531.038	24.69
531.161	16.69
531.284	20.69
531.408	15.69
531.531	15.69
531.654	15.69
531.778	4.69
531.901	20.69
532.024	24.69
532.148	17.69
532.271	36.69
532.394	20.69
532.518	32.69
532.641	27.69
532.764	20.69
532.888	20.69
533.011	-7.31
533.134	13.69
533.258	35.69
533.381	3.69
533.504	26.69
533.628	26.69
533.751	28.69
533.874	17.69
533.997	26.69
534.121	9.69
534.244	16.69
534.367	8.69
534.491	10.69
534.614	21.69
534.737	20.69
534.86	21.69
534.984	-7.31
535.107	16.69
535.23	23.69
535.354	33.69
535.477	23.69
535.6	11.69
535.723	31.69
535.847	20.69
535.97	11.69
536.093	17.69
536.216	19.69
536.34	27.69
536.463	17.69
536.586	19.69
536.709	15.69
536.833	25.69
536.956	15.69
537.079	8.69
537.202	35.69
537.325	25.69
537.449	7.69
537.572	20.69
537.695	13.69
537.818	-7.31
537.941	9.69
538.065	21.69
538.188	13.69
538.311	39.69
538.434	26.69
538.558	12.69
538.681	37.69
538.804	33.69
538.927	27.69
539.05	33.69
539.173	18.69
539.297	15.69
539.42	14.69
539.543	8.69
539.666	38.69
539.789	28.69
539.913	42.69
540.036	29.69
540.159	34.69
540.282	12.69
540.405	17.69
540.528	24.69
540.651	41.69
540.775	37.69
540.898	36.69
541.021	13.69
541.144	28.69
541.267	17.69
541.39	28.69
541.513	43.69
541.637	27.69
541.76	35.69
541.883	31.69
542.006	49.69
542.129	60.69
542.252	47.69
542.375	50.69
542.498	40.69
542.622	58.69
542.745	48.69
542.868	45.69
542.991	57.69
543.114	72.69
543.237	49.69
543.36	57.69
543.483	57.69
543.606	81.69
543.73	81.69
543.853	79.69
543.976	77.69
544.099	110.69
544.222	127.69
544.345	133.69
544.468	175.69
544.591	212.69
544.714	261.69
544.837	362.69
544.96	418.69
545.083	617.69
545.206	1066.69
545.329	2431.69
545.453	10877.69
545.576	15253.69
545.699	15686.69
545.822	15686.69
545.945	15686.69
546.068	15686.69
546.191	15686.69
546.314	15686.69
546.437	15686.69
546.56	15686.69
546.683	15686.69
546.806	15686.69
546.929	15686.69
547.052	15686.69
547.175	15686.69
547.298	15686.69
547.421	15686.69
547.544	15686.69
547.667	3498.69
547.79	2233.69
547.913	978.69
548.036	880.69
548.159	626.69
548.282	623.69
548.405	479.69
548.528	464.69
548.651	366.69
548.774	395.69
548.897	343.69
549.02	353.69
549.143	321.69
549.266	292.69
549.389	277.69
549.512	262.69
549.635	252.69
549.758	246.69
549.881	235.69
550.004	226.69
550.127	209.69
550.25	194.69
550.373	154.69
550.496	201.69
550.619	167.69
550.742	154.69
550.865	141.69
550.988	174.69
551.111	160.69
551.234	157.69
551.356	133.69
551.479	124.69
551.602	119.69
551.725	140.69
551.848	129.69
551.971	137.69
552.094	122.69
552.217	116.69
552.34	99.69
552.463	89.69
552.586	104.69
552.709	109.69
552.832	116.69
552.955	115.69
553.077	104.69
553.2	110.69
553.323	79.69
553.446	96.69
553.569	83.69
553.692	118.69
553.815	96.69
553.938	105.69
554.061	107.69
554.184	88.69
554.306	91.69
554.429	85.69
554.552	77.69
554.675	78.69
554.798	56.69
554.921	101.69
555.044	71.69
555.167	67.69
555.29	72.69
555.412	70.69
555.535	71.69
555.658	72.69
555.781	87.69
555.904	67.69
556.027	74.69
556.15	94.69
556.272	76.69
556.395	87.69
556.518	55.69
556.641	77.69
556.764	96.69
556.887	101.69
557.01	62.69
557.132	51.69
557.255	72.69
557.378	67.69
557.501	71.69
557.624	77.69
557.747	67.69
557.869	81.69
557.992	84.69
558.115	117.69
558.238	100.69
558.361	107.69
558.483	129.69
558.606	79.69
558.729	51.69
558.852	81.69
558.975	59.69
559.098	75.69
559.22	48.69
559.343	61.69
559.466	58.69
559.589	47.69
559.712	47.69
559.834	42.69
559.957	56.69
560.08	57.69
560.203	73.69
560.325	71.69
560.448	76.69
560.571	39.69
560.694	54.69
560.817	72.69
560.939	62.69
561.062	72.69
561.185	80.69
561.308	58.69
561.43	44.69
561.553	67.69
561.676	42.69
561.799	80.69
561.921	61.69
562.044	79.69
562.167	59.69
562.29	74.69
562.413	75.69
562.535	82.69
562.658	55.69
562.781	71.69
562.903	64.69
563.026	96.69
563.149	142.69
563.272	129.69
563.394	107.69
563.517	112.69
563.64	55.69
563.763	41.69
563.885	58.69
564.008	60.69
564.131	64.69
564.254	31.69
564.376	48.69
564.499	32.69
564.622	34.69
564.744	50.69
564.867	29.69
564.99	51.69
565.113	59.69
565.235	48.69
565.358	40.69
565.481	23.69
565.603	27.69
565.726	40.69
565.849	46.69
565.971	48.69
566.094	41.69
566.217	61.69
566.34	57.69
566.462	46.69
566.585	56.69
566.708	65.69
566.83	43.69
566.953	39.69
567.076	58.69
567.198	45.69
567.321	38.69
567.444	33.69
567.566	31.69
567.689	36.69
567.812	38.69
567.934	33.69
568.057	39.69
568.18	48.69
568.302	46.69
568.425	38.69
568.548	46.69
568.67	48.69
568.793	55.69
568.916	37.69
569.038	19.69
569.161	35.69
569.283	37.69
569.406	32.69
569.529	31.69
569.651	29.69
569.774	28.69
569.897	28.69
570.019	56.69
570.142	44.69
570.265	35.69
570.387	34.69
570.51	48.69
570.632	34.69
570.755	27.69
570.878	33.69
571	31.69
571.123	34.69
571.246	47.69
571.368	42.69
571.491	25.69
571.613	34.69
571.736	24.69
571.859	26.69
571.981	13.69
572.104	27.69
572.226	40.69
572.349	24.69
572.472	41.69
572.594	39.69
572.717	47.69
572.839	31.69
572.962	33.69
573.085	62.69
573.207	38.69
573.33	37.69
573.452	23.69
573.575	43.69
573.697	33.69
573.82	34.69
573.943	24.69
574.065	36.69
574.188	41.69
574.31	33.69
574.433	39.69
574.555	53.69
574.678	41.69
574.801	40.69
574.923	27.69
575.046	40.69
575.168	32.69
575.291	21.69
575.413	39.69
575.536	48.69
575.659	56.69
575.781	49.69
575.904	64.69
576.026	74.69
576.149	92.69
576.271	115.69
576.394	199.69
576.516	514.69
576.639	3582.69
576.761	10059.69
576.884	8741.69
577.007	8660.69
577.129	7973.69
577.252	3695.69
577.374	1271.69
577.497	496.69
577.619	299.69
577.742	180.69
577.864	173.69
577.987	133.69
578.109	136.69
578.232	132.69
578.354	154.69
578.477	201.69
578.599	392.69
578.722	1922.69
578.844	9039.69
578.967	9759.69
579.089	8697.69
579.212	8994.69
579.334	5231.69
579.457	1880.69
579.579	712.69
579.702	301.69
579.824	195.69
579.947	126.69
580.069	126.69
580.192	91.69
580.314	115.69
580.437	84.69
580.559	88.69
580.682	55.69
580.804	71.69
580.927	65.69
581.049	72.69
581.172	67.69
581.294	49.69
581.417	44.69
581.539	46.69
581.662	48.69
581.784	39.69
581.907	37.69
582.029	48.69
582.152	35.69
582.274	59.69
582.396	52.69
582.519	41.69
582.641	17.69
582.764	32.69
582.886	61.69
583.009	30.69
583.131	21.69
583.254	44.69
583.376	49.69
583.499	37.69
583.621	21.69
583.743	48.69
583.866	37.69
583.988	37.69
584.111	39.69
584.233	39.69
584.356	26.69
584.478	38.69
584.601	26.69
584.723	17.69
584.845	45.69
584.968	21.69
585.09	41.69
585.213	29.69
585.335	28.69
585.458	31.69
585.58	31.69
585.702	51.69
585.825	44.69
585.947	32.69
586.07	29.69
586.192	19.69
586.315	49.69
586.437	27.69
586.559	24.69
586.682	22.69
586.804	19.69
586.927	18.69
587.049	29.69
587.171	35.69
587.294	59.69
587.416	66.69
587.539	36.69
587.661	25.69
587.783	28.69
587.906	20.69
588.028	29.69
588.151	19.69
588.273	35.69
588.395	12.69
588.518	21.69
588.64	28.69
588.763	39.69
588.885	40.69
589.007	48.69
589.13	19.69
589.252	10.69
589.375	35.69
589.497	44.69
589.619	29.69
589.742	35.69
589.864	33.69
589.986	40.69
590.109	29.69
590.231	41.69
590.354	37.69
590.476	29.69
590.598	28.69
590.721	21.69
590.843	37.69
590.965	36.69
591.088	31.69
591.21	17.69
591.332	23.69
591.455	17.69
591.577	23.69
591.7	21.69
591.822	38.69
591.944	31.69
592.067	23.69
592.189	31.69
592.311	37.69
592.434	23.69
592.556	44.69
592.678	23.69
592.801	18.69
592.923	28.69
593.045	23.69
593.168	33.69
593.29	35.69
593.412	42.69
593.535	22.69
593.657	30.69
593.779	29.69
593.902	22.69
594.024	30.69
594.146	43.69
594.269	37.69
594.391	7.69
594.513	33.69
594.636	25.69
594.758	33.69
594.88	30.69
595.003	38.69
595.125	21.69
595.247	42.69
595.37	29.69
595.492	13.69
595.614	39.69
595.737	31.69
595.859	37.69
595.981	6.69
596.104	7.69
596.226	32.69
596.348	36.69
596.471	18.69
596.593	30.69
596.715	9.69
596.838	8.69
596.96	27.69
597.082	25.69
597.204	31.69
597.327	29.69
597.449	20.69
597.571	4.69
597.694	44.69
597.816	23.69
597.938	16.69
598.061	23.69
598.183	27.69
598.305	24.69
598.427	20.69
598.55	33.69
598.672	34.69
598.794	36.69
598.917	15.69
599.039	29.69
599.161	34.69
599.283	27.69
599.406	36.69
599.528	31.69
599.65	46.69
599.773	29.69
599.895	56.69
600.017	45.69
600.139	47.69
600.262	34.69
600.384	29.69
600.506	24.69
600.628	45.69
600.751	42.69
600.873	33.69
600.995	32.69
601.118	39.69
601.24	33.69
601.362	34.69
601.484	49.69
601.607	20.69
601.729	23.69
601.851	43.69
601.973	18.69
602.096	29.69
602.218	19.69
602.34	18.69
602.462	35.69
602.585	27.69
602.707	23.69
602.829	9.69
602.951	29.69
603.074	13.69
603.196	35.69
603.318	21.69
603.44	34.69
603.563	23.69
603.685	20.69
603.807	31.69
603.929	31.69
604.052	20.69
604.174	35.69
604.296	38.69
604.418	47.69
604.541	28.69
604.663	23.69
604.785	24.69
604.907	18.69
605.03	18.69
605.152	64.69
605.274	24.69
605.396	40.69
605.519	21.69
605.641	23.69
605.763	21.69
605.885	15.69
606.008	30.69
606.13	37.69
606.252	20.69
606.374	17.69
606.496	19.69
606.619	26.69
606.741	23.69
606.863	47.69
606.985	23.69
607.108	32.69
607.23	18.69
607.352	15.69
607.474	23.69
607.596	34.69
607.719	26.69
607.841	29.69
607.963	33.69
608.085	36.69
608.207	41.69
608.33	33.69
608.452	21.69
608.574	20.69
608.696	28.69
608.819	15.69
608.941	26.69
609.063	22.69
609.185	11.69
609.307	25.69
609.43	28.69
609.552	12.69
609.674	14.69
609.796	34.69
609.918	31.69
610.041	18.69
610.163	33.69
610.285	47.69
610.407	23.69
610.529	4.69
610.652	19.69
610.774	26.69
610.896	45.69
611.018	39.69
611.14	17.69
611.263	27.69
611.385	24.69
611.507	34.69
611.629	11.69
611.751	27.69
611.873	61.69
611.996	27.69
612.118	16.69
612.24	37.69
612.362	35.69
612.484	43.69
612.607	30.69
612.729	41.69
612.851	29.69
612.973	25.69
613.095	9.69
613.218	32.69
613.34	30.69
613.462	33.69
613.584	26.69
613.706	17.69
613.828	43.69
613.951	33.69
614.073	21.69
614.195	17.69
614.317	39.69
614.439	35.69
614.561	27.69
614.684	39.69
614.806	22.69
614.928	29.69
615.05	18.69
615.172	34.69
615.294	42.69
615.417	40.69
615.539	29.69
615.661	23.69
615.783	35.69
615.905	35.69
616.027	28.69
616.15	33.69
616.272	29.69
616.394	31.69
616.516	34.69
616.638	22.69
616.76	31.69
616.883	31.69
617.005	20.69
617.127	23.69
617.249	33.69
617.371	32.69
617.493	16.69
617.615	37.69
617.738	16.69
617.86	18.69
617.982	44.69
618.104	13.69
618.226	20.69
618.348	5.69
618.471	24.69
618.593	30.69
618.715	13.69
618.837	17.69
618.959	21.69
619.081	46.69
619.203	27.69
619.326	35.69
619.448	30.69
619.57	57.69
619.692	33.69
619.814	29.69
619.936	43.69
620.058	25.69
620.181	27.69
620.303	31.69
620.425	23.69
620.547	3.69
620.669	0.69
620.791	21.69
620.913	18.69
621.036	8.69
621.158	12.69
621.28	41.69
621.402	7.69
621.524	5.69
621.646	17.69
621.768	18.69
621.891	5.69
622.013	32.69
622.135	32.69
622.257	21.69
622.379	19.69
622.501	31.69
622.623	22.69
622.745	11.69
622.868	31.69
622.99	34.69
623.112	8.69
623.234	15.69
623.356	27.69
623.478	7.69
623.6	28.69
623.722	8.69
623.845	28.69
623.967	8.69
624.089	19.69
624.211	21.69
624.333	23.69
624.455	13.69
624.577	19.69
624.699	21.69
624.822	14.69
624.944	18.69
625.066	-2.31
625.188	16.69
625.31	4.69
625.432	48.69
625.554	13.69
625.676	44.69
625.799	19.69
625.921	22.69
626.043	7.69
626.165	18.69
626.287	-0.31
626.409	24.69
626.531	24.69
626.653	15.69
626.775	28.69
626.898	33.69
627.02	41.69
627.142	59.69
627.264	45.69
627.386	23.69
627.508	5.69
627.63	16.69
627.752	23.69
627.874	21.69
627.997	34.69
628.119	34.69
628.241	44.69
628.363	33.69
628.485	21.69
628.607	26.69
628.729	11.69
628.851	9.69
628.973	7.69
629.096	7.69
629.218	15.69
629.34	17.69
629.462	10.69
629.584	10.69
629.706	16.69
629.828	27.69
629.95	7.69
630.072	10.69
630.195	18.69
630.317	19.69
630.439	10.69
630.561	33.69
630.683	6.69
630.805	24.69
630.927	32.69
631.049	19.69
631.171	12.69
631.293	29.69
631.416	28.69
631.538	8.69
631.66	23.69
631.782	41.69
631.904	44.69
632.026	19.69
632.148	28.69
632.27	8.69
632.392	27.69
632.514	18.69
632.637	17.69
632.759	1.69
632.881	19.69
633.003	29.69
633.125	17.69
633.247	25.69
633.369	24.69
633.491	38.69
633.613	27.69
633.735	20.69
633.858	19.69
633.98	18.69
634.102	8.69
634.224	23.69
634.346	21.69
634.468	10.69
634.59	6.69
634.712	24.69
634.834	18.69
634.956	6.69
635.078	10.69
635.201	16.69
635.323	17.69
635.445	2.69
635.567	-0.31
635.689	21.69
635.811	16.69
635.933	17.69
636.055	8.69
636.177	4.69
636.299	18.69
636.421	-2.31
636.544	5.69
636.666	21.69
636.788	21.69
636.91	25.69
637.032	-4.31
637.154	13.69
637.276	43.69
637.398	27.69
637.52	31.69
637.642	18.69
637.764	28.69
637.887	11.69
638.009	23.69
638.131	19.69
638.253	7.69
638.375	10.69
638.497	5.69
638.619	3.69
638.741	41.69
638.863	16.69
638.985	13.69
639.107	11.69
639.23	23.69
639.352	14.69
639.474	-4.31
639.596	7.69
639.718	31.69
639.84	11.69
639.962	19.69
640.084	19.69
640.206	26.69
640.328	16.69
640.45	30.69
640.573	12.69
640.695	26.69
640.817	5.69
640.939	23.69
641.061	0.69
641.183	12.69
641.305	7.69
641.427	25.69
641.549	19.69
641.671	28.69
641.793	9.69
641.915	29.69
642.038	27.69
642.16	29.69
642.282	3.69
642.404	19.69
642.526	19.69
642.648	13.69
642.77	31.69
642.892	15.69
643.014	28.69
643.136	20.69
643.258	12.69
643.381	36.69
643.503	31.69
643.625	-2.31
643.747	-0.31
643.869	9.69
643.991	27.69
644.113	23.69
644.235	14.69
644.357	12.69
644.479	35.69
644.601	16.69
644.723	14.69
644.846	3.69
644.968	-1.31
645.09	19.69
645.212	1.69
645.334	25.69
645.456	28.69
645.578	26.69
645.7	9.69
645.822	23.69
645.944	21.69
646.066	17.69
646.188	11.69
646.311	29.69
646.433	9.69
646.555	40.69
646.677	21.69
646.799	17.69
646.921	13.69
647.043	23.69
647.165	4.69
647.287	4.69
647.409	23.69
647.531	32.69
647.654	12.69
647.776	26.69
647.898	16.69
648.02	20.69
648.142	8.69
648.264	19.69
648.386	12.69
648.508	7.69
648.63	15.69
648.752	16.69
648.874	23.69
648.997	16.69
649.119	21.69
649.241	4.69
649.363	32.69
649.485	23.69
649.607	0.69
649.729	-3.31
649.851	27.69
649.973	20.69
650.095	26.69
650.217	23.69
650.34	14.69
650.462	5.69
650.584	3.69
650.706	25.69
650.828	39.69
650.95	3.69
651.072	18.69
651.194	1.69
651.316	5.69
651.438	2.69
651.56	8.69
651.683	11.69
651.805	16.69
651.927	7.69
652.049	15.69
652.171	12.69
652.293	9.69
652.415	-8.31
652.537	3.69
652.659	3.69
652.781	29.69
652.903	12.69
653.026	18.69
653.148	28.69
653.27	9.69
653.392	6.69
653.514	8.69
653.636	-2.31
653.758	23.69
653.88	-2.31
654.002	1.69
654.124	-13.31
654.247	2.69
654.369	12.69
654.491	19.69
654.613	-3.31
654.735	21.69
654.857	19.69
654.979	30.69
655.101	13.69
655.223	37.69
655.345	31.69
655.468	27.69
655.59	14.69
655.712	11.69
655.834	15.69
655.956	16.69
656.078	22.69
656.2	33.69
656.322	17.69
656.444	-4.31
656.566	13.69
656.689	15.69
656.811	10.69
656.933	25.69
657.055	1.69
657.177	15.69
657.299	10.69
657.421	11.69
657.543	35.69
657.665	2.69
657.787	5.69
657.91	12.69
658.032	8.69
658.154	-15.31
658.276	13.69
658.398	3.69
658.52	26.69
658.642	12.69
658.764	16.69
658.886	-21.31
659.009	8.69
659.131	22.69
659.253	18.69
659.375	19.69
659.497	-6.31
659.619	13.69
659.741	17.69
659.863	17.69
659.985	-14.31
660.108	19.69
660.23	0.69
660.352	23.69
660.474	8.69
660.596	11.69
660.718	11.69
660.84	12.69
660.962	20.69
661.084	7.69
661.207	16.69
661.329	17.69
661.451	14.69
661.573	8.69
661.695	35.69
661.817	24.69
661.939	32.69
662.061	35.69
662.184	0.69
662.306	10.69
662.428	10.69
662.55	19.69
662.672	-2.31
662.794	9.69
662.916	15.69
663.038	11.69
663.161	37.69
663.283	36.69
663.405	18.69
663.527	23.69
663.649	13.69
663.771	21.69
663.893	4.69
664.015	12.69
664.138	11.69
664.26	30.69
664.382	32.69
664.504	9.69
664.626	-8.31
664.748	15.69
664.87	2.69
664.992	34.69
665.115	21.69
665.237	16.69
665.359	-2.31
665.481	7.69
665.603	35.69
665.725	9.69
665.847	2.69
665.97	15.69
666.092	28.69
666.214	35.69
666.336	13.69
666.458	5.69
666.58	15.69
666.702	-0.31
666.825	1.69
666.947	7.69
667.069	13.69
667.191	13.69
667.313	28.69
667.435	16.69
667.557	5.69
667.68	-6.31
667.802	14.69
667.924	0.69
668.046	25.69
668.168	44.69
668.29	23.69
668.412	4.69
668.535	25.69
668.657	23.69
668.779	14.69
668.901	12.69
669.023	28.69
669.145	12.69
669.267	27.69
669.39	17.69
669.512	13.69
669.634	3.69
669.756	1.69
669.878	8.69
670	31.69
670.123	-2.31
670.245	39.69
670.367	11.69
670.489	24.69
670.611	3.69
670.733	15.69
670.856	-8.31
670.978	12.69
671.1	26.69
671.222	8.69
671.344	3.69
671.466	-2.31
671.589	11.69
671.711	17.69
671.833	2.69
671.955	18.69
672.077	0.69
672.199	20.69
672.322	20.69
672.444	12.69
672.566	21.69
672.688	19.69
672.81	34.69
672.932	18.69
673.055	7.69
673.177	11.69
673.299	20.69
673.421	6.69
673.543	19.69
673.665	38.69
673.788	31.69
673.91	19.69
674.032	-4.31
674.154	-5.31
674.276	11.69
674.399	-0.31
674.521	9.69
674.643	12.69
674.765	7.69
674.887	12.69
675.009	19.69
675.132	11.69
675.254	3.69
675.376	7.69
675.498	33.69
675.62	28.69
675.743	9.69
675.865	15.69
675.987	7.69
676.109	14.69
676.231	19.69
676.354	27.69
676.476	27.69
676.598	23.69
676.72	1.69
676.842	15.69
676.965	-0.31
677.087	4.69
677.209	27.69
677.331	26.69
677.453	18.69
677.576	-3.31
677.698	3.69
677.82	-12.31
677.942	2.69
678.064	2.69
678.187	20.69
678.309	18.69
678.431	17.69
678.553	19.69
678.675	25.69
678.798	14.69
678.92	12.69
679.042	3.69
679.164	6.69
679.286	13.69
679.409	6.69
679.531	-9.31
679.653	3.69
679.775	3.69
679.898	7.69
680.02	12.69
680.142	7.69
680.264	30.69
680.386	7.69
680.509	29.69
680.631	29.69
680.753	8.69
680.875	-6.31
680.998	17.69
681.12	1.69
681.242	18.69
681.364	7.69
681.486	14.69
681.609	17.69
681.731	12.69
681.853	9.69
681.975	-0.31
682.098	36.69
682.22	37.69
682.342	25.69
682.464	27.69
682.587	16.69
682.709	-0.31
682.831	4.69
682.953	24.69
683.076	13.69
683.198	-0.31
683.32	1.69
683.442	1.69
683.565	28.69
683.687	-5.31
683.809	-5.31
683.931	1.69
684.054	2.69
684.176	7.69
684.298	10.69
684.42	4.69
684.543	15.69
684.665	13.69
684.787	10.69
684.909	13.69
685.032	-2.31
685.154	-8.31
685.276	4.69
685.398	16.69
685.521	11.69
685.643	15.69
685.765	7.69
685.887	6.69
686.01	13.69
686.132	10.69
686.254	8.69
686.377	14.69
686.499	11.69
686.621	17.69
686.743	23.69
686.866	22.69
686.988	23.69
687.11	29.69
687.232	14.69
687.355	5.69
687.477	13.69
687.599	13.69
687.722	8.69
687.844	11.69
687.966	23.69
688.088	13.69
688.211	45.69
688.333	33.69
688.455	16.69
688.578	13.69
688.7	18.69
688.822	28.69
688.944	4.69
689.067	47.69
689.189	16.69
689.311	3.69
689.434	2.69
689.556	3.69
689.678	10.69
689.801	13.69
689.923	17.69
690.045	37.69
690.167	26.69
690.29	23.69
690.412	22.69
690.534	17.69
690.657	4.69
690.779	23.69
690.901	18.69
691.024	12.69
691.146	9.69
691.268	19.69
691.391	27.69
691.513	19.69
691.635	27.69
691.758	33.69
691.88	34.69
692.002	2.69
692.125	23.69
692.247	12.69
692.369	18.69
692.492	0.69
692.614	9.69
692.736	3.69
692.859	18.69
692.981	1.69
693.103	25.69
693.226	2.69
693.348	29.69
693.47	18.69
693.593	41.69
693.715	44.69
693.837	60.69
693.96	19.69
694.082	-8.31
694.204	10.69
694.327	6.69
694.449	6.69
694.571	14.69
694.694	15.69
694.816	11.69
694.938	25.69
695.061	11.69
695.183	1.69
695.305	29.69
695.428	14.69
695.55	12.69
695.672	20.69
695.795	31.69
695.917	31.69
696.04	11.69
696.162	4.69
696.284	14.69
696.407	25.69
696.529	29.69
696.651	39.69
696.774	23.69
696.896	28.69
697.019	17.69
697.141	22.69
697.263	7.69
697.386	4.69
697.508	4.69
697.63	21.69
697.753	29.69
697.875	10.69
697.998	12.69
698.12	14.69
698.242	13.69
698.365	4.69
698.487	23.69
698.61	11.69
698.732	13.69
698.854	23.69
698.977	15.69
699.099	25.69
699.221	9.69
699.344	3.69
699.466	26.69
699.589	12.69
699.711	1.69
699.834	1.69
699.956	22.69
700.078	21.69
700.201	12.69
700.323	19.69
700.446	13.69
700.568	-1.31
700.69	16.69
700.813	14.69
700.935	7.69
701.058	11.69
701.18	22.69
701.302	16.69
701.425	0.69
701.547	28.69
701.67	3.69
701.792	19.69
701.915	16.69
702.037	11.69
702.159	13.69
702.282	20.69
702.404	3.69
702.527	5.69
702.649	23.69
702.772	13.69
702.894	-3.31
703.017	8.69
703.139	24.69
703.261	23.69
703.384	20.69
703.506	9.69
703.629	16.69
703.751	15.69
703.874	36.69
703.996	6.69
704.119	-3.31
704.241	7.69
704.364	10.69
704.486	25.69
704.608	10.69
704.731	12.69
704.853	23.69
704.976	-2.31
705.098	22.69
705.221	23.69
705.343	8.69
705.466	5.69
705.588	24.69
705.711	23.69
705.833	31.69
705.956	21.69
706.078	28.69
706.201	27.69
706.323	19.69
706.446	5.69
