Data from LowRes_mercury_15_20_11_07_2024_HR4C61881__23__15-23-34-571.txt Node

Date: Thu Nov 07 15:23:34 EST 2024
User: crc00042
Spectrometer: HR4C6188
Trigger mode: 4
Integration Time (sec): 1.000000E-1
Scans to average: 1
Electric dark correction enabled: true
Nonlinearity correction enabled: false
Boxcar width: 0
XAxis mode: Wavelengths
Number of Pixels in Spectrum: 3648
>>>>>Begin Spectral Data<<<<<
245.66	-82.92
245.797	-82.92
245.934	-82.92
246.071	-58.92
246.208	18.08
246.344	-3.92
246.481	-8.92
246.618	-6.92
246.755	8.08
246.892	-6.92
247.029	-3.92
247.165	-15.92
247.302	31.08
247.439	-6.92
247.576	-2.92
247.713	-13.92
247.849	33.08
247.986	-1.92
248.123	-11.92
248.26	-2.92
248.396	21.08
248.533	8.08
248.67	-22.92
248.806	-2.92
248.943	4.08
249.08	-21.92
249.216	-1.92
249.353	-7.92
249.49	0.08
249.626	-0.92
249.763	-8.92
249.9	-9.92
250.036	5.08
250.173	-6.92
250.309	0.08
250.446	-21.92
250.582	-9.92
250.719	-5.92
250.856	-2.92
250.992	-14.92
251.129	-5.92
251.265	-7.92
251.402	-3.92
251.538	-6.92
251.675	-12.92
251.811	19.08
251.948	19.08
252.084	3.08
252.221	-4.92
252.357	-2.92
252.493	8.08
252.63	-2.92
252.766	11.08
252.903	-7.92
253.039	-5.92
253.175	3.08
253.312	22.08
253.448	-9.92
253.585	-18.92
253.721	26.08
253.857	-17.92
253.994	2.08
254.13	-4.92
254.266	1.08
254.403	-12.92
254.539	5.08
254.675	6.08
254.811	10.08
254.948	-12.92
255.084	-13.92
255.22	-5.92
255.356	-4.92
255.493	-0.92
255.629	19.08
255.765	-3.92
255.901	11.08
256.037	12.08
256.174	1.08
256.31	0.08
256.446	-11.92
256.582	-14.92
256.718	6.08
256.854	7.08
256.991	-4.92
257.127	8.08
257.263	-10.92
257.399	19.08
257.535	-0.92
257.671	3.08
257.807	-18.92
257.943	-5.92
258.079	-17.92
258.215	-20.92
258.351	22.08
258.487	-0.92
258.623	23.08
258.759	10.08
258.895	-0.92
259.031	-11.92
259.167	-5.92
259.303	12.08
259.439	-6.92
259.575	-6.92
259.711	-7.92
259.847	-6.92
259.983	-0.92
260.119	-15.92
260.255	-11.92
260.391	15.08
260.527	-0.92
260.663	15.08
260.799	9.08
260.934	-9.92
261.07	-5.92
261.206	-12.92
261.342	-9.92
261.478	-8.92
261.614	3.08
261.749	-5.92
261.885	-9.92
262.021	9.08
262.157	30.08
262.293	-0.92
262.428	-9.92
262.564	10.08
262.7	15.08
262.836	-0.92
262.971	15.08
263.107	11.08
263.243	30.08
263.378	-3.92
263.514	-18.92
263.65	11.08
263.785	-17.92
263.921	-28.92
264.057	-6.92
264.192	-3.92
264.328	0.08
264.464	-1.92
264.599	3.08
264.735	19.08
264.871	-27.92
265.006	-1.92
265.142	10.08
265.277	-0.92
265.413	18.08
265.548	19.08
265.684	23.08
265.819	-4.92
265.955	-14.92
266.091	-11.92
266.226	-14.92
266.362	8.08
266.497	19.08
266.633	-4.92
266.768	0.08
266.903	23.08
267.039	14.08
267.174	12.08
267.31	3.08
267.445	-1.92
267.581	-6.92
267.716	25.08
267.851	-4.92
267.987	15.08
268.122	24.08
268.258	-3.92
268.393	-8.92
268.528	4.08
268.664	2.08
268.799	-11.92
268.934	-16.92
269.07	-9.92
269.205	14.08
269.34	37.08
269.476	10.08
269.611	-6.92
269.746	7.08
269.881	4.08
270.017	15.08
270.152	-4.92
270.287	8.08
270.422	11.08
270.558	-1.92
270.693	7.08
270.828	11.08
270.963	-2.92
271.098	-2.92
271.234	-5.92
271.369	0.08
271.504	-13.92
271.639	-10.92
271.774	12.08
271.909	7.08
272.045	-37.92
272.18	-7.92
272.315	-3.92
272.45	5.08
272.585	-18.92
272.72	15.08
272.855	7.08
272.99	7.08
273.125	-12.92
273.26	-20.92
273.395	-7.92
273.53	-1.92
273.665	12.08
273.8	-9.92
273.935	-6.92
274.07	-4.92
274.205	8.08
274.34	-9.92
274.475	-20.92
274.61	22.08
274.745	3.08
274.88	7.08
275.015	-1.92
275.15	-5.92
275.285	4.08
275.42	-10.92
275.555	16.08
275.69	25.08
275.825	-0.92
275.959	3.08
276.094	-2.92
276.229	-6.92
276.364	-11.92
276.499	-18.92
276.634	-12.92
276.768	9.08
276.903	-8.92
277.038	20.08
277.173	12.08
277.308	8.08
277.442	-6.92
277.577	-11.92
277.712	-0.92
277.847	-6.92
277.981	-0.92
278.116	-30.92
278.251	11.08
278.386	1.08
278.52	-10.92
278.655	-4.92
278.79	23.08
278.924	-1.92
279.059	6.08
279.194	-16.92
279.328	20.08
279.463	17.08
279.598	23.08
279.732	21.08
279.867	8.08
280.001	14.08
280.136	15.08
280.271	11.08
280.405	16.08
280.54	-11.92
280.674	-1.92
280.809	17.08
280.943	-1.92
281.078	3.08
281.213	12.08
281.347	-0.92
281.482	10.08
281.616	0.08
281.751	-0.92
281.885	-17.92
282.02	-0.92
282.154	7.08
282.288	-9.92
282.423	-16.92
282.557	-6.92
282.692	7.08
282.826	7.08
282.961	7.08
283.095	5.08
283.229	-19.92
283.364	-8.92
283.498	19.08
283.633	10.08
283.767	7.08
283.901	-5.92
284.036	2.08
284.17	-17.92
284.304	4.08
284.439	-6.92
284.573	-8.92
284.707	15.08
284.842	-1.92
284.976	-6.92
285.11	-7.92
285.244	7.08
285.379	41.08
285.513	-0.92
285.647	14.08
285.781	-0.92
285.916	18.08
286.05	-3.92
286.184	21.08
286.318	23.08
286.453	-5.92
286.587	-9.92
286.721	-15.92
286.855	12.08
286.989	5.08
287.123	-12.92
287.258	-10.92
287.392	-5.92
287.526	6.08
287.66	-3.92
287.794	-5.92
287.928	1.08
288.062	11.08
288.196	-8.92
288.33	19.08
288.464	44.08
288.598	25.08
288.733	-3.92
288.867	20.08
289.001	-2.92
289.135	-0.92
289.269	-6.92
289.403	-2.92
289.537	-14.92
289.671	11.08
289.805	-24.92
289.939	11.08
290.073	-6.92
290.207	4.08
290.34	11.08
290.474	2.08
290.608	6.08
290.742	-3.92
290.876	-11.92
291.01	13.08
291.144	26.08
291.278	7.08
291.412	-12.92
291.546	-11.92
291.679	-10.92
291.813	-8.92
291.947	-1.92
292.081	19.08
292.215	11.08
292.349	3.08
292.482	-4.92
292.616	-4.92
292.75	-0.92
292.884	5.08
293.018	-1.92
293.151	-24.92
293.285	6.08
293.419	-8.92
293.553	-0.92
293.686	-3.92
293.82	-4.92
293.954	21.08
294.088	21.08
294.221	-8.92
294.355	-10.92
294.489	3.08
294.622	0.08
294.756	5.08
294.89	-8.92
295.023	23.08
295.157	8.08
295.291	10.08
295.424	36.08
295.558	-2.92
295.691	-4.92
295.825	1.08
295.959	10.08
296.092	7.08
296.226	22.08
296.359	0.08
296.493	7.08
296.627	-2.92
296.76	3.08
296.894	4.08
297.027	4.08
297.161	-9.92
297.294	-6.92
297.428	14.08
297.561	12.08
297.695	-18.92
297.828	4.08
297.962	12.08
298.095	-3.92
298.229	11.08
298.362	-18.92
298.495	-29.92
298.629	-6.92
298.762	18.08
298.896	4.08
299.029	-6.92
299.162	-1.92
299.296	13.08
299.429	-3.92
299.563	9.08
299.696	-6.92
299.829	8.08
299.963	13.08
300.096	5.08
300.229	0.08
300.363	2.08
300.496	-3.92
300.629	-23.92
300.763	-2.92
300.896	2.08
301.029	-0.92
301.162	11.08
301.296	-6.92
301.429	7.08
301.562	-14.92
301.695	10.08
301.829	5.08
301.962	22.08
302.095	-6.92
302.228	5.08
302.362	9.08
302.495	-23.92
302.628	14.08
302.761	-12.92
302.894	-1.92
303.027	22.08
303.161	6.08
303.294	-5.92
303.427	8.08
303.56	10.08
303.693	-5.92
303.826	-3.92
303.959	7.08
304.092	6.08
304.225	-1.92
304.359	2.08
304.492	-16.92
304.625	-30.92
304.758	-8.92
304.891	-25.92
305.024	-7.92
305.157	5.08
305.29	-4.92
305.423	-2.92
305.556	3.08
305.689	38.08
305.822	18.08
305.955	-3.92
306.088	-9.92
306.221	2.08
306.354	4.08
306.487	-17.92
306.62	-17.92
306.752	-24.92
306.885	21.08
307.018	-5.92
307.151	-3.92
307.284	18.08
307.417	1.08
307.55	5.08
307.683	-8.92
307.816	7.08
307.948	6.08
308.081	17.08
308.214	-11.92
308.347	13.08
308.48	-3.92
308.613	7.08
308.745	2.08
308.878	-0.92
309.011	8.08
309.144	16.08
309.277	-8.92
309.409	6.08
309.542	2.08
309.675	12.08
309.808	18.08
309.94	26.08
310.073	0.08
310.206	-13.92
310.339	5.08
310.471	-19.92
310.604	11.08
310.737	-0.92
310.869	5.08
311.002	3.08
311.135	-3.92
311.267	-14.92
311.4	-2.92
311.533	23.08
311.665	12.08
311.798	-1.92
311.93	3.08
312.063	34.08
312.196	42.08
312.328	95.08
312.461	27.08
312.593	27.08
312.726	51.08
312.859	94.08
312.991	156.08
313.124	23.08
313.256	18.08
313.389	7.08
313.521	9.08
313.654	2.08
313.786	-20.92
313.919	-1.92
314.051	-9.92
314.184	-7.92
314.316	-4.92
314.449	-16.92
314.581	-21.92
314.714	1.08
314.846	-1.92
314.978	3.08
315.111	-13.92
315.243	-0.92
315.376	3.08
315.508	28.08
315.641	12.08
315.773	10.08
315.905	4.08
316.038	2.08
316.17	19.08
316.302	8.08
316.435	-12.92
316.567	-7.92
316.699	4.08
316.832	-10.92
316.964	-3.92
317.096	-4.92
317.229	-16.92
317.361	-27.92
317.493	-8.92
317.625	-10.92
317.758	-3.92
317.89	-1.92
318.022	-8.92
318.155	10.08
318.287	-14.92
318.419	3.08
318.551	-8.92
318.683	-7.92
318.816	-27.92
318.948	-16.92
319.08	-10.92
319.212	-7.92
319.344	9.08
319.477	22.08
319.609	5.08
319.741	21.08
319.873	4.08
320.005	-14.92
320.137	-6.92
320.269	4.08
320.401	-2.92
320.534	-2.92
320.666	-6.92
320.798	-21.92
320.93	-8.92
321.062	-3.92
321.194	-2.92
321.326	2.08
321.458	24.08
321.59	16.08
321.722	-10.92
321.854	-5.92
321.986	-12.92
322.118	-3.92
322.25	-11.92
322.382	-1.92
322.514	-3.92
322.646	-12.92
322.778	7.08
322.91	17.08
323.042	10.08
323.174	5.08
323.306	-10.92
323.438	-13.92
323.57	-4.92
323.702	-4.92
323.834	-7.92
323.966	5.08
324.097	22.08
324.229	12.08
324.361	23.08
324.493	11.08
324.625	-5.92
324.757	8.08
324.889	-9.92
325.021	4.08
325.152	22.08
325.284	37.08
325.416	-13.92
325.548	4.08
325.68	9.08
325.811	18.08
325.943	13.08
326.075	3.08
326.207	14.08
326.339	10.08
326.47	-15.92
326.602	12.08
326.734	13.08
326.866	15.08
326.997	-2.92
327.129	-5.92
327.261	0.08
327.392	-4.92
327.524	8.08
327.656	11.08
327.787	7.08
327.919	19.08
328.051	16.08
328.182	18.08
328.314	27.08
328.446	-9.92
328.577	11.08
328.709	3.08
328.841	-10.92
328.972	-1.92
329.104	11.08
329.235	-9.92
329.367	-7.92
329.499	14.08
329.63	5.08
329.762	0.08
329.893	10.08
330.025	6.08
330.156	-14.92
330.288	9.08
330.419	7.08
330.551	11.08
330.683	2.08
330.814	-10.92
330.946	11.08
331.077	7.08
331.208	-4.92
331.34	-4.92
331.471	-29.92
331.603	0.08
331.734	-20.92
331.866	3.08
331.997	-8.92
332.129	12.08
332.26	-2.92
332.392	16.08
332.523	-10.92
332.654	-20.92
332.786	-5.92
332.917	2.08
333.048	-0.92
333.18	17.08
333.311	6.08
333.443	-7.92
333.574	-5.92
333.705	39.08
333.837	36.08
333.968	113.08
334.099	237.08
334.231	204.08
334.362	58.08
334.493	32.08
334.624	23.08
334.756	-5.92
334.887	10.08
335.018	-1.92
335.15	19.08
335.281	16.08
335.412	22.08
335.543	12.08
335.675	5.08
335.806	26.08
335.937	4.08
336.068	12.08
336.199	19.08
336.331	22.08
336.462	-9.92
336.593	15.08
336.724	-8.92
336.855	-10.92
336.986	7.08
337.118	7.08
337.249	5.08
337.38	15.08
337.511	16.08
337.642	18.08
337.773	27.08
337.904	10.08
338.035	-0.92
338.166	3.08
338.298	12.08
338.429	9.08
338.56	30.08
338.691	12.08
338.822	16.08
338.953	4.08
339.084	25.08
339.215	21.08
339.346	10.08
339.477	-2.92
339.608	1.08
339.739	-1.92
339.87	6.08
340.001	7.08
340.132	21.08
340.263	16.08
340.394	11.08
340.525	19.08
340.656	6.08
340.787	-0.92
340.918	40.08
341.049	16.08
341.179	7.08
341.31	6.08
341.441	17.08
341.572	23.08
341.703	24.08
341.834	-0.92
341.965	6.08
342.096	-1.92
342.227	11.08
342.357	12.08
342.488	23.08
342.619	13.08
342.75	3.08
342.881	1.08
343.012	26.08
343.142	34.08
343.273	8.08
343.404	20.08
343.535	45.08
343.666	32.08
343.796	41.08
343.927	43.08
344.058	35.08
344.189	33.08
344.319	32.08
344.45	14.08
344.581	6.08
344.712	-2.92
344.842	29.08
344.973	25.08
345.104	35.08
345.234	2.08
345.365	16.08
345.496	26.08
345.626	24.08
345.757	30.08
345.888	22.08
346.018	31.08
346.149	19.08
346.28	43.08
346.41	29.08
346.541	25.08
346.672	18.08
346.802	33.08
346.933	28.08
347.063	37.08
347.194	21.08
347.325	17.08
347.455	39.08
347.586	26.08
347.716	24.08
347.847	37.08
347.977	29.08
348.108	36.08
348.238	25.08
348.369	29.08
348.499	50.08
348.63	34.08
348.76	54.08
348.891	36.08
349.021	51.08
349.152	61.08
349.282	48.08
349.413	47.08
349.543	68.08
349.674	47.08
349.804	33.08
349.935	14.08
350.065	26.08
350.196	12.08
350.326	14.08
350.456	13.08
350.587	44.08
350.717	15.08
350.848	21.08
350.978	32.08
351.108	2.08
351.239	35.08
351.369	25.08
351.499	2.08
351.63	14.08
351.76	20.08
351.89	10.08
352.021	13.08
352.151	-1.92
352.281	26.08
352.412	24.08
352.542	22.08
352.672	31.08
352.803	22.08
352.933	32.08
353.063	30.08
353.193	22.08
353.324	19.08
353.454	32.08
353.584	31.08
353.714	14.08
353.845	23.08
353.975	-3.92
354.105	6.08
354.235	22.08
354.365	7.08
354.496	30.08
354.626	31.08
354.756	38.08
354.886	7.08
355.016	20.08
355.146	21.08
355.277	30.08
355.407	20.08
355.537	28.08
355.667	23.08
355.797	21.08
355.927	3.08
356.057	32.08
356.187	15.08
356.318	23.08
356.448	22.08
356.578	27.08
356.708	52.08
356.838	20.08
356.968	33.08
357.098	39.08
357.228	35.08
357.358	27.08
357.488	7.08
357.618	56.08
357.748	54.08
357.878	24.08
358.008	17.08
358.138	23.08
358.268	9.08
358.398	30.08
358.528	4.08
358.658	44.08
358.788	10.08
358.918	37.08
359.048	40.08
359.178	48.08
359.308	39.08
359.438	39.08
359.568	24.08
359.698	32.08
359.827	10.08
359.957	44.08
360.087	26.08
360.217	14.08
360.347	31.08
360.477	38.08
360.607	10.08
360.737	25.08
360.866	4.08
360.996	12.08
361.126	17.08
361.256	56.08
361.386	35.08
361.516	34.08
361.645	9.08
361.775	27.08
361.905	16.08
362.035	24.08
362.165	28.08
362.294	41.08
362.424	39.08
362.554	42.08
362.684	20.08
362.813	29.08
362.943	40.08
363.073	39.08
363.203	48.08
363.332	71.08
363.462	78.08
363.592	96.08
363.721	120.08
363.851	147.08
363.981	201.08
364.111	237.08
364.24	297.08
364.37	488.08
364.5	876.08
364.629	1821.08
364.759	3892.08
364.888	6256.08
365.018	9491.08
365.148	14829.08
365.277	13044.08
365.407	4805.08
365.537	3142.08
365.666	4018.08
365.796	1849.08
365.925	810.08
366.055	774.08
366.184	1038.08
366.314	1374.08
366.444	2503.08
366.573	2137.08
366.703	642.08
366.832	203.08
366.962	115.08
367.091	82.08
367.221	73.08
367.35	52.08
367.48	62.08
367.609	34.08
367.739	48.08
367.868	18.08
367.998	41.08
368.127	54.08
368.257	33.08
368.386	69.08
368.516	45.08
368.645	29.08
368.775	40.08
368.904	20.08
369.033	21.08
369.163	19.08
369.292	52.08
369.422	47.08
369.551	44.08
369.68	40.08
369.81	53.08
369.939	24.08
370.069	48.08
370.198	47.08
370.327	27.08
370.457	21.08
370.586	30.08
370.715	15.08
370.845	28.08
370.974	36.08
371.103	35.08
371.233	35.08
371.362	33.08
371.491	32.08
371.621	42.08
371.75	50.08
371.879	30.08
372.008	46.08
372.138	42.08
372.267	49.08
372.396	45.08
372.525	30.08
372.655	30.08
372.784	33.08
372.913	18.08
373.042	26.08
373.172	28.08
373.301	-0.92
373.43	13.08
373.559	29.08
373.688	18.08
373.818	34.08
373.947	46.08
374.076	14.08
374.205	15.08
374.334	32.08
374.463	3.08
374.593	15.08
374.722	28.08
374.851	35.08
374.98	25.08
375.109	22.08
375.238	30.08
375.367	37.08
375.496	-4.92
375.625	-13.92
375.755	18.08
375.884	25.08
376.013	23.08
376.142	6.08
376.271	25.08
376.4	3.08
376.529	14.08
376.658	22.08
376.787	3.08
376.916	34.08
377.045	23.08
377.174	22.08
377.303	22.08
377.432	38.08
377.561	29.08
377.69	32.08
377.819	34.08
377.948	23.08
378.077	7.08
378.206	13.08
378.335	-3.92
378.464	7.08
378.593	20.08
378.722	6.08
378.851	22.08
378.98	25.08
379.108	-8.92
379.237	-5.92
379.366	16.08
379.495	21.08
379.624	18.08
379.753	40.08
379.882	16.08
380.011	15.08
380.14	9.08
380.268	11.08
380.397	-15.92
380.526	34.08
380.655	4.08
380.784	5.08
380.913	2.08
381.041	10.08
381.17	11.08
381.299	12.08
381.428	24.08
381.557	3.08
381.685	-0.92
381.814	13.08
381.943	1.08
382.072	6.08
382.2	-7.92
382.329	4.08
382.458	10.08
382.587	22.08
382.715	28.08
382.844	14.08
382.973	11.08
383.102	21.08
383.23	3.08
383.359	2.08
383.488	31.08
383.616	16.08
383.745	8.08
383.874	-0.92
384.003	7.08
384.131	-1.92
384.26	5.08
384.389	17.08
384.517	18.08
384.646	4.08
384.774	14.08
384.903	37.08
385.032	21.08
385.16	16.08
385.289	14.08
385.418	22.08
385.546	35.08
385.675	31.08
385.803	5.08
385.932	26.08
386.06	15.08
386.189	8.08
386.318	16.08
386.446	20.08
386.575	22.08
386.703	39.08
386.832	3.08
386.96	-5.92
387.089	29.08
387.217	28.08
387.346	14.08
387.474	11.08
387.603	20.08
387.731	13.08
387.86	31.08
387.988	21.08
388.117	42.08
388.245	13.08
388.374	3.08
388.502	25.08
388.631	12.08
388.759	16.08
388.888	8.08
389.016	25.08
389.144	16.08
389.273	22.08
389.401	10.08
389.53	6.08
389.658	15.08
389.786	4.08
389.915	14.08
390.043	14.08
390.172	26.08
390.3	40.08
390.428	47.08
390.557	20.08
390.685	56.08
390.813	47.08
390.942	39.08
391.07	28.08
391.198	27.08
391.327	35.08
391.455	16.08
391.583	14.08
391.712	22.08
391.84	16.08
391.968	24.08
392.096	19.08
392.225	10.08
392.353	15.08
392.481	9.08
392.609	48.08
392.738	25.08
392.866	29.08
392.994	11.08
393.122	47.08
393.251	21.08
393.379	4.08
393.507	2.08
393.635	26.08
393.764	34.08
393.892	19.08
394.02	18.08
394.148	27.08
394.276	34.08
394.404	34.08
394.533	27.08
394.661	24.08
394.789	38.08
394.917	39.08
395.045	14.08
395.173	4.08
395.302	11.08
395.43	14.08
395.558	35.08
395.686	44.08
395.814	42.08
395.942	21.08
396.07	39.08
396.198	30.08
396.326	35.08
396.454	46.08
396.582	50.08
396.711	36.08
396.839	48.08
396.967	30.08
397.095	26.08
397.223	33.08
397.351	42.08
397.479	46.08
397.607	32.08
397.735	55.08
397.863	56.08
397.991	38.08
398.119	18.08
398.247	55.08
398.375	48.08
398.503	51.08
398.631	60.08
398.759	53.08
398.887	42.08
399.015	50.08
399.143	53.08
399.271	70.08
399.399	67.08
399.526	61.08
399.654	77.08
399.782	58.08
399.91	89.08
400.038	111.08
400.166	82.08
400.294	84.08
400.422	85.08
400.55	91.08
400.678	100.08
400.805	126.08
400.933	119.08
401.061	136.08
401.189	128.08
401.317	138.08
401.445	102.08
401.573	93.08
401.7	59.08
401.828	36.08
401.956	66.08
402.084	54.08
402.212	39.08
402.34	16.08
402.467	33.08
402.595	31.08
402.723	40.08
402.851	71.08
402.978	52.08
403.106	73.08
403.234	84.08
403.362	132.08
403.489	132.08
403.617	159.08
403.745	198.08
403.873	283.08
404	562.08
404.128	1469.08
404.256	3935.08
404.384	5158.08
404.511	5470.08
404.639	7200.08
404.767	11465.08
404.894	14601.08
405.022	4928.08
405.15	1298.08
405.277	416.08
405.405	231.08
405.533	106.08
405.66	105.08
405.788	52.08
405.916	59.08
406.043	61.08
406.171	53.08
406.299	68.08
406.426	52.08
406.554	54.08
406.681	78.08
406.809	56.08
406.937	71.08
407.064	68.08
407.192	140.08
407.319	310.08
407.447	541.08
407.574	526.08
407.702	630.08
407.83	854.08
407.957	1596.08
408.085	919.08
408.212	282.08
408.34	105.08
408.467	66.08
408.595	47.08
408.722	52.08
408.85	62.08
408.977	29.08
409.105	47.08
409.232	26.08
409.36	18.08
409.487	28.08
409.615	45.08
409.742	32.08
409.87	31.08
409.997	29.08
410.125	28.08
410.252	31.08
410.379	34.08
410.507	26.08
410.634	53.08
410.762	29.08
410.889	40.08
411.017	35.08
411.144	34.08
411.271	16.08
411.399	31.08
411.526	19.08
411.653	28.08
411.781	42.08
411.908	33.08
412.036	12.08
412.163	42.08
412.29	44.08
412.418	31.08
412.545	31.08
412.672	18.08
412.8	50.08
412.927	44.08
413.054	44.08
413.182	48.08
413.309	14.08
413.436	13.08
413.564	26.08
413.691	12.08
413.818	30.08
413.945	12.08
414.073	17.08
414.2	34.08
414.327	35.08
414.454	46.08
414.582	39.08
414.709	22.08
414.836	28.08
414.963	25.08
415.091	40.08
415.218	18.08
415.345	26.08
415.472	20.08
415.6	18.08
415.727	28.08
415.854	35.08
415.981	26.08
416.108	18.08
416.236	13.08
416.363	35.08
416.49	31.08
416.617	27.08
416.744	29.08
416.871	39.08
416.998	24.08
417.126	46.08
417.253	16.08
417.38	27.08
417.507	10.08
417.634	26.08
417.761	33.08
417.888	31.08
418.015	20.08
418.143	31.08
418.27	36.08
418.397	22.08
418.524	28.08
418.651	22.08
418.778	52.08
418.905	59.08
419.032	39.08
419.159	37.08
419.286	60.08
419.413	36.08
419.54	47.08
419.667	28.08
419.794	19.08
419.921	16.08
420.048	34.08
420.175	39.08
420.302	43.08
420.429	39.08
420.556	44.08
420.683	56.08
420.81	67.08
420.937	77.08
421.064	75.08
421.191	57.08
421.318	68.08
421.445	74.08
421.572	50.08
421.699	67.08
421.826	49.08
421.953	36.08
422.08	15.08
422.207	9.08
422.334	11.08
422.461	22.08
422.588	16.08
422.714	15.08
422.841	45.08
422.968	23.08
423.095	15.08
423.222	11.08
423.349	15.08
423.476	26.08
423.603	24.08
423.729	9.08
423.856	-2.92
423.983	33.08
424.11	19.08
424.237	20.08
424.364	29.08
424.491	28.08
424.617	6.08
424.744	25.08
424.871	35.08
424.998	11.08
425.125	-8.92
425.251	15.08
425.378	5.08
425.505	4.08
425.632	28.08
425.758	15.08
425.885	32.08
426.012	57.08
426.139	29.08
426.266	18.08
426.392	33.08
426.519	21.08
426.646	10.08
426.772	16.08
426.899	13.08
427.026	20.08
427.153	10.08
427.279	40.08
427.406	27.08
427.533	8.08
427.659	21.08
427.786	10.08
427.913	38.08
428.039	13.08
428.166	19.08
428.293	30.08
428.419	19.08
428.546	21.08
428.673	11.08
428.799	-1.92
428.926	-4.92
429.053	29.08
429.179	49.08
429.306	40.08
429.433	25.08
429.559	21.08
429.686	11.08
429.812	15.08
429.939	13.08
430.066	14.08
430.192	14.08
430.319	32.08
430.445	19.08
430.572	19.08
430.699	6.08
430.825	-2.92
430.952	14.08
431.078	29.08
431.205	46.08
431.331	27.08
431.458	43.08
431.584	37.08
431.711	18.08
431.837	31.08
431.964	43.08
432.09	30.08
432.217	13.08
432.343	9.08
432.47	35.08
432.596	25.08
432.723	21.08
432.849	25.08
432.976	35.08
433.102	31.08
433.229	46.08
433.355	64.08
433.482	69.08
433.608	96.08
433.735	91.08
433.861	113.08
433.987	167.08
434.114	184.08
434.24	159.08
434.367	190.08
434.493	216.08
434.62	282.08
434.746	393.08
434.872	622.08
434.999	830.08
435.125	1717.08
435.252	5510.08
435.378	13420.08
435.504	15193.08
435.631	15418.08
435.757	15681.08
435.883	15681.08
436.01	15681.08
436.136	15681.08
436.262	15681.08
436.389	3461.08
436.515	2188.08
436.641	800.08
436.768	625.08
436.894	393.08
437.02	383.08
437.147	325.08
437.273	305.08
437.399	212.08
437.526	244.08
437.652	169.08
437.778	183.08
437.904	143.08
438.031	162.08
438.157	140.08
438.283	152.08
438.409	120.08
438.536	116.08
438.662	111.08
438.788	150.08
438.914	117.08
439.041	116.08
439.167	107.08
439.293	96.08
439.419	102.08
439.546	86.08
439.672	83.08
439.798	100.08
439.924	75.08
440.05	81.08
440.177	64.08
440.303	77.08
440.429	56.08
440.555	72.08
440.681	52.08
440.807	71.08
440.934	61.08
441.06	63.08
441.186	51.08
441.312	63.08
441.438	53.08
441.564	55.08
441.69	61.08
441.816	68.08
441.943	59.08
442.069	49.08
442.195	59.08
442.321	60.08
442.447	34.08
442.573	54.08
442.699	46.08
442.825	34.08
442.951	52.08
443.077	40.08
443.203	50.08
443.33	46.08
443.456	35.08
443.582	43.08
443.708	34.08
443.834	61.08
443.96	48.08
444.086	36.08
444.212	51.08
444.338	46.08
444.464	52.08
444.59	54.08
444.716	35.08
444.842	38.08
444.968	30.08
445.094	36.08
445.22	26.08
445.346	19.08
445.472	35.08
445.598	46.08
445.724	27.08
445.85	48.08
445.976	37.08
446.102	29.08
446.228	45.08
446.354	43.08
446.48	22.08
446.605	40.08
446.731	33.08
446.857	29.08
446.983	26.08
447.109	21.08
447.235	31.08
447.361	19.08
447.487	42.08
447.613	50.08
447.739	23.08
447.865	17.08
447.99	23.08
448.116	32.08
448.242	25.08
448.368	25.08
448.494	30.08
448.62	28.08
448.746	18.08
448.872	35.08
448.997	20.08
449.123	16.08
449.249	46.08
449.375	46.08
449.501	24.08
449.627	24.08
449.752	41.08
449.878	30.08
450.004	22.08
450.13	34.08
450.256	19.08
450.381	38.08
450.507	34.08
450.633	21.08
450.759	46.08
450.884	29.08
451.01	26.08
451.136	34.08
451.262	30.08
451.388	39.08
451.513	10.08
451.639	30.08
451.765	25.08
451.89	34.08
452.016	25.08
452.142	30.08
452.268	44.08
452.393	30.08
452.519	16.08
452.645	24.08
452.771	12.08
452.896	43.08
453.022	21.08
453.148	46.08
453.273	25.08
453.399	26.08
453.525	20.08
453.65	19.08
453.776	40.08
453.902	18.08
454.027	27.08
454.153	42.08
454.279	53.08
454.404	23.08
454.53	29.08
454.656	43.08
454.781	32.08
454.907	27.08
455.032	27.08
455.158	35.08
455.284	39.08
455.409	28.08
455.535	32.08
455.66	40.08
455.786	26.08
455.912	28.08
456.037	11.08
456.163	35.08
456.288	22.08
456.414	-0.92
456.539	19.08
456.665	29.08
456.791	41.08
456.916	19.08
457.042	26.08
457.167	13.08
457.293	39.08
457.418	20.08
457.544	27.08
457.669	27.08
457.795	16.08
457.92	27.08
458.046	23.08
458.171	14.08
458.297	9.08
458.422	25.08
458.548	7.08
458.673	24.08
458.799	22.08
458.924	12.08
459.05	25.08
459.175	-2.92
459.301	3.08
459.426	34.08
459.552	30.08
459.677	10.08
459.803	49.08
459.928	43.08
460.053	20.08
460.179	21.08
460.304	57.08
460.43	11.08
460.555	17.08
460.681	20.08
460.806	18.08
460.931	10.08
461.057	30.08
461.182	22.08
461.308	36.08
461.433	36.08
461.558	18.08
461.684	27.08
461.809	34.08
461.934	18.08
462.06	32.08
462.185	7.08
462.311	25.08
462.436	31.08
462.561	14.08
462.687	22.08
462.812	31.08
462.937	-2.92
463.063	12.08
463.188	-0.92
463.313	48.08
463.439	27.08
463.564	28.08
463.689	34.08
463.814	20.08
463.94	14.08
464.065	14.08
464.19	29.08
464.316	3.08
464.441	12.08
464.566	12.08
464.692	34.08
464.817	27.08
464.942	16.08
465.067	16.08
465.193	19.08
465.318	25.08
465.443	3.08
465.568	6.08
465.694	-0.92
465.819	28.08
465.944	33.08
466.069	38.08
466.194	38.08
466.32	44.08
466.445	20.08
466.57	28.08
466.695	29.08
466.82	54.08
466.946	33.08
467.071	20.08
467.196	36.08
467.321	47.08
467.446	43.08
467.572	19.08
467.697	37.08
467.822	40.08
467.947	34.08
468.072	18.08
468.197	27.08
468.323	9.08
468.448	38.08
468.573	21.08
468.698	33.08
468.823	23.08
468.948	32.08
469.073	40.08
469.198	46.08
469.324	33.08
469.449	30.08
469.574	57.08
469.699	67.08
469.824	50.08
469.949	25.08
470.074	37.08
470.199	39.08
470.324	37.08
470.449	45.08
470.574	18.08
470.7	28.08
470.825	27.08
470.95	39.08
471.075	26.08
471.2	27.08
471.325	42.08
471.45	42.08
471.575	24.08
471.7	27.08
471.825	23.08
471.95	23.08
472.075	20.08
472.2	13.08
472.325	28.08
472.45	13.08
472.575	15.08
472.7	26.08
472.825	39.08
472.95	23.08
473.075	29.08
473.2	32.08
473.325	35.08
473.45	28.08
473.575	21.08
473.7	57.08
473.825	27.08
473.95	29.08
474.075	24.08
474.2	18.08
474.325	19.08
474.45	30.08
474.574	25.08
474.699	27.08
474.824	31.08
474.949	11.08
475.074	12.08
475.199	32.08
475.324	28.08
475.449	8.08
475.574	10.08
475.699	22.08
475.824	21.08
475.949	14.08
476.073	12.08
476.198	10.08
476.323	16.08
476.448	24.08
476.573	12.08
476.698	38.08
476.823	25.08
476.947	20.08
477.072	19.08
477.197	41.08
477.322	17.08
477.447	7.08
477.572	28.08
477.697	14.08
477.821	11.08
477.946	30.08
478.071	29.08
478.196	28.08
478.321	19.08
478.445	38.08
478.57	26.08
478.695	22.08
478.82	15.08
478.945	27.08
479.069	3.08
479.194	26.08
479.319	24.08
479.444	8.08
479.569	-0.92
479.693	24.08
479.818	33.08
479.943	24.08
480.068	23.08
480.192	23.08
480.317	22.08
480.442	26.08
480.567	8.08
480.691	35.08
480.816	19.08
480.941	7.08
481.066	30.08
481.19	27.08
481.315	27.08
481.44	14.08
481.564	-12.92
481.689	9.08
481.814	3.08
481.938	8.08
482.063	11.08
482.188	18.08
482.313	21.08
482.437	15.08
482.562	21.08
482.687	8.08
482.811	9.08
482.936	12.08
483.061	12.08
483.185	27.08
483.31	14.08
483.435	12.08
483.559	11.08
483.684	17.08
483.808	31.08
483.933	24.08
484.058	14.08
484.182	14.08
484.307	30.08
484.432	26.08
484.556	5.08
484.681	29.08
484.805	23.08
484.93	24.08
485.055	9.08
485.179	31.08
485.304	5.08
485.428	24.08
485.553	7.08
485.678	20.08
485.802	9.08
485.927	32.08
486.051	37.08
486.176	21.08
486.3	18.08
486.425	30.08
486.549	26.08
486.674	19.08
486.799	12.08
486.923	21.08
487.048	6.08
487.172	-0.92
487.297	19.08
487.421	38.08
487.546	21.08
487.67	6.08
487.795	6.08
487.919	21.08
488.044	24.08
488.168	18.08
488.293	4.08
488.417	20.08
488.542	25.08
488.666	30.08
488.791	12.08
488.915	33.08
489.04	20.08
489.164	26.08
489.289	41.08
489.413	12.08
489.538	23.08
489.662	46.08
489.786	21.08
489.911	25.08
490.035	25.08
490.16	18.08
490.284	33.08
490.409	12.08
490.533	-1.92
490.658	50.08
490.782	38.08
490.906	44.08
491.031	111.08
491.155	142.08
491.28	134.08
491.404	180.08
491.528	266.08
491.653	161.08
491.777	84.08
491.902	22.08
492.026	30.08
492.15	15.08
492.275	32.08
492.399	32.08
492.524	11.08
492.648	42.08
492.772	24.08
492.897	29.08
493.021	14.08
493.145	31.08
493.27	25.08
493.394	33.08
493.518	23.08
493.643	2.08
493.767	36.08
493.891	7.08
494.016	28.08
494.14	33.08
494.264	13.08
494.389	21.08
494.513	18.08
494.637	6.08
494.762	33.08
494.886	27.08
495.01	15.08
495.134	31.08
495.259	29.08
495.383	17.08
495.507	11.08
495.632	18.08
495.756	31.08
495.88	12.08
496.004	12.08
496.129	23.08
496.253	35.08
496.377	24.08
496.501	33.08
496.626	9.08
496.75	22.08
496.874	32.08
496.998	8.08
497.123	34.08
497.247	40.08
497.371	15.08
497.495	37.08
497.62	26.08
497.744	9.08
497.868	-7.92
497.992	0.08
498.116	27.08
498.241	20.08
498.365	12.08
498.489	4.08
498.613	25.08
498.737	-5.92
498.862	16.08
498.986	17.08
499.11	22.08
499.234	21.08
499.358	18.08
499.482	13.08
499.607	29.08
499.731	20.08
499.855	30.08
499.979	16.08
500.103	15.08
500.227	14.08
500.351	-3.92
500.476	7.08
500.6	14.08
500.724	6.08
500.848	11.08
500.972	30.08
501.096	23.08
501.22	31.08
501.344	24.08
501.469	20.08
501.593	11.08
501.717	44.08
501.841	41.08
501.965	35.08
502.089	8.08
502.213	30.08
502.337	17.08
502.461	32.08
502.585	21.08
502.709	27.08
502.834	6.08
502.958	11.08
503.082	40.08
503.206	26.08
503.33	44.08
503.454	35.08
503.578	20.08
503.702	31.08
503.826	20.08
503.95	23.08
504.074	35.08
504.198	20.08
504.322	-5.92
504.446	18.08
504.57	23.08
504.694	23.08
504.818	19.08
504.942	30.08
505.066	12.08
505.19	22.08
505.314	23.08
505.438	27.08
505.562	26.08
505.686	30.08
505.81	26.08
505.934	32.08
506.058	19.08
506.182	17.08
506.306	27.08
506.43	5.08
506.554	14.08
506.678	15.08
506.802	24.08
506.926	41.08
507.05	44.08
507.174	35.08
507.298	35.08
507.422	37.08
507.546	18.08
507.67	31.08
507.794	3.08
507.918	15.08
508.042	25.08
508.165	7.08
508.289	7.08
508.413	29.08
508.537	6.08
508.661	39.08
508.785	18.08
508.909	27.08
509.033	31.08
509.157	35.08
509.281	22.08
509.405	10.08
509.528	58.08
509.652	37.08
509.776	31.08
509.9	34.08
510.024	32.08
510.148	19.08
510.272	28.08
510.396	36.08
510.519	48.08
510.643	39.08
510.767	37.08
510.891	51.08
511.015	29.08
511.139	48.08
511.263	44.08
511.386	37.08
511.51	39.08
511.634	26.08
511.758	26.08
511.882	33.08
512.006	43.08
512.129	55.08
512.253	93.08
512.377	91.08
512.501	75.08
512.625	86.08
512.748	69.08
512.872	73.08
512.996	53.08
513.12	57.08
513.244	38.08
513.367	46.08
513.491	56.08
513.615	80.08
513.739	75.08
513.862	76.08
513.986	80.08
514.11	101.08
514.234	82.08
514.358	107.08
514.481	117.08
514.605	111.08
514.729	110.08
514.853	109.08
514.976	84.08
515.1	95.08
515.224	110.08
515.348	76.08
515.471	67.08
515.595	78.08
515.719	107.08
515.842	211.08
515.966	269.08
516.09	294.08
516.214	286.08
516.337	328.08
516.461	194.08
516.585	92.08
516.708	39.08
516.832	30.08
516.956	25.08
517.08	24.08
517.203	6.08
517.327	21.08
517.451	28.08
517.574	31.08
517.698	-5.92
517.822	14.08
517.945	29.08
518.069	26.08
518.193	37.08
518.316	18.08
518.44	36.08
518.564	15.08
518.687	17.08
518.811	14.08
518.935	46.08
519.058	22.08
519.182	20.08
519.306	11.08
519.429	18.08
519.553	39.08
519.676	18.08
519.8	22.08
519.924	14.08
520.047	12.08
520.171	20.08
520.294	3.08
520.418	19.08
520.542	11.08
520.665	44.08
520.789	25.08
520.913	11.08
521.036	-7.92
521.16	10.08
521.283	26.08
521.407	12.08
521.53	6.08
521.654	8.08
521.778	13.08
521.901	26.08
522.025	28.08
522.148	2.08
522.272	4.08
522.395	22.08
522.519	22.08
522.643	8.08
522.766	-4.92
522.89	18.08
523.013	34.08
523.137	11.08
523.26	-4.92
523.384	19.08
523.507	14.08
523.631	14.08
523.754	-6.92
523.878	15.08
524.002	32.08
524.125	20.08
524.249	0.08
524.372	16.08
524.496	8.08
524.619	14.08
524.743	16.08
524.866	-0.92
524.99	17.08
525.113	9.08
525.237	12.08
525.36	10.08
525.484	23.08
525.607	8.08
525.731	-7.92
525.854	16.08
525.978	26.08
526.101	-5.92
526.224	-4.92
526.348	19.08
526.471	31.08
526.595	8.08
526.718	7.08
526.842	7.08
526.965	12.08
527.089	21.08
527.212	15.08
527.336	0.08
527.459	23.08
527.582	21.08
527.706	24.08
527.829	30.08
527.953	19.08
528.076	-10.92
528.2	19.08
528.323	24.08
528.446	27.08
528.57	-0.92
528.693	24.08
528.817	16.08
528.94	34.08
529.064	38.08
529.187	15.08
529.31	9.08
529.434	3.08
529.557	14.08
529.68	4.08
529.804	11.08
529.927	17.08
530.051	2.08
530.174	9.08
530.297	14.08
530.421	30.08
530.544	29.08
530.668	8.08
530.791	-4.92
530.914	30.08
531.038	36.08
531.161	13.08
531.284	40.08
531.408	32.08
531.531	19.08
531.654	8.08
531.778	20.08
531.901	-3.92
532.024	19.08
532.148	-2.92
532.271	15.08
532.394	7.08
532.518	26.08
532.641	24.08
532.764	24.08
532.888	16.08
533.011	6.08
533.134	2.08
533.258	30.08
533.381	6.08
533.504	21.08
533.628	15.08
533.751	20.08
533.874	2.08
533.997	13.08
534.121	15.08
534.244	30.08
534.367	10.08
534.491	7.08
534.614	22.08
534.737	18.08
534.86	20.08
534.984	13.08
535.107	-2.92
535.23	10.08
535.354	19.08
535.477	12.08
535.6	14.08
535.723	39.08
535.847	19.08
535.97	-4.92
536.093	16.08
536.216	-8.92
536.34	15.08
536.463	5.08
536.586	22.08
536.709	20.08
536.833	11.08
536.956	14.08
537.079	26.08
537.202	20.08
537.325	18.08
537.449	28.08
537.572	44.08
537.695	17.08
537.818	11.08
537.941	10.08
538.065	14.08
538.188	15.08
538.311	23.08
538.434	18.08
538.558	19.08
538.681	32.08
538.804	35.08
538.927	26.08
539.05	19.08
539.173	18.08
539.297	10.08
539.42	15.08
539.543	4.08
539.666	21.08
539.789	34.08
539.913	25.08
540.036	14.08
540.159	25.08
540.282	5.08
540.405	6.08
540.528	10.08
540.651	18.08
540.775	14.08
540.898	26.08
541.021	23.08
541.144	32.08
541.267	23.08
541.39	18.08
541.513	25.08
541.637	15.08
541.76	41.08
541.883	39.08
542.006	46.08
542.129	53.08
542.252	28.08
542.375	48.08
542.498	26.08
542.622	39.08
542.745	45.08
542.868	45.08
542.991	55.08
543.114	57.08
543.237	44.08
543.36	66.08
543.483	42.08
543.606	80.08
543.73	90.08
543.853	78.08
543.976	77.08
544.099	100.08
544.222	125.08
544.345	132.08
544.468	179.08
544.591	206.08
544.714	259.08
544.837	351.08
544.96	432.08
545.083	623.08
545.206	1073.08
545.329	2430.08
545.453	10997.08
545.576	15267.08
545.699	15681.08
545.822	15681.08
545.945	15681.08
546.068	15681.08
546.191	15681.08
546.314	15681.08
546.437	15681.08
546.56	15681.08
546.683	15681.08
546.806	15681.08
546.929	15681.08
547.052	15681.08
547.175	15681.08
547.298	15681.08
547.421	15681.08
547.544	15681.08
547.667	3630.08
547.79	3021.08
547.913	1138.08
548.036	878.08
548.159	640.08
548.282	621.08
548.405	493.08
548.528	474.08
548.651	397.08
548.774	401.08
548.897	343.08
549.02	373.08
549.143	309.08
549.266	297.08
549.389	250.08
549.512	262.08
549.635	264.08
549.758	261.08
549.881	224.08
550.004	228.08
550.127	174.08
550.25	188.08
550.373	170.08
550.496	186.08
550.619	147.08
550.742	151.08
550.865	137.08
550.988	159.08
551.111	135.08
551.234	142.08
551.356	122.08
551.479	126.08
551.602	125.08
551.725	134.08
551.848	135.08
551.971	140.08
552.094	126.08
552.217	121.08
552.34	111.08
552.463	111.08
552.586	105.08
552.709	102.08
552.832	101.08
552.955	106.08
553.077	123.08
553.2	122.08
553.323	86.08
553.446	89.08
553.569	85.08
553.692	96.08
553.815	96.08
553.938	104.08
554.061	85.08
554.184	102.08
554.306	96.08
554.429	94.08
554.552	83.08
554.675	62.08
554.798	69.08
554.921	96.08
555.044	80.08
555.167	67.08
555.29	66.08
555.412	75.08
555.535	74.08
555.658	71.08
555.781	80.08
555.904	71.08
556.027	71.08
556.15	75.08
556.272	59.08
556.395	89.08
556.518	75.08
556.641	76.08
556.764	72.08
556.887	65.08
557.01	49.08
557.132	48.08
557.255	68.08
557.378	84.08
557.501	55.08
557.624	61.08
557.747	67.08
557.869	62.08
557.992	95.08
558.115	94.08
558.238	95.08
558.361	79.08
558.483	106.08
558.606	67.08
558.729	34.08
558.852	74.08
558.975	68.08
559.098	60.08
559.22	52.08
559.343	30.08
559.466	48.08
559.589	53.08
559.712	50.08
559.834	49.08
559.957	36.08
560.08	48.08
560.203	42.08
560.325	50.08
560.448	61.08
560.571	57.08
560.694	51.08
560.817	66.08
560.939	52.08
561.062	54.08
561.185	72.08
561.308	70.08
561.43	68.08
561.553	49.08
561.676	61.08
561.799	82.08
561.921	55.08
562.044	71.08
562.167	69.08
562.29	88.08
562.413	67.08
562.535	82.08
562.658	52.08
562.781	55.08
562.903	76.08
563.026	108.08
563.149	121.08
563.272	120.08
563.394	112.08
563.517	110.08
563.64	68.08
563.763	46.08
563.885	44.08
564.008	55.08
564.131	47.08
564.254	12.08
564.376	38.08
564.499	13.08
564.622	31.08
564.744	38.08
564.867	39.08
564.99	27.08
565.113	26.08
565.235	47.08
565.358	33.08
565.481	17.08
565.603	38.08
565.726	17.08
565.849	47.08
565.971	40.08
566.094	32.08
566.217	54.08
566.34	30.08
566.462	30.08
566.585	48.08
566.708	65.08
566.83	33.08
566.953	44.08
567.076	38.08
567.198	26.08
567.321	25.08
567.444	43.08
567.566	56.08
567.689	31.08
567.812	22.08
567.934	40.08
568.057	44.08
568.18	30.08
568.302	38.08
568.425	7.08
568.548	36.08
568.67	34.08
568.793	28.08
568.916	29.08
569.038	16.08
569.161	47.08
569.283	36.08
569.406	34.08
569.529	24.08
569.651	24.08
569.774	28.08
569.897	26.08
570.019	31.08
570.142	44.08
570.265	19.08
570.387	49.08
570.51	36.08
570.632	28.08
570.755	22.08
570.878	30.08
571	60.08
571.123	26.08
571.246	64.08
571.368	23.08
571.491	26.08
571.613	14.08
571.736	15.08
571.859	20.08
571.981	7.08
572.104	11.08
572.226	27.08
572.349	13.08
572.472	29.08
572.594	20.08
572.717	29.08
572.839	25.08
572.962	22.08
573.085	27.08
573.207	31.08
573.33	41.08
573.452	38.08
573.575	41.08
573.697	31.08
573.82	17.08
573.943	18.08
574.065	11.08
574.188	17.08
574.31	20.08
574.433	42.08
574.555	44.08
574.678	35.08
574.801	31.08
574.923	13.08
575.046	31.08
575.168	35.08
575.291	34.08
575.413	32.08
575.536	30.08
575.659	51.08
575.781	50.08
575.904	53.08
576.026	84.08
576.149	72.08
576.271	123.08
576.394	224.08
576.516	535.08
576.639	3686.08
576.761	10235.08
576.884	8882.08
577.007	8794.08
577.129	7964.08
577.252	3778.08
577.374	1331.08
577.497	544.08
577.619	290.08
577.742	170.08
577.864	163.08
577.987	139.08
578.109	142.08
578.232	146.08
578.354	165.08
578.477	195.08
578.599	380.08
578.722	1988.08
578.844	9096.08
578.967	9903.08
579.089	8835.08
579.212	9074.08
579.334	5277.08
579.457	1920.08
579.579	717.08
579.702	318.08
579.824	210.08
579.947	135.08
580.069	99.08
580.192	91.08
580.314	91.08
580.437	60.08
580.559	88.08
580.682	55.08
580.804	67.08
580.927	60.08
581.049	59.08
581.172	36.08
581.294	59.08
581.417	47.08
581.539	46.08
581.662	38.08
581.784	43.08
581.907	48.08
582.029	47.08
582.152	10.08
582.274	40.08
582.396	38.08
582.519	8.08
582.641	15.08
582.764	32.08
582.886	31.08
583.009	18.08
583.131	36.08
583.254	43.08
583.376	51.08
583.499	45.08
583.621	35.08
583.743	48.08
583.866	25.08
583.988	39.08
584.111	53.08
584.233	56.08
584.356	43.08
584.478	36.08
584.601	12.08
584.723	36.08
584.845	55.08
584.968	27.08
585.09	12.08
585.213	37.08
585.335	26.08
585.458	22.08
585.58	19.08
585.702	20.08
585.825	27.08
585.947	36.08
586.07	35.08
586.192	24.08
586.315	36.08
586.437	12.08
586.559	14.08
586.682	32.08
586.804	23.08
586.927	6.08
587.049	25.08
587.171	37.08
587.294	51.08
587.416	38.08
587.539	28.08
587.661	23.08
587.783	3.08
587.906	5.08
588.028	47.08
588.151	31.08
588.273	39.08
588.395	16.08
588.518	25.08
588.64	26.08
588.763	54.08
588.885	40.08
589.007	35.08
589.13	19.08
589.252	22.08
589.375	36.08
589.497	32.08
589.619	32.08
589.742	25.08
589.864	33.08
589.986	34.08
590.109	14.08
590.231	2.08
590.354	32.08
590.476	16.08
590.598	17.08
590.721	10.08
590.843	22.08
590.965	25.08
591.088	31.08
591.21	21.08
591.332	18.08
591.455	-1.92
591.577	5.08
591.7	24.08
591.822	20.08
591.944	12.08
592.067	11.08
592.189	6.08
592.311	29.08
592.434	17.08
592.556	25.08
592.678	24.08
592.801	18.08
592.923	25.08
593.045	12.08
593.168	32.08
593.29	26.08
593.412	28.08
593.535	-1.92
593.657	16.08
593.779	44.08
593.902	44.08
594.024	29.08
594.146	28.08
594.269	20.08
594.391	14.08
594.513	29.08
594.636	21.08
594.758	5.08
594.88	27.08
595.003	24.08
595.125	34.08
595.247	24.08
595.37	14.08
595.492	24.08
595.614	30.08
595.737	30.08
595.859	12.08
595.981	17.08
596.104	16.08
596.226	15.08
596.348	26.08
596.471	15.08
596.593	20.08
596.715	11.08
596.838	15.08
596.96	16.08
597.082	22.08
597.204	21.08
597.327	12.08
597.449	6.08
597.571	13.08
597.694	23.08
597.816	13.08
597.938	18.08
598.061	14.08
598.183	31.08
598.305	44.08
598.427	31.08
598.55	21.08
598.672	41.08
598.794	27.08
598.917	18.08
599.039	8.08
599.161	24.08
599.283	28.08
599.406	22.08
599.528	38.08
599.65	42.08
599.773	31.08
599.895	55.08
600.017	26.08
600.139	13.08
600.262	15.08
600.384	16.08
600.506	27.08
600.628	42.08
600.751	25.08
600.873	18.08
600.995	28.08
601.118	29.08
601.24	18.08
601.362	46.08
601.484	35.08
601.607	23.08
601.729	25.08
601.851	-1.92
601.973	16.08
602.096	26.08
602.218	7.08
602.34	21.08
602.462	28.08
602.585	9.08
602.707	18.08
602.829	16.08
602.951	24.08
603.074	4.08
603.196	28.08
603.318	22.08
603.44	24.08
603.563	22.08
603.685	25.08
603.807	23.08
603.929	17.08
604.052	19.08
604.174	25.08
604.296	22.08
604.418	24.08
604.541	29.08
604.663	17.08
604.785	21.08
604.907	29.08
605.03	22.08
605.152	51.08
605.274	34.08
605.396	22.08
605.519	7.08
605.641	31.08
605.763	7.08
605.885	22.08
606.008	23.08
606.13	20.08
606.252	42.08
606.374	2.08
606.496	22.08
606.619	15.08
606.741	14.08
606.863	24.08
606.985	43.08
607.108	35.08
607.23	28.08
607.352	3.08
607.474	10.08
607.596	-1.92
607.719	12.08
607.841	27.08
607.963	23.08
608.085	19.08
608.207	36.08
608.33	26.08
608.452	13.08
608.574	22.08
608.696	30.08
608.819	15.08
608.941	6.08
609.063	11.08
609.185	19.08
609.307	24.08
609.43	27.08
609.552	32.08
609.674	5.08
609.796	15.08
609.918	28.08
610.041	22.08
610.163	14.08
610.285	20.08
610.407	29.08
610.529	24.08
610.652	12.08
610.774	30.08
610.896	6.08
611.018	8.08
611.14	11.08
611.263	3.08
611.385	16.08
611.507	26.08
611.629	-2.92
611.751	38.08
611.873	29.08
611.996	33.08
612.118	26.08
612.24	16.08
612.362	29.08
612.484	43.08
612.607	39.08
612.729	52.08
612.851	26.08
612.973	11.08
613.095	19.08
613.218	18.08
613.34	35.08
613.462	20.08
613.584	12.08
613.706	4.08
613.828	42.08
613.951	26.08
614.073	-1.92
614.195	7.08
614.317	26.08
614.439	14.08
614.561	15.08
614.684	16.08
614.806	35.08
614.928	23.08
615.05	35.08
615.172	28.08
615.294	19.08
615.417	29.08
615.539	13.08
615.661	26.08
615.783	45.08
615.905	20.08
616.027	17.08
616.15	33.08
616.272	20.08
616.394	9.08
616.516	27.08
616.638	27.08
616.76	12.08
616.883	12.08
617.005	16.08
617.127	8.08
617.249	17.08
617.371	35.08
617.493	2.08
617.615	28.08
617.738	5.08
617.86	1.08
617.982	19.08
618.104	0.08
618.226	4.08
618.348	-0.92
618.471	35.08
618.593	30.08
618.715	-0.92
618.837	11.08
618.959	10.08
619.081	26.08
619.203	22.08
619.326	23.08
619.448	22.08
619.57	29.08
619.692	33.08
619.814	29.08
619.936	22.08
620.058	19.08
620.181	10.08
620.303	12.08
620.425	31.08
620.547	-1.92
620.669	-1.92
620.791	19.08
620.913	7.08
621.036	5.08
621.158	18.08
621.28	18.08
621.402	10.08
621.524	26.08
621.646	13.08
621.768	10.08
621.891	0.08
622.013	2.08
622.135	2.08
622.257	11.08
622.379	17.08
622.501	18.08
622.623	27.08
622.745	12.08
622.868	17.08
622.99	16.08
623.112	7.08
623.234	10.08
623.356	6.08
623.478	16.08
623.6	15.08
623.722	10.08
623.845	24.08
623.967	32.08
624.089	36.08
624.211	23.08
624.333	15.08
624.455	14.08
624.577	16.08
624.699	30.08
624.822	18.08
624.944	-4.92
625.066	19.08
625.188	4.08
625.31	2.08
625.432	31.08
625.554	21.08
625.676	50.08
625.799	34.08
625.921	32.08
626.043	19.08
626.165	25.08
626.287	3.08
626.409	17.08
626.531	12.08
626.653	7.08
626.775	6.08
626.898	18.08
627.02	23.08
627.142	35.08
627.264	42.08
627.386	23.08
627.508	2.08
627.63	19.08
627.752	41.08
627.874	39.08
627.997	19.08
628.119	34.08
628.241	20.08
628.363	20.08
628.485	24.08
628.607	-3.92
628.729	-2.92
628.851	9.08
628.973	17.08
629.096	17.08
629.218	21.08
629.34	33.08
629.462	20.08
629.584	16.08
629.706	24.08
629.828	31.08
629.95	16.08
630.072	-6.92
630.195	24.08
630.317	28.08
630.439	10.08
630.561	13.08
630.683	5.08
630.805	23.08
630.927	14.08
631.049	7.08
631.171	10.08
631.293	32.08
631.416	10.08
631.538	13.08
631.66	18.08
631.782	36.08
631.904	28.08
632.026	19.08
632.148	15.08
632.27	2.08
632.392	16.08
632.514	16.08
632.637	19.08
632.759	9.08
632.881	10.08
633.003	16.08
633.125	2.08
633.247	2.08
633.369	16.08
633.491	6.08
633.613	14.08
633.735	7.08
633.858	20.08
633.98	21.08
634.102	-0.92
634.224	14.08
634.346	7.08
634.468	7.08
634.59	18.08
634.712	8.08
634.834	21.08
634.956	13.08
635.078	3.08
635.201	7.08
635.323	16.08
635.445	13.08
635.567	7.08
635.689	19.08
635.811	13.08
635.933	16.08
636.055	9.08
636.177	6.08
636.299	18.08
636.421	10.08
636.544	-2.92
636.666	23.08
636.788	31.08
636.91	20.08
637.032	2.08
637.154	21.08
637.276	35.08
637.398	18.08
637.52	17.08
637.642	11.08
637.764	6.08
637.887	21.08
638.009	12.08
638.131	14.08
638.253	15.08
638.375	13.08
638.497	11.08
638.619	0.08
638.741	9.08
638.863	-2.92
638.985	-8.92
639.107	-2.92
639.23	8.08
639.352	27.08
639.474	11.08
639.596	-3.92
639.718	12.08
639.84	21.08
639.962	15.08
640.084	24.08
640.206	16.08
640.328	-6.92
640.45	6.08
640.573	31.08
640.695	8.08
640.817	9.08
640.939	26.08
641.061	13.08
641.183	18.08
641.305	6.08
641.427	4.08
641.549	7.08
641.671	16.08
641.793	9.08
641.915	15.08
642.038	2.08
642.16	14.08
642.282	5.08
642.404	16.08
642.526	4.08
642.648	10.08
642.77	12.08
642.892	15.08
643.014	24.08
643.136	24.08
643.258	8.08
643.381	45.08
643.503	48.08
643.625	17.08
643.747	2.08
643.869	16.08
643.991	11.08
644.113	4.08
644.235	3.08
644.357	17.08
644.479	27.08
644.601	24.08
644.723	18.08
644.846	17.08
644.968	6.08
645.09	1.08
645.212	2.08
645.334	24.08
645.456	20.08
645.578	20.08
645.7	18.08
645.822	17.08
645.944	20.08
646.066	0.08
646.188	-4.92
646.311	28.08
646.433	23.08
646.555	22.08
646.677	31.08
646.799	17.08
646.921	13.08
647.043	19.08
647.165	-18.92
647.287	7.08
647.409	21.08
647.531	23.08
647.654	-3.92
647.776	17.08
647.898	3.08
648.02	-8.92
648.142	-2.92
648.264	18.08
648.386	6.08
648.508	4.08
648.63	19.08
648.752	13.08
648.874	2.08
648.997	16.08
649.119	25.08
649.241	4.08
649.363	27.08
649.485	28.08
649.607	9.08
649.729	-4.92
649.851	-5.92
649.973	0.08
650.095	31.08
650.217	7.08
650.34	12.08
650.462	28.08
650.584	5.08
650.706	0.08
650.828	13.08
650.95	12.08
651.072	0.08
651.194	6.08
651.316	15.08
651.438	8.08
651.56	0.08
651.683	5.08
651.805	9.08
651.927	18.08
652.049	-2.92
652.171	14.08
652.293	4.08
652.415	-1.92
652.537	-1.92
652.659	-6.92
652.781	2.08
652.903	27.08
653.026	10.08
653.148	15.08
653.27	17.08
653.392	15.08
653.514	-0.92
653.636	8.08
653.758	9.08
653.88	3.08
654.002	22.08
654.124	3.08
654.247	-7.92
654.369	32.08
654.491	5.08
654.613	2.08
654.735	4.08
654.857	24.08
654.979	9.08
655.101	14.08
655.223	31.08
655.345	10.08
655.468	14.08
655.59	13.08
655.712	9.08
655.834	-7.92
655.956	17.08
656.078	-4.92
656.2	10.08
656.322	14.08
656.444	-8.92
656.566	1.08
656.689	6.08
656.811	1.08
656.933	12.08
657.055	-3.92
657.177	16.08
657.299	2.08
657.421	5.08
657.543	22.08
657.665	-10.92
657.787	0.08
657.91	-3.92
658.032	15.08
658.154	18.08
658.276	14.08
658.398	-9.92
658.52	3.08
658.642	11.08
658.764	19.08
658.886	-5.92
659.009	3.08
659.131	33.08
659.253	8.08
659.375	9.08
659.497	6.08
659.619	19.08
659.741	4.08
659.863	2.08
659.985	-9.92
660.108	7.08
660.23	7.08
660.352	12.08
660.474	6.08
660.596	11.08
660.718	21.08
660.84	-2.92
660.962	2.08
661.084	0.08
661.207	0.08
661.329	11.08
661.451	15.08
661.573	11.08
661.695	26.08
661.817	9.08
661.939	14.08
662.061	26.08
662.184	21.08
662.306	2.08
662.428	6.08
662.55	20.08
662.672	15.08
662.794	14.08
662.916	2.08
663.038	-0.92
663.161	20.08
663.283	13.08
663.405	11.08
663.527	11.08
663.649	24.08
663.771	6.08
663.893	2.08
664.015	17.08
664.138	3.08
664.26	21.08
664.382	16.08
664.504	5.08
664.626	-8.92
664.748	-0.92
664.87	-11.92
664.992	8.08
665.115	6.08
665.237	12.08
665.359	-2.92
665.481	16.08
665.603	-14.92
665.725	-2.92
665.847	0.08
665.97	2.08
666.092	26.08
666.214	22.08
666.336	9.08
666.458	13.08
666.58	23.08
666.702	4.08
666.825	-10.92
666.947	-15.92
667.069	7.08
667.191	-9.92
667.313	7.08
667.435	3.08
667.557	5.08
667.68	10.08
667.802	2.08
667.924	11.08
668.046	13.08
668.168	0.08
668.29	42.08
668.412	18.08
668.535	4.08
668.657	6.08
668.779	-7.92
668.901	13.08
669.023	13.08
669.145	-0.92
669.267	-3.92
669.39	21.08
669.512	13.08
669.634	4.08
669.756	8.08
669.878	4.08
670	11.08
670.123	-9.92
670.245	19.08
670.367	17.08
670.489	27.08
670.611	-1.92
670.733	-6.92
670.856	0.08
670.978	0.08
671.1	-5.92
671.222	2.08
671.344	-0.92
671.466	0.08
671.589	-3.92
671.711	-0.92
671.833	7.08
671.955	12.08
672.077	-7.92
672.199	1.08
672.322	48.08
672.444	0.08
672.566	16.08
672.688	5.08
672.81	21.08
672.932	20.08
673.055	-4.92
673.177	-7.92
673.299	-4.92
673.421	-15.92
673.543	8.08
673.665	22.08
673.788	20.08
673.91	4.08
674.032	-5.92
674.154	-4.92
674.276	14.08
674.399	2.08
674.521	5.08
674.643	-0.92
674.765	15.08
674.887	8.08
675.009	7.08
675.132	-3.92
675.254	-9.92
675.376	-0.92
675.498	0.08
675.62	24.08
675.743	13.08
675.865	16.08
675.987	-4.92
676.109	6.08
676.231	15.08
676.354	23.08
676.476	0.08
676.598	10.08
676.72	10.08
676.842	1.08
676.965	5.08
677.087	-5.92
677.209	15.08
677.331	19.08
677.453	10.08
677.576	-5.92
677.698	10.08
677.82	3.08
677.942	-5.92
678.064	25.08
678.187	12.08
678.309	4.08
678.431	-7.92
678.553	7.08
678.675	20.08
678.798	14.08
678.92	14.08
679.042	10.08
679.164	-0.92
679.286	23.08
679.409	-8.92
679.531	-21.92
679.653	-1.92
679.775	12.08
679.898	6.08
680.02	-2.92
680.142	10.08
680.264	12.08
680.386	-0.92
680.509	-0.92
680.631	3.08
680.753	-0.92
680.875	-7.92
680.998	34.08
681.12	7.08
681.242	13.08
681.364	-1.92
681.486	8.08
681.609	11.08
681.731	0.08
681.853	-7.92
681.975	-6.92
682.098	5.08
682.22	16.08
682.342	3.08
682.464	2.08
682.587	10.08
682.709	5.08
682.831	0.08
682.953	7.08
683.076	13.08
683.198	20.08
683.32	3.08
683.442	6.08
683.565	8.08
683.687	12.08
683.809	7.08
683.931	-19.92
684.054	6.08
684.176	18.08
684.298	15.08
684.42	-4.92
684.543	2.08
684.665	15.08
684.787	-1.92
684.909	7.08
685.032	10.08
685.154	-16.92
685.276	-7.92
685.398	12.08
685.521	10.08
685.643	-3.92
685.765	18.08
685.887	14.08
686.01	15.08
686.132	3.08
686.254	7.08
686.377	13.08
686.499	10.08
686.621	-4.92
686.743	25.08
686.866	3.08
686.988	29.08
687.11	18.08
687.232	12.08
687.355	-2.92
687.477	2.08
687.599	9.08
687.722	-4.92
687.844	-9.92
687.966	6.08
688.088	14.08
688.211	29.08
688.333	21.08
688.455	9.08
688.578	27.08
688.7	43.08
688.822	18.08
688.944	5.08
689.067	43.08
689.189	15.08
689.311	3.08
689.434	11.08
689.556	2.08
689.678	21.08
689.801	-2.92
689.923	8.08
690.045	28.08
690.167	22.08
690.29	39.08
690.412	18.08
690.534	12.08
690.657	17.08
690.779	3.08
690.901	25.08
691.024	4.08
691.146	5.08
691.268	7.08
691.391	-6.92
691.513	2.08
691.635	18.08
691.758	35.08
691.88	20.08
692.002	8.08
692.125	6.08
692.247	10.08
692.369	7.08
692.492	16.08
692.614	-0.92
692.736	5.08
692.859	3.08
692.981	-3.92
693.103	-0.92
693.226	18.08
693.348	24.08
693.47	22.08
693.593	23.08
693.715	36.08
693.837	28.08
693.96	20.08
694.082	-1.92
694.204	4.08
694.327	3.08
694.449	3.08
694.571	3.08
694.694	3.08
694.816	14.08
694.938	-10.92
695.061	14.08
695.183	9.08
695.305	13.08
695.428	30.08
695.55	12.08
695.672	3.08
695.795	18.08
695.917	25.08
696.04	19.08
696.162	11.08
696.284	6.08
696.407	6.08
696.529	2.08
696.651	17.08
696.774	7.08
696.896	-2.92
697.019	17.08
697.141	2.08
697.263	-3.92
697.386	-1.92
697.508	13.08
697.63	4.08
697.753	22.08
697.875	8.08
697.998	13.08
698.12	28.08
698.242	0.08
698.365	11.08
698.487	5.08
698.61	12.08
698.732	13.08
698.854	26.08
698.977	9.08
699.099	12.08
699.221	12.08
699.344	5.08
699.466	9.08
699.589	18.08
699.711	-9.92
699.834	-0.92
699.956	-2.92
700.078	9.08
700.201	15.08
700.323	19.08
700.446	6.08
700.568	-12.92
700.69	20.08
700.813	9.08
700.935	4.08
701.058	14.08
701.18	-1.92
701.302	3.08
701.425	-1.92
701.547	-4.92
701.67	5.08
701.792	13.08
701.915	9.08
702.037	10.08
702.159	19.08
702.282	9.08
702.404	2.08
702.527	15.08
702.649	28.08
702.772	12.08
702.894	23.08
703.017	14.08
703.139	2.08
703.261	19.08
703.384	6.08
703.506	-11.92
703.629	0.08
703.751	14.08
703.874	4.08
703.996	-8.92
704.119	-18.92
704.241	12.08
704.364	-17.92
704.486	5.08
704.608	2.08
704.731	1.08
704.853	17.08
704.976	8.08
705.098	6.08
705.221	3.08
705.343	12.08
705.466	8.08
705.588	22.08
705.711	6.08
705.833	24.08
705.956	31.08
706.078	16.08
706.201	13.08
706.323	11.08
706.446	11.08
