Data from LowRes_mercury_15_20_11_07_2024_HR4C61881__2__15-23-32-471.txt Node

Date: Thu Nov 07 15:23:32 EST 2024
User: crc00042
Spectrometer: HR4C6188
Trigger mode: 4
Integration Time (sec): 1.000000E-1
Scans to average: 1
Electric dark correction enabled: true
Nonlinearity correction enabled: false
Boxcar width: 0
XAxis mode: Wavelengths
Number of Pixels in Spectrum: 3648
>>>>>Begin Spectral Data<<<<<
245.66	-69.31
245.797	-69.31
245.934	-69.31
246.071	-83.31
246.208	2.69
246.344	-9.31
246.481	-4.31
246.618	-11.31
246.755	24.69
246.892	4.69
247.029	-8.31
247.165	-13.31
247.302	30.69
247.439	1.69
247.576	9.69
247.713	-20.31
247.849	16.69
247.986	-21.31
248.123	-25.31
248.26	-14.31
248.396	-2.31
248.533	4.69
248.67	3.69
248.806	0.69
248.943	-28.31
249.08	0.69
249.216	8.69
249.353	-16.31
249.49	-6.31
249.626	-1.31
249.763	-22.31
249.9	-30.31
250.036	3.69
250.173	-0.31
250.309	3.69
250.446	-4.31
250.582	-9.31
250.719	-18.31
250.856	-14.31
250.992	-23.31
251.129	-6.31
251.265	-18.31
251.402	11.69
251.538	-4.31
251.675	-0.31
251.811	4.69
251.948	20.69
252.084	-8.31
252.221	-8.31
252.357	7.69
252.493	30.69
252.63	-7.31
252.766	8.69
252.903	-17.31
253.039	4.69
253.175	-1.31
253.312	25.69
253.448	-9.31
253.585	-13.31
253.721	7.69
253.857	-8.31
253.994	4.69
254.13	-5.31
254.266	6.69
254.403	-4.31
254.539	11.69
254.675	23.69
254.811	-6.31
254.948	-12.31
255.084	2.69
255.22	-7.31
255.356	3.69
255.493	3.69
255.629	-3.31
255.765	4.69
255.901	4.69
256.037	3.69
256.174	17.69
256.31	-7.31
256.446	-15.31
256.582	-7.31
256.718	22.69
256.854	25.69
256.991	-0.31
257.127	10.69
257.263	-4.31
257.399	2.69
257.535	-7.31
257.671	2.69
257.807	-21.31
257.943	-6.31
258.079	-10.31
258.215	4.69
258.351	18.69
258.487	-6.31
258.623	13.69
258.759	0.69
258.895	-5.31
259.031	-9.31
259.167	-14.31
259.303	0.69
259.439	-9.31
259.575	-1.31
259.711	-2.31
259.847	-31.31
259.983	-10.31
260.119	4.69
260.255	-5.31
260.391	14.69
260.527	-2.31
260.663	14.69
260.799	-2.31
260.934	-9.31
261.07	-8.31
261.206	-11.31
261.342	-18.31
261.478	4.69
261.614	-4.31
261.749	-3.31
261.885	-4.31
262.021	7.69
262.157	-3.31
262.293	-13.31
262.428	-13.31
262.564	-3.31
262.7	11.69
262.836	-4.31
262.971	7.69
263.107	11.69
263.243	16.69
263.378	8.69
263.514	-10.31
263.65	6.69
263.785	-12.31
263.921	-9.31
264.057	-9.31
264.192	2.69
264.328	22.69
264.464	-12.31
264.599	-4.31
264.735	8.69
264.871	-5.31
265.006	6.69
265.142	4.69
265.277	3.69
265.413	1.69
265.548	4.69
265.684	15.69
265.819	-7.31
265.955	3.69
266.091	-32.31
266.226	-16.31
266.362	-9.31
266.497	3.69
266.633	-5.31
266.768	-18.31
266.903	-0.31
267.039	6.69
267.174	1.69
267.31	0.69
267.445	-0.31
267.581	-7.31
267.716	-4.31
267.851	-13.31
267.987	4.69
268.122	8.69
268.258	-18.31
268.393	-24.31
268.528	3.69
268.664	-12.31
268.799	-8.31
268.934	0.69
269.07	-10.31
269.205	4.69
269.34	18.69
269.476	-1.31
269.611	-7.31
269.746	17.69
269.881	17.69
270.017	14.69
270.152	0.69
270.287	8.69
270.422	11.69
270.558	-14.31
270.693	-4.31
270.828	-3.31
270.963	-41.31
271.098	-12.31
271.234	-10.31
271.369	16.69
271.504	-4.31
271.639	-6.31
271.774	3.69
271.909	2.69
272.045	-7.31
272.18	-2.31
272.315	-7.31
272.45	-6.31
272.585	-15.31
272.72	5.69
272.855	-2.31
272.99	8.69
273.125	-10.31
273.26	-4.31
273.395	-6.31
273.53	7.69
273.665	24.69
273.8	-9.31
273.935	8.69
274.07	-5.31
274.205	-5.31
274.34	-14.31
274.475	-22.31
274.61	11.69
274.745	2.69
274.88	16.69
275.015	-6.31
275.15	-3.31
275.285	-5.31
275.42	-5.31
275.555	23.69
275.69	0.69
275.825	-11.31
275.959	-18.31
276.094	-10.31
276.229	9.69
276.364	-11.31
276.499	-13.31
276.634	3.69
276.768	-14.31
276.903	-5.31
277.038	5.69
277.173	12.69
277.308	0.69
277.442	-12.31
277.577	-19.31
277.712	6.69
277.847	-0.31
277.981	3.69
278.116	-33.31
278.251	3.69
278.386	2.69
278.52	-14.31
278.655	2.69
278.79	15.69
278.924	1.69
279.059	5.69
279.194	-22.31
279.328	29.69
279.463	8.69
279.598	11.69
279.732	8.69
279.867	17.69
280.001	14.69
280.136	-0.31
280.271	-0.31
280.405	23.69
280.54	6.69
280.674	-4.31
280.809	1.69
280.943	-6.31
281.078	-15.31
281.213	31.69
281.347	11.69
281.482	-2.31
281.616	0.69
281.751	-5.31
281.885	-18.31
282.02	-10.31
282.154	5.69
282.288	-12.31
282.423	-4.31
282.557	-28.31
282.692	-1.31
282.826	-2.31
282.961	-9.31
283.095	1.69
283.229	-11.31
283.364	1.69
283.498	7.69
283.633	-8.31
283.767	-19.31
283.901	-8.31
284.036	-7.31
284.17	-1.31
284.304	-23.31
284.439	-8.31
284.573	-8.31
284.707	13.69
284.842	-8.31
284.976	-0.31
285.11	-8.31
285.244	-8.31
285.379	36.69
285.513	2.69
285.647	0.69
285.781	0.69
285.916	10.69
286.05	-4.31
286.184	15.69
286.318	0.69
286.453	-16.31
286.587	-14.31
286.721	-13.31
286.855	-0.31
286.989	15.69
287.123	-12.31
287.258	-20.31
287.392	-14.31
287.526	11.69
287.66	-17.31
287.794	-19.31
287.928	1.69
288.062	-4.31
288.196	-19.31
288.33	-1.31
288.464	27.69
288.598	12.69
288.733	3.69
288.867	5.69
289.001	-7.31
289.135	8.69
289.269	-0.31
289.403	4.69
289.537	-2.31
289.671	8.69
289.805	-8.31
289.939	-0.31
290.073	1.69
290.207	26.69
290.34	-11.31
290.474	10.69
290.608	12.69
290.742	-2.31
290.876	2.69
291.01	-8.31
291.144	20.69
291.278	5.69
291.412	-24.31
291.546	-3.31
291.679	-3.31
291.813	-1.31
291.947	10.69
292.081	-9.31
292.215	5.69
292.349	8.69
292.482	19.69
292.616	6.69
292.75	5.69
292.884	-1.31
293.018	9.69
293.151	-16.31
293.285	-8.31
293.419	-19.31
293.553	-16.31
293.686	-5.31
293.82	-1.31
293.954	13.69
294.088	16.69
294.221	-3.31
294.355	-14.31
294.489	-0.31
294.622	-9.31
294.756	14.69
294.89	-3.31
295.023	-5.31
295.157	4.69
295.291	6.69
295.424	16.69
295.558	8.69
295.691	-2.31
295.825	-7.31
295.959	5.69
296.092	-11.31
296.226	-13.31
296.359	-4.31
296.493	12.69
296.627	3.69
296.76	4.69
296.894	-19.31
297.027	5.69
297.161	-11.31
297.294	-13.31
297.428	-6.31
297.561	24.69
297.695	3.69
297.828	4.69
297.962	-7.31
298.095	-18.31
298.229	8.69
298.362	-8.31
298.495	-8.31
298.629	-10.31
298.762	-9.31
298.896	0.69
299.029	-5.31
299.162	17.69
299.296	11.69
299.429	2.69
299.563	-7.31
299.696	1.69
299.829	5.69
299.963	10.69
300.096	10.69
300.229	-5.31
300.363	-9.31
300.496	-15.31
300.629	-22.31
300.763	-2.31
300.896	-13.31
301.029	-0.31
301.162	-23.31
301.296	-31.31
301.429	-14.31
301.562	-24.31
301.695	1.69
301.829	8.69
301.962	11.69
302.095	-3.31
302.228	-15.31
302.362	4.69
302.495	-14.31
302.628	-3.31
302.761	-7.31
302.894	-5.31
303.027	-11.31
303.161	-11.31
303.294	-19.31
303.427	12.69
303.56	-11.31
303.693	6.69
303.826	-6.31
303.959	-5.31
304.092	-0.31
304.225	3.69
304.359	17.69
304.492	2.69
304.625	-15.31
304.758	-4.31
304.891	-16.31
305.024	13.69
305.157	3.69
305.29	-6.31
305.423	-3.31
305.556	9.69
305.689	14.69
305.822	-1.31
305.955	11.69
306.088	-7.31
306.221	0.69
306.354	-4.31
306.487	-19.31
306.62	-16.31
306.752	-7.31
306.885	-11.31
307.018	-6.31
307.151	1.69
307.284	9.69
307.417	1.69
307.55	13.69
307.683	-0.31
307.816	12.69
307.948	-11.31
308.081	-2.31
308.214	-3.31
308.347	16.69
308.48	-2.31
308.613	-22.31
308.745	11.69
308.878	-6.31
309.011	-11.31
309.144	4.69
309.277	-6.31
309.409	-7.31
309.542	-18.31
309.675	-3.31
309.808	-11.31
309.94	-6.31
310.073	-10.31
310.206	-1.31
310.339	-11.31
310.471	-6.31
310.604	6.69
310.737	8.69
310.869	-4.31
311.002	-5.31
311.135	-25.31
311.267	-25.31
311.4	8.69
311.533	-7.31
311.665	-9.31
311.798	0.69
311.93	0.69
312.063	8.69
312.196	36.69
312.328	73.69
312.461	38.69
312.593	8.69
312.726	33.69
312.859	87.69
312.991	151.69
313.124	47.69
313.256	5.69
313.389	9.69
313.521	-3.31
313.654	-0.31
313.786	-16.31
313.919	-4.31
314.051	-18.31
314.184	6.69
314.316	-2.31
314.449	-19.31
314.581	3.69
314.714	-19.31
314.846	15.69
314.978	-10.31
315.111	-5.31
315.243	-1.31
315.376	-6.31
315.508	-12.31
315.641	-8.31
315.773	7.69
315.905	0.69
316.038	-8.31
316.17	-0.31
316.302	15.69
316.435	-5.31
316.567	-6.31
316.699	6.69
316.832	-16.31
316.964	-9.31
317.096	4.69
317.229	-6.31
317.361	1.69
317.493	-22.31
317.625	-18.31
317.758	-0.31
317.89	11.69
318.022	9.69
318.155	-4.31
318.287	0.69
318.419	-5.31
318.551	-8.31
318.683	-12.31
318.816	-18.31
318.948	1.69
319.08	-0.31
319.212	-2.31
319.344	12.69
319.477	-3.31
319.609	-2.31
319.741	15.69
319.873	-3.31
320.005	-12.31
320.137	-0.31
320.269	-6.31
320.401	-2.31
320.534	15.69
320.666	-19.31
320.798	-18.31
320.93	-16.31
321.062	-3.31
321.194	-4.31
321.326	-4.31
321.458	16.69
321.59	-18.31
321.722	2.69
321.854	-4.31
321.986	11.69
322.118	-11.31
322.25	-22.31
322.382	-6.31
322.514	-7.31
322.646	-12.31
322.778	11.69
322.91	-12.31
323.042	-7.31
323.174	3.69
323.306	0.69
323.438	-35.31
323.57	-2.31
323.702	-0.31
323.834	3.69
323.966	-8.31
324.097	-1.31
324.229	-0.31
324.361	2.69
324.493	3.69
324.625	-21.31
324.757	6.69
324.889	-2.31
325.021	-5.31
325.152	1.69
325.284	28.69
325.416	-13.31
325.548	14.69
325.68	0.69
325.811	34.69
325.943	19.69
326.075	9.69
326.207	15.69
326.339	16.69
326.47	-11.31
326.602	16.69
326.734	1.69
326.866	-12.31
326.997	-19.31
327.129	-10.31
327.261	-17.31
327.392	-12.31
327.524	-8.31
327.656	6.69
327.787	11.69
327.919	-16.31
328.051	6.69
328.182	24.69
328.314	6.69
328.446	-15.31
328.577	28.69
328.709	-7.31
328.841	-19.31
328.972	-16.31
329.104	-6.31
329.235	-10.31
329.367	-1.31
329.499	-1.31
329.63	5.69
329.762	7.69
329.893	24.69
330.025	-4.31
330.156	-34.31
330.288	8.69
330.419	8.69
330.551	-11.31
330.683	4.69
330.814	3.69
330.946	23.69
331.077	-4.31
331.208	-10.31
331.34	-4.31
331.471	-10.31
331.603	-4.31
331.734	-7.31
331.866	7.69
331.997	15.69
332.129	-3.31
332.26	1.69
332.392	9.69
332.523	-14.31
332.654	-10.31
332.786	-9.31
332.917	6.69
333.048	9.69
333.18	30.69
333.311	5.69
333.443	-4.31
333.574	-4.31
333.705	37.69
333.837	47.69
333.968	129.69
334.099	228.69
334.231	207.69
334.362	52.69
334.493	17.69
334.624	5.69
334.756	1.69
334.887	1.69
335.018	0.69
335.15	1.69
335.281	6.69
335.412	12.69
335.543	25.69
335.675	-5.31
335.806	-9.31
335.937	-8.31
336.068	28.69
336.199	30.69
336.331	12.69
336.462	19.69
336.593	13.69
336.724	9.69
336.855	0.69
336.986	17.69
337.118	-2.31
337.249	17.69
337.38	6.69
337.511	11.69
337.642	1.69
337.773	3.69
337.904	-0.31
338.035	24.69
338.166	3.69
338.298	18.69
338.429	10.69
338.56	8.69
338.691	7.69
338.822	-0.31
338.953	1.69
339.084	8.69
339.215	3.69
339.346	2.69
339.477	7.69
339.608	-12.31
339.739	-9.31
339.87	0.69
340.001	8.69
340.132	15.69
340.263	11.69
340.394	16.69
340.525	27.69
340.656	10.69
340.787	-10.31
340.918	14.69
341.049	-3.31
341.179	13.69
341.31	6.69
341.441	0.69
341.572	6.69
341.703	1.69
341.834	-17.31
341.965	8.69
342.096	-2.31
342.227	-5.31
342.357	1.69
342.488	6.69
342.619	20.69
342.75	12.69
342.881	-16.31
343.012	25.69
343.142	19.69
343.273	4.69
343.404	12.69
343.535	62.69
343.666	18.69
343.796	23.69
343.927	11.69
344.058	12.69
344.189	25.69
344.319	7.69
344.45	14.69
344.581	17.69
344.712	15.69
344.842	12.69
344.973	18.69
345.104	18.69
345.234	9.69
345.365	3.69
345.496	13.69
345.626	29.69
345.757	27.69
345.888	5.69
346.018	12.69
346.149	2.69
346.28	45.69
346.41	8.69
346.541	11.69
346.672	47.69
346.802	22.69
346.933	25.69
347.063	26.69
347.194	38.69
347.325	23.69
347.455	34.69
347.586	12.69
347.716	17.69
347.847	13.69
347.977	31.69
348.108	36.69
348.238	33.69
348.369	28.69
348.499	48.69
348.63	37.69
348.76	55.69
348.891	60.69
349.021	57.69
349.152	53.69
349.282	31.69
349.413	42.69
349.543	53.69
349.674	44.69
349.804	43.69
349.935	21.69
350.065	31.69
350.196	22.69
350.326	17.69
350.456	12.69
350.587	36.69
350.717	25.69
350.848	19.69
350.978	7.69
351.108	4.69
351.239	29.69
351.369	8.69
351.499	15.69
351.63	16.69
351.76	17.69
351.89	20.69
352.021	18.69
352.151	2.69
352.281	17.69
352.412	18.69
352.542	19.69
352.672	6.69
352.803	27.69
352.933	12.69
353.063	19.69
353.193	8.69
353.324	-4.31
353.454	4.69
353.584	19.69
353.714	9.69
353.845	6.69
353.975	-3.31
354.105	2.69
354.235	8.69
354.365	12.69
354.496	11.69
354.626	16.69
354.756	40.69
354.886	15.69
355.016	10.69
355.146	28.69
355.277	30.69
355.407	14.69
355.537	14.69
355.667	13.69
355.797	17.69
355.927	21.69
356.057	16.69
356.187	20.69
356.318	0.69
356.448	23.69
356.578	29.69
356.708	29.69
356.838	29.69
356.968	38.69
357.098	37.69
357.228	32.69
357.358	15.69
357.488	8.69
357.618	47.69
357.748	33.69
357.878	22.69
358.008	9.69
358.138	23.69
358.268	-2.31
358.398	30.69
358.528	-8.31
358.658	8.69
358.788	27.69
358.918	7.69
359.048	4.69
359.178	22.69
359.308	33.69
359.438	36.69
359.568	39.69
359.698	42.69
359.827	29.69
359.957	27.69
360.087	17.69
360.217	16.69
360.347	27.69
360.477	34.69
360.607	4.69
360.737	24.69
360.866	4.69
360.996	2.69
361.126	12.69
361.256	31.69
361.386	23.69
361.516	29.69
361.645	11.69
361.775	34.69
361.905	27.69
362.035	43.69
362.165	34.69
362.294	27.69
362.424	43.69
362.554	38.69
362.684	19.69
362.813	23.69
362.943	35.69
363.073	34.69
363.203	59.69
363.332	81.69
363.462	83.69
363.592	104.69
363.721	112.69
363.851	164.69
363.981	216.69
364.111	275.69
364.24	344.69
364.37	491.69
364.5	880.69
364.629	1860.69
364.759	3936.69
364.888	6420.69
365.018	9600.69
365.148	14901.69
365.277	13210.69
365.407	4804.69
365.537	3165.69
365.666	4042.69
365.796	1885.69
365.925	851.69
366.055	762.69
366.184	1047.69
366.314	1386.69
366.444	2520.69
366.573	2145.69
366.703	680.69
366.832	205.69
366.962	127.69
367.091	82.69
367.221	73.69
367.35	38.69
367.48	75.69
367.609	41.69
367.739	56.69
367.868	14.69
367.998	33.69
368.127	53.69
368.257	54.69
368.386	56.69
368.516	50.69
368.645	32.69
368.775	58.69
368.904	40.69
369.033	18.69
369.163	25.69
369.292	18.69
369.422	36.69
369.551	33.69
369.68	23.69
369.81	30.69
369.939	21.69
370.069	53.69
370.198	48.69
370.327	33.69
370.457	23.69
370.586	45.69
370.715	29.69
370.845	33.69
370.974	5.69
371.103	28.69
371.233	51.69
371.362	54.69
371.491	42.69
371.621	52.69
371.75	31.69
371.879	28.69
372.008	45.69
372.138	50.69
372.267	51.69
372.396	51.69
372.525	52.69
372.655	36.69
372.784	23.69
372.913	25.69
373.042	27.69
373.172	35.69
373.301	1.69
373.43	-4.31
373.559	26.69
373.688	13.69
373.818	9.69
373.947	37.69
374.076	11.69
374.205	10.69
374.334	3.69
374.463	11.69
374.593	4.69
374.722	22.69
374.851	24.69
374.98	-7.31
375.109	20.69
375.238	26.69
375.367	35.69
375.496	0.69
375.625	12.69
375.755	14.69
375.884	26.69
376.013	4.69
376.142	-9.31
376.271	15.69
376.4	26.69
376.529	1.69
376.658	12.69
376.787	17.69
376.916	25.69
377.045	32.69
377.174	7.69
377.303	20.69
377.432	20.69
377.561	23.69
377.69	-2.31
377.819	48.69
377.948	22.69
378.077	0.69
378.206	-9.31
378.335	21.69
378.464	25.69
378.593	21.69
378.722	-11.31
378.851	-14.31
378.98	-0.31
379.108	-9.31
379.237	10.69
379.366	17.69
379.495	27.69
379.624	11.69
379.753	9.69
379.882	14.69
380.011	3.69
380.14	9.69
380.268	20.69
380.397	2.69
380.526	20.69
380.655	2.69
380.784	-1.31
380.913	4.69
381.041	2.69
381.17	-17.31
381.299	11.69
381.428	34.69
381.557	18.69
381.685	9.69
381.814	30.69
381.943	19.69
382.072	-1.31
382.2	7.69
382.329	5.69
382.458	24.69
382.587	24.69
382.715	30.69
382.844	18.69
382.973	9.69
383.102	5.69
383.23	9.69
383.359	-3.31
383.488	11.69
383.616	-2.31
383.745	12.69
383.874	14.69
384.003	13.69
384.131	15.69
384.26	18.69
384.389	17.69
384.517	-3.31
384.646	2.69
384.774	1.69
384.903	22.69
385.032	35.69
385.16	17.69
385.289	6.69
385.418	5.69
385.546	18.69
385.675	32.69
385.803	25.69
385.932	19.69
386.06	-3.31
386.189	21.69
386.318	24.69
386.446	17.69
386.575	29.69
386.703	34.69
386.832	10.69
386.96	17.69
387.089	35.69
387.217	27.69
387.346	4.69
387.474	19.69
387.603	14.69
387.731	14.69
387.86	15.69
387.988	7.69
388.117	24.69
388.245	9.69
388.374	4.69
388.502	11.69
388.631	-0.31
388.759	-10.31
388.888	12.69
389.016	19.69
389.144	22.69
389.273	1.69
389.401	12.69
389.53	9.69
389.658	30.69
389.786	11.69
389.915	3.69
390.043	9.69
390.172	21.69
390.3	41.69
390.428	23.69
390.557	15.69
390.685	27.69
390.813	52.69
390.942	30.69
391.07	13.69
391.198	11.69
391.327	16.69
391.455	11.69
391.583	26.69
391.712	24.69
391.84	21.69
391.968	12.69
392.096	15.69
392.225	3.69
392.353	20.69
392.481	21.69
392.609	30.69
392.738	19.69
392.866	18.69
392.994	7.69
393.122	13.69
393.251	12.69
393.379	20.69
393.507	6.69
393.635	7.69
393.764	29.69
393.892	29.69
394.02	13.69
394.148	24.69
394.276	8.69
394.404	43.69
394.533	0.69
394.661	24.69
394.789	41.69
394.917	48.69
395.045	34.69
395.173	18.69
395.302	2.69
395.43	17.69
395.558	30.69
395.686	32.69
395.814	37.69
395.942	27.69
396.07	35.69
396.198	26.69
396.326	36.69
396.454	29.69
396.582	44.69
396.711	41.69
396.839	16.69
396.967	23.69
397.095	33.69
397.223	24.69
397.351	30.69
397.479	35.69
397.607	25.69
397.735	47.69
397.863	55.69
397.991	33.69
398.119	42.69
398.247	36.69
398.375	58.69
398.503	43.69
398.631	50.69
398.759	61.69
398.887	49.69
399.015	35.69
399.143	52.69
399.271	53.69
399.399	71.69
399.526	77.69
399.654	77.69
399.782	59.69
399.91	90.69
400.038	86.69
400.166	64.69
400.294	83.69
400.422	85.69
400.55	84.69
400.678	104.69
400.805	106.69
400.933	115.69
401.061	138.69
401.189	114.69
401.317	141.69
401.445	100.69
401.573	70.69
401.7	42.69
401.828	25.69
401.956	25.69
402.084	37.69
402.212	41.69
402.34	32.69
402.467	38.69
402.595	28.69
402.723	47.69
402.851	57.69
402.978	56.69
403.106	65.69
403.234	85.69
403.362	133.69
403.489	129.69
403.617	158.69
403.745	201.69
403.873	282.69
404	599.69
404.128	1496.69
404.256	4012.69
404.384	5191.69
404.511	5588.69
404.639	7353.69
404.767	11663.69
404.894	14780.69
405.022	4971.69
405.15	1339.69
405.277	425.69
405.405	265.69
405.533	129.69
405.66	110.69
405.788	72.69
405.916	71.69
406.043	27.69
406.171	53.69
406.299	62.69
406.426	52.69
406.554	50.69
406.681	74.69
406.809	26.69
406.937	55.69
407.064	68.69
407.192	131.69
407.319	297.69
407.447	527.69
407.574	561.69
407.702	629.69
407.83	857.69
407.957	1620.69
408.085	928.69
408.212	286.69
408.34	83.69
408.467	56.69
408.595	41.69
408.722	54.69
408.85	38.69
408.977	27.69
409.105	13.69
409.232	25.69
409.36	13.69
409.487	33.69
409.615	26.69
409.742	11.69
409.87	29.69
409.997	20.69
410.125	33.69
410.252	32.69
410.379	7.69
410.507	43.69
410.634	12.69
410.762	17.69
410.889	32.69
411.017	29.69
411.144	23.69
411.271	27.69
411.399	30.69
411.526	40.69
411.653	33.69
411.781	35.69
411.908	23.69
412.036	14.69
412.163	37.69
412.29	28.69
412.418	18.69
412.545	28.69
412.672	24.69
412.8	42.69
412.927	30.69
413.054	57.69
413.182	32.69
413.309	21.69
413.436	14.69
413.564	23.69
413.691	16.69
413.818	15.69
413.945	15.69
414.073	19.69
414.2	12.69
414.327	10.69
414.454	28.69
414.582	38.69
414.709	11.69
414.836	15.69
414.963	20.69
415.091	29.69
415.218	21.69
415.345	23.69
415.472	17.69
415.6	7.69
415.727	12.69
415.854	22.69
415.981	15.69
416.108	15.69
416.236	21.69
416.363	31.69
416.49	20.69
416.617	24.69
416.744	19.69
416.871	26.69
416.998	9.69
417.126	27.69
417.253	9.69
417.38	28.69
417.507	40.69
417.634	36.69
417.761	29.69
417.888	38.69
418.015	23.69
418.143	33.69
418.27	23.69
418.397	34.69
418.524	31.69
418.651	15.69
418.778	22.69
418.905	34.69
419.032	25.69
419.159	19.69
419.286	63.69
419.413	35.69
419.54	62.69
419.667	36.69
419.794	28.69
419.921	35.69
420.048	28.69
420.175	33.69
420.302	40.69
420.429	36.69
420.556	38.69
420.683	49.69
420.81	41.69
420.937	73.69
421.064	55.69
421.191	47.69
421.318	82.69
421.445	78.69
421.572	52.69
421.699	58.69
421.826	40.69
421.953	25.69
422.08	18.69
422.207	11.69
422.334	4.69
422.461	24.69
422.588	20.69
422.714	25.69
422.841	29.69
422.968	17.69
423.095	20.69
423.222	1.69
423.349	8.69
423.476	17.69
423.603	18.69
423.729	-7.31
423.856	6.69
423.983	15.69
424.11	0.69
424.237	15.69
424.364	12.69
424.491	-2.31
424.617	-19.31
424.744	17.69
424.871	6.69
424.998	4.69
425.125	8.69
425.251	14.69
425.378	16.69
425.505	12.69
425.632	3.69
425.758	7.69
425.885	11.69
426.012	-1.31
426.139	29.69
426.266	6.69
426.392	27.69
426.519	13.69
426.646	-9.31
426.772	20.69
426.899	19.69
427.026	17.69
427.153	20.69
427.279	21.69
427.406	5.69
427.533	4.69
427.659	12.69
427.786	-10.31
427.913	23.69
428.039	16.69
428.166	-3.31
428.293	6.69
428.419	25.69
428.546	28.69
428.673	26.69
428.799	14.69
428.926	8.69
429.053	34.69
429.179	23.69
429.306	4.69
429.433	24.69
429.559	39.69
429.686	14.69
429.812	17.69
429.939	-6.31
430.066	5.69
430.192	16.69
430.319	29.69
430.445	3.69
430.572	14.69
430.699	17.69
430.825	9.69
430.952	36.69
431.078	30.69
431.205	24.69
431.331	20.69
431.458	38.69
431.584	30.69
431.711	29.69
431.837	37.69
431.964	44.69
432.09	22.69
432.217	-6.31
432.343	-11.31
432.47	20.69
432.596	13.69
432.723	11.69
432.849	10.69
432.976	21.69
433.102	30.69
433.229	12.69
433.355	62.69
433.482	63.69
433.608	91.69
433.735	101.69
433.861	110.69
433.987	137.69
434.114	191.69
434.24	177.69
434.367	223.69
434.493	213.69
434.62	270.69
434.746	378.69
434.872	624.69
434.999	828.69
435.125	1777.69
435.252	5632.69
435.378	13587.69
435.504	15294.69
435.631	15503.69
435.757	15678.69
435.883	15678.69
436.01	15678.69
436.136	15678.69
436.262	15678.69
436.389	3569.69
436.515	2868.69
436.641	933.69
436.768	687.69
436.894	412.69
437.02	395.69
437.147	297.69
437.273	297.69
437.399	199.69
437.526	266.69
437.652	199.69
437.778	219.69
437.904	147.69
438.031	167.69
438.157	135.69
438.283	145.69
438.409	120.69
438.536	121.69
438.662	115.69
438.788	116.69
438.914	100.69
439.041	125.69
439.167	118.69
439.293	103.69
439.419	97.69
439.546	103.69
439.672	71.69
439.798	98.69
439.924	76.69
440.05	82.69
440.177	63.69
440.303	59.69
440.429	54.69
440.555	72.69
440.681	60.69
440.807	67.69
440.934	30.69
441.06	44.69
441.186	47.69
441.312	53.69
441.438	57.69
441.564	54.69
441.69	67.69
441.816	59.69
441.943	46.69
442.069	48.69
442.195	40.69
442.321	56.69
442.447	29.69
442.573	30.69
442.699	14.69
442.825	25.69
442.951	46.69
443.077	58.69
443.203	45.69
443.33	36.69
443.456	35.69
443.582	40.69
443.708	24.69
443.834	49.69
443.96	24.69
444.086	31.69
444.212	33.69
444.338	57.69
444.464	56.69
444.59	57.69
444.716	32.69
444.842	28.69
444.968	12.69
445.094	38.69
445.22	23.69
445.346	43.69
445.472	19.69
445.598	13.69
445.724	22.69
445.85	31.69
445.976	33.69
446.102	13.69
446.228	29.69
446.354	48.69
446.48	17.69
446.605	43.69
446.731	44.69
446.857	33.69
446.983	20.69
447.109	25.69
447.235	34.69
447.361	25.69
447.487	35.69
447.613	28.69
447.739	20.69
447.865	26.69
447.99	28.69
448.116	27.69
448.242	36.69
448.368	29.69
448.494	21.69
448.62	64.69
448.746	39.69
448.872	27.69
448.997	4.69
449.123	22.69
449.249	33.69
449.375	49.69
449.501	18.69
449.627	-5.31
449.752	36.69
449.878	19.69
450.004	7.69
450.13	24.69
450.256	5.69
450.381	17.69
450.507	13.69
450.633	22.69
450.759	21.69
450.884	20.69
451.01	0.69
451.136	-11.31
451.262	13.69
451.388	15.69
451.513	9.69
451.639	19.69
451.765	23.69
451.89	36.69
452.016	21.69
452.142	30.69
452.268	20.69
452.393	25.69
452.519	16.69
452.645	16.69
452.771	25.69
452.896	16.69
453.022	-0.31
453.148	19.69
453.273	26.69
453.399	45.69
453.525	18.69
453.65	17.69
453.776	19.69
453.902	28.69
454.027	28.69
454.153	31.69
454.279	20.69
454.404	15.69
454.53	33.69
454.656	48.69
454.781	20.69
454.907	20.69
455.032	15.69
455.158	32.69
455.284	18.69
455.409	23.69
455.535	28.69
455.66	38.69
455.786	26.69
455.912	28.69
456.037	5.69
456.163	24.69
456.288	25.69
456.414	7.69
456.539	5.69
456.665	45.69
456.791	16.69
456.916	13.69
457.042	12.69
457.167	0.69
457.293	17.69
457.418	30.69
457.544	23.69
457.669	26.69
457.795	3.69
457.92	29.69
458.046	29.69
458.171	24.69
458.297	16.69
458.422	6.69
458.548	-3.31
458.673	15.69
458.799	17.69
458.924	-0.31
459.05	8.69
459.175	23.69
459.301	20.69
459.426	19.69
459.552	18.69
459.677	20.69
459.803	40.69
459.928	22.69
460.053	28.69
460.179	19.69
460.304	22.69
460.43	27.69
460.555	-0.31
460.681	23.69
460.806	29.69
460.931	15.69
461.057	12.69
461.182	18.69
461.308	32.69
461.433	37.69
461.558	0.69
461.684	15.69
461.809	15.69
461.934	27.69
462.06	18.69
462.185	4.69
462.311	14.69
462.436	29.69
462.561	11.69
462.687	12.69
462.812	18.69
462.937	5.69
463.063	2.69
463.188	2.69
463.313	23.69
463.439	12.69
463.564	16.69
463.689	12.69
463.814	8.69
463.94	4.69
464.065	29.69
464.19	23.69
464.316	19.69
464.441	16.69
464.566	8.69
464.692	23.69
464.817	29.69
464.942	11.69
465.067	16.69
465.193	5.69
465.318	15.69
465.443	10.69
465.568	26.69
465.694	16.69
465.819	37.69
465.944	32.69
466.069	22.69
466.194	28.69
466.32	30.69
466.445	9.69
466.57	8.69
466.695	9.69
466.82	25.69
466.946	13.69
467.071	25.69
467.196	20.69
467.321	16.69
467.446	26.69
467.572	34.69
467.697	10.69
467.822	42.69
467.947	54.69
468.072	21.69
468.197	11.69
468.323	27.69
468.448	32.69
468.573	25.69
468.698	28.69
468.823	32.69
468.948	33.69
469.073	28.69
469.198	31.69
469.324	58.69
469.449	22.69
469.574	37.69
469.699	35.69
469.824	30.69
469.949	33.69
470.074	31.69
470.199	40.69
470.324	24.69
470.449	36.69
470.574	11.69
470.7	15.69
470.825	43.69
470.95	54.69
471.075	18.69
471.2	35.69
471.325	47.69
471.45	41.69
471.575	16.69
471.7	23.69
471.825	12.69
471.95	24.69
472.075	18.69
472.2	10.69
472.325	16.69
472.45	11.69
472.575	18.69
472.7	19.69
472.825	27.69
472.95	27.69
473.075	24.69
473.2	31.69
473.325	34.69
473.45	27.69
473.575	26.69
473.7	43.69
473.825	17.69
473.95	31.69
474.075	36.69
474.2	28.69
474.325	0.69
474.45	12.69
474.574	7.69
474.699	26.69
474.824	32.69
474.949	15.69
475.074	-0.31
475.199	16.69
475.324	17.69
475.449	9.69
475.574	15.69
475.699	13.69
475.824	3.69
475.949	27.69
476.073	8.69
476.198	18.69
476.323	21.69
476.448	11.69
476.573	7.69
476.698	41.69
476.823	24.69
476.947	45.69
477.072	24.69
477.197	25.69
477.322	28.69
477.447	1.69
477.572	19.69
477.697	10.69
477.821	-1.31
477.946	24.69
478.071	28.69
478.196	9.69
478.321	17.69
478.445	4.69
478.57	-2.31
478.695	8.69
478.82	16.69
478.945	11.69
479.069	-3.31
479.194	4.69
479.319	28.69
479.444	11.69
479.569	1.69
479.693	16.69
479.818	22.69
479.943	7.69
480.068	7.69
480.192	8.69
480.317	10.69
480.442	7.69
480.567	-5.31
480.691	7.69
480.816	6.69
480.941	11.69
481.066	14.69
481.19	28.69
481.315	35.69
481.44	22.69
481.564	8.69
481.689	15.69
481.814	19.69
481.938	-4.31
482.063	7.69
482.188	19.69
482.313	33.69
482.437	13.69
482.562	5.69
482.687	12.69
482.811	16.69
482.936	13.69
483.061	4.69
483.185	8.69
483.31	15.69
483.435	17.69
483.559	22.69
483.684	35.69
483.808	35.69
483.933	28.69
484.058	23.69
484.182	11.69
484.307	19.69
484.432	11.69
484.556	15.69
484.681	2.69
484.805	24.69
484.93	8.69
485.055	40.69
485.179	37.69
485.304	22.69
485.428	13.69
485.553	8.69
485.678	16.69
485.802	3.69
485.927	28.69
486.051	29.69
486.176	6.69
486.3	7.69
486.425	13.69
486.549	13.69
486.674	18.69
486.799	11.69
486.923	11.69
487.048	21.69
487.172	5.69
487.297	12.69
487.421	14.69
487.546	25.69
487.67	19.69
487.795	-6.31
487.919	18.69
488.044	12.69
488.168	35.69
488.293	19.69
488.417	5.69
488.542	27.69
488.666	22.69
488.791	22.69
488.915	6.69
489.04	14.69
489.164	29.69
489.289	14.69
489.413	5.69
489.538	19.69
489.662	25.69
489.786	19.69
489.911	6.69
490.035	9.69
490.16	15.69
490.284	12.69
490.409	-7.31
490.533	11.69
490.658	34.69
490.782	19.69
490.906	38.69
491.031	99.69
491.155	137.69
491.28	137.69
491.404	166.69
491.528	253.69
491.653	139.69
491.777	73.69
491.902	30.69
492.026	33.69
492.15	11.69
492.275	47.69
492.399	17.69
492.524	3.69
492.648	28.69
492.772	33.69
492.897	23.69
493.021	12.69
493.145	25.69
493.27	19.69
493.394	17.69
493.518	13.69
493.643	5.69
493.767	18.69
493.891	-2.31
494.016	22.69
494.14	8.69
494.264	20.69
494.389	27.69
494.513	-1.31
494.637	4.69
494.762	10.69
494.886	25.69
495.01	8.69
495.134	14.69
495.259	25.69
495.383	4.69
495.507	11.69
495.632	50.69
495.756	28.69
495.88	11.69
496.004	7.69
496.129	10.69
496.253	21.69
496.377	12.69
496.501	30.69
496.626	4.69
496.75	4.69
496.874	16.69
496.998	14.69
497.123	30.69
497.247	15.69
497.371	11.69
497.495	17.69
497.62	11.69
497.744	10.69
497.868	21.69
497.992	19.69
498.116	8.69
498.241	12.69
498.365	-13.31
498.489	-6.31
498.613	21.69
498.737	25.69
498.862	8.69
498.986	3.69
499.11	12.69
499.234	11.69
499.358	-4.31
499.482	11.69
499.607	8.69
499.731	15.69
499.855	29.69
499.979	20.69
500.103	28.69
500.227	14.69
500.351	18.69
500.476	3.69
500.6	17.69
500.724	17.69
500.848	14.69
500.972	18.69
501.096	11.69
501.22	28.69
501.344	3.69
501.469	17.69
501.593	15.69
501.717	3.69
501.841	-2.31
501.965	12.69
502.089	-7.31
502.213	25.69
502.337	17.69
502.461	13.69
502.585	1.69
502.709	18.69
502.834	3.69
502.958	-4.31
503.082	25.69
503.206	28.69
503.33	11.69
503.454	28.69
503.578	23.69
503.702	15.69
503.826	8.69
503.95	25.69
504.074	12.69
504.198	8.69
504.322	22.69
504.446	22.69
504.57	-7.31
504.694	8.69
504.818	12.69
504.942	29.69
505.066	28.69
505.19	17.69
505.314	28.69
505.438	28.69
505.562	11.69
505.686	11.69
505.81	31.69
505.934	15.69
506.058	8.69
506.182	9.69
506.306	29.69
506.43	19.69
506.554	16.69
506.678	12.69
506.802	0.69
506.926	25.69
507.05	6.69
507.174	35.69
507.298	36.69
507.422	18.69
507.546	8.69
507.67	13.69
507.794	9.69
507.918	29.69
508.042	8.69
508.165	0.69
508.289	6.69
508.413	14.69
508.537	15.69
508.661	20.69
508.785	10.69
508.909	17.69
509.033	24.69
509.157	19.69
509.281	9.69
509.405	0.69
509.528	42.69
509.652	25.69
509.776	29.69
509.9	43.69
510.024	18.69
510.148	35.69
510.272	28.69
510.396	30.69
510.519	23.69
510.643	33.69
510.767	12.69
510.891	36.69
511.015	27.69
511.139	41.69
511.263	43.69
511.386	22.69
511.51	32.69
511.634	25.69
511.758	25.69
511.882	14.69
512.006	48.69
512.129	75.69
512.253	91.69
512.377	73.69
512.501	79.69
512.625	77.69
512.748	84.69
512.872	76.69
512.996	43.69
513.12	57.69
513.244	47.69
513.367	43.69
513.491	37.69
513.615	58.69
513.739	65.69
513.862	51.69
513.986	66.69
514.11	87.69
514.234	92.69
514.358	97.69
514.481	125.69
514.605	104.69
514.729	107.69
514.853	112.69
514.976	98.69
515.1	87.69
515.224	97.69
515.348	82.69
515.471	88.69
515.595	88.69
515.719	117.69
515.842	200.69
515.966	252.69
516.09	321.69
516.214	297.69
516.337	326.69
516.461	226.69
516.585	79.69
516.708	50.69
516.832	23.69
516.956	10.69
517.08	4.69
517.203	0.69
517.327	23.69
517.451	24.69
517.574	51.69
517.698	5.69
517.822	-8.31
517.945	29.69
518.069	5.69
518.193	54.69
518.316	20.69
518.44	15.69
518.564	-8.31
518.687	4.69
518.811	9.69
518.935	39.69
519.058	10.69
519.182	11.69
519.306	22.69
519.429	19.69
519.553	62.69
519.676	22.69
519.8	5.69
519.924	8.69
520.047	10.69
520.171	10.69
520.294	16.69
520.418	7.69
520.542	-12.31
520.665	26.69
520.789	-4.31
520.913	-2.31
521.036	-9.31
521.16	7.69
521.283	10.69
521.407	11.69
521.53	1.69
521.654	7.69
521.778	0.69
521.901	16.69
522.025	6.69
522.148	2.69
522.272	-3.31
522.395	4.69
522.519	13.69
522.643	-15.31
522.766	-0.31
522.89	2.69
523.013	32.69
523.137	8.69
523.26	5.69
523.384	18.69
523.507	16.69
523.631	22.69
523.754	-0.31
523.878	9.69
524.002	32.69
524.125	7.69
524.249	-6.31
524.372	4.69
524.496	12.69
524.619	20.69
524.743	9.69
524.866	6.69
524.99	6.69
525.113	-10.31
525.237	21.69
525.36	11.69
525.484	15.69
525.607	14.69
525.731	5.69
525.854	15.69
525.978	36.69
526.101	-3.31
526.224	-0.31
526.348	7.69
526.471	25.69
526.595	16.69
526.718	-6.31
526.842	-1.31
526.965	12.69
527.089	7.69
527.212	18.69
527.336	2.69
527.459	26.69
527.582	5.69
527.706	7.69
527.829	23.69
527.953	19.69
528.076	-4.31
528.2	16.69
528.323	8.69
528.446	26.69
528.57	8.69
528.693	19.69
528.817	1.69
528.94	18.69
529.064	43.69
529.187	3.69
529.31	9.69
529.434	-2.31
529.557	12.69
529.68	10.69
529.804	8.69
529.927	7.69
530.051	5.69
530.174	20.69
530.297	19.69
530.421	22.69
530.544	23.69
530.668	16.69
530.791	14.69
530.914	15.69
531.038	-5.31
531.161	3.69
531.284	9.69
531.408	20.69
531.531	-11.31
531.654	4.69
531.778	4.69
531.901	-10.31
532.024	0.69
532.148	-2.31
532.271	2.69
532.394	10.69
532.518	17.69
532.641	15.69
532.764	0.69
532.888	6.69
533.011	4.69
533.134	-3.31
533.258	25.69
533.381	9.69
533.504	1.69
533.628	7.69
533.751	26.69
533.874	20.69
533.997	11.69
534.121	-5.31
534.244	20.69
534.367	9.69
534.491	4.69
534.614	13.69
534.737	15.69
534.86	21.69
534.984	-5.31
535.107	-15.31
535.23	12.69
535.354	1.69
535.477	-8.31
535.6	0.69
535.723	0.69
535.847	5.69
535.97	4.69
536.093	14.69
536.216	20.69
536.34	23.69
536.463	15.69
536.586	19.69
536.709	13.69
536.833	18.69
536.956	26.69
537.079	13.69
537.202	12.69
537.325	-19.31
537.449	0.69
537.572	24.69
537.695	6.69
537.818	-0.31
537.941	-3.31
538.065	11.69
538.188	16.69
538.311	27.69
538.434	9.69
538.558	12.69
538.681	19.69
538.804	17.69
538.927	3.69
539.05	16.69
539.173	0.69
539.297	14.69
539.42	17.69
539.543	18.69
539.666	34.69
539.789	30.69
539.913	22.69
540.036	17.69
540.159	31.69
540.282	3.69
540.405	7.69
540.528	15.69
540.651	8.69
540.775	14.69
540.898	31.69
541.021	10.69
541.144	16.69
541.267	27.69
541.39	21.69
541.513	32.69
541.637	14.69
541.76	8.69
541.883	18.69
542.006	36.69
542.129	57.69
542.252	12.69
542.375	39.69
542.498	23.69
542.622	41.69
542.745	36.69
542.868	40.69
542.991	40.69
543.114	38.69
543.237	55.69
543.36	52.69
543.483	53.69
543.606	51.69
543.73	71.69
543.853	76.69
543.976	76.69
544.099	101.69
544.222	114.69
544.345	128.69
544.468	174.69
544.591	225.69
544.714	276.69
544.837	351.69
544.96	458.69
545.083	639.69
545.206	1085.69
545.329	2459.69
545.453	11227.69
545.576	15297.69
545.699	15678.69
545.822	15678.69
545.945	15678.69
546.068	15678.69
546.191	15678.69
546.314	15678.69
546.437	15678.69
546.56	15678.69
546.683	15678.69
546.806	15678.69
546.929	15678.69
547.052	15678.69
547.175	15678.69
547.298	15678.69
547.421	15678.69
547.544	15678.69
547.667	4434.69
547.79	5471.69
547.913	1548.69
548.036	999.69
548.159	668.69
548.282	651.69
548.405	492.69
548.528	540.69
548.651	402.69
548.774	407.69
548.897	371.69
549.02	395.69
549.143	328.69
549.266	310.69
549.389	281.69
549.512	243.69
549.635	266.69
549.758	262.69
549.881	223.69
550.004	206.69
550.127	192.69
550.25	201.69
550.373	171.69
550.496	191.69
550.619	141.69
550.742	152.69
550.865	124.69
550.988	151.69
551.111	150.69
551.234	156.69
551.356	111.69
551.479	128.69
551.602	126.69
551.725	131.69
551.848	122.69
551.971	132.69
552.094	117.69
552.217	108.69
552.34	119.69
552.463	89.69
552.586	100.69
552.709	87.69
552.832	92.69
552.955	106.69
553.077	107.69
553.2	102.69
553.323	68.69
553.446	92.69
553.569	78.69
553.692	99.69
553.815	101.69
553.938	96.69
554.061	66.69
554.184	61.69
554.306	73.69
554.429	89.69
554.552	79.69
554.675	68.69
554.798	59.69
554.921	72.69
555.044	87.69
555.167	75.69
555.29	71.69
555.412	63.69
555.535	58.69
555.658	60.69
555.781	56.69
555.904	60.69
556.027	68.69
556.15	63.69
556.272	71.69
556.395	75.69
556.518	41.69
556.641	60.69
556.764	72.69
556.887	79.69
557.01	51.69
557.132	44.69
557.255	64.69
557.378	64.69
557.501	60.69
557.624	61.69
557.747	73.69
557.869	72.69
557.992	82.69
558.115	97.69
558.238	79.69
558.361	67.69
558.483	93.69
558.606	48.69
558.729	44.69
558.852	63.69
558.975	70.69
559.098	59.69
559.22	52.69
559.343	39.69
559.466	39.69
559.589	39.69
559.712	32.69
559.834	38.69
559.957	42.69
560.08	36.69
560.203	44.69
560.325	48.69
560.448	54.69
560.571	17.69
560.694	30.69
560.817	60.69
560.939	52.69
561.062	57.69
561.185	42.69
561.308	51.69
561.43	43.69
561.553	68.69
561.676	58.69
561.799	55.69
561.921	65.69
562.044	57.69
562.167	37.69
562.29	73.69
562.413	58.69
562.535	58.69
562.658	28.69
562.781	36.69
562.903	79.69
563.026	103.69
563.149	132.69
563.272	108.69
563.394	106.69
563.517	93.69
563.64	51.69
563.763	29.69
563.885	43.69
564.008	48.69
564.131	47.69
564.254	26.69
564.376	30.69
564.499	17.69
564.622	25.69
564.744	39.69
564.867	31.69
564.99	27.69
565.113	34.69
565.235	21.69
565.358	30.69
565.481	18.69
565.603	22.69
565.726	20.69
565.849	33.69
565.971	36.69
566.094	23.69
566.217	45.69
566.34	44.69
566.462	33.69
566.585	42.69
566.708	36.69
566.83	44.69
566.953	28.69
567.076	27.69
567.198	40.69
567.321	20.69
567.444	40.69
567.566	27.69
567.689	29.69
567.812	20.69
567.934	34.69
568.057	20.69
568.18	32.69
568.302	7.69
568.425	11.69
568.548	28.69
568.67	37.69
568.793	43.69
568.916	25.69
569.038	11.69
569.161	29.69
569.283	32.69
569.406	37.69
569.529	22.69
569.651	5.69
569.774	18.69
569.897	18.69
570.019	33.69
570.142	27.69
570.265	28.69
570.387	22.69
570.51	41.69
570.632	39.69
570.755	19.69
570.878	13.69
571	28.69
571.123	7.69
571.246	30.69
571.368	15.69
571.491	25.69
571.613	20.69
571.736	9.69
571.859	14.69
571.981	19.69
572.104	19.69
572.226	32.69
572.349	29.69
572.472	28.69
572.594	44.69
572.717	28.69
572.839	22.69
572.962	26.69
573.085	26.69
573.207	23.69
573.33	11.69
573.452	23.69
573.575	37.69
573.697	29.69
573.82	33.69
573.943	21.69
574.065	43.69
574.188	40.69
574.31	59.69
574.433	39.69
574.555	49.69
574.678	19.69
574.801	11.69
574.923	9.69
575.046	8.69
575.168	23.69
575.291	23.69
575.413	39.69
575.536	32.69
575.659	42.69
575.781	38.69
575.904	47.69
576.026	71.69
576.149	65.69
576.271	126.69
576.394	207.69
576.516	538.69
576.639	3723.69
576.761	10337.69
576.884	8976.69
577.007	8926.69
577.129	8117.69
577.252	3793.69
577.374	1338.69
577.497	538.69
577.619	280.69
577.742	174.69
577.864	168.69
577.987	116.69
578.109	136.69
578.232	122.69
578.354	139.69
578.477	201.69
578.599	396.69
578.722	2037.69
578.844	9334.69
578.967	10078.69
579.089	8950.69
579.212	9234.69
579.334	5292.69
579.457	1954.69
579.579	703.69
579.702	323.69
579.824	192.69
579.947	130.69
580.069	98.69
580.192	79.69
580.314	83.69
580.437	60.69
580.559	76.69
580.682	45.69
580.804	58.69
580.927	64.69
581.049	75.69
581.172	28.69
581.294	31.69
581.417	42.69
581.539	38.69
581.662	43.69
581.784	45.69
581.907	21.69
582.029	41.69
582.152	26.69
582.274	40.69
582.396	36.69
582.519	33.69
582.641	29.69
582.764	15.69
582.886	36.69
583.009	17.69
583.131	31.69
583.254	34.69
583.376	38.69
583.499	33.69
583.621	29.69
583.743	38.69
583.866	36.69
583.988	14.69
584.111	31.69
584.233	18.69
584.356	27.69
584.478	38.69
584.601	4.69
584.723	23.69
584.845	21.69
584.968	27.69
585.09	13.69
585.213	22.69
585.335	9.69
585.458	21.69
585.58	19.69
585.702	48.69
585.825	35.69
585.947	34.69
586.07	15.69
586.192	20.69
586.315	31.69
586.437	7.69
586.559	4.69
586.682	18.69
586.804	28.69
586.927	25.69
587.049	42.69
587.171	43.69
587.294	40.69
587.416	46.69
587.539	29.69
587.661	22.69
587.783	12.69
587.906	18.69
588.028	17.69
588.151	24.69
588.273	36.69
588.395	16.69
588.518	3.69
588.64	20.69
588.763	36.69
588.885	17.69
589.007	19.69
589.13	7.69
589.252	27.69
589.375	28.69
589.497	28.69
589.619	29.69
589.742	27.69
589.864	41.69
589.986	33.69
590.109	3.69
590.231	19.69
590.354	30.69
590.476	7.69
590.598	17.69
590.721	11.69
590.843	12.69
590.965	22.69
591.088	27.69
591.21	8.69
591.332	24.69
591.455	6.69
591.577	16.69
591.7	9.69
591.822	15.69
591.944	24.69
592.067	32.69
592.189	37.69
592.311	20.69
592.434	13.69
592.556	25.69
592.678	39.69
592.801	19.69
592.923	25.69
593.045	27.69
593.168	18.69
593.29	26.69
593.412	20.69
593.535	23.69
593.657	22.69
593.779	29.69
593.902	28.69
594.024	16.69
594.146	33.69
594.269	25.69
594.391	13.69
594.513	18.69
594.636	30.69
594.758	-6.31
594.88	18.69
595.003	27.69
595.125	19.69
595.247	16.69
595.37	24.69
595.492	18.69
595.614	36.69
595.737	21.69
595.859	26.69
595.981	21.69
596.104	16.69
596.226	-0.31
596.348	21.69
596.471	9.69
596.593	32.69
596.715	16.69
596.838	6.69
596.96	8.69
597.082	13.69
597.204	25.69
597.327	23.69
597.449	8.69
597.571	9.69
597.694	16.69
597.816	22.69
597.938	27.69
598.061	13.69
598.183	11.69
598.305	25.69
598.427	15.69
598.55	13.69
598.672	23.69
598.794	19.69
598.917	8.69
599.039	16.69
599.161	17.69
599.283	14.69
599.406	16.69
599.528	18.69
599.65	35.69
599.773	26.69
599.895	25.69
600.017	29.69
600.139	11.69
600.262	-10.31
600.384	7.69
600.506	28.69
600.628	36.69
600.751	41.69
600.873	2.69
600.995	8.69
601.118	39.69
601.24	16.69
601.362	39.69
601.484	35.69
601.607	18.69
601.729	20.69
601.851	19.69
601.973	28.69
602.096	31.69
602.218	34.69
602.34	36.69
602.462	24.69
602.585	22.69
602.707	11.69
602.829	7.69
602.951	11.69
603.074	7.69
603.196	22.69
603.318	0.69
603.44	22.69
603.563	23.69
603.685	-3.31
603.807	24.69
603.929	15.69
604.052	16.69
604.174	27.69
604.296	9.69
604.418	35.69
604.541	40.69
604.663	8.69
604.785	25.69
604.907	5.69
605.03	9.69
605.152	36.69
605.274	17.69
605.396	11.69
605.519	10.69
605.641	6.69
605.763	5.69
605.885	7.69
606.008	20.69
606.13	22.69
606.252	20.69
606.374	13.69
606.496	2.69
606.619	16.69
606.741	22.69
606.863	28.69
606.985	43.69
607.108	40.69
607.23	17.69
607.352	23.69
607.474	25.69
607.596	25.69
607.719	30.69
607.841	28.69
607.963	36.69
608.085	4.69
608.207	34.69
608.33	18.69
608.452	17.69
608.574	18.69
608.696	17.69
608.819	18.69
608.941	31.69
609.063	15.69
609.185	4.69
609.307	17.69
609.43	23.69
609.552	14.69
609.674	2.69
609.796	10.69
609.918	27.69
610.041	9.69
610.163	24.69
610.285	9.69
610.407	24.69
610.529	16.69
610.652	11.69
610.774	12.69
610.896	17.69
611.018	6.69
611.14	12.69
611.263	7.69
611.385	-1.31
611.507	27.69
611.629	24.69
611.751	39.69
611.873	38.69
611.996	24.69
612.118	27.69
612.24	15.69
612.362	42.69
612.484	20.69
612.607	39.69
612.729	37.69
612.851	19.69
612.973	3.69
613.095	4.69
613.218	15.69
613.34	32.69
613.462	20.69
613.584	9.69
613.706	12.69
613.828	38.69
613.951	19.69
614.073	17.69
614.195	-0.31
614.317	25.69
614.439	37.69
614.561	19.69
614.684	27.69
614.806	5.69
614.928	6.69
615.05	33.69
615.172	37.69
615.294	27.69
615.417	20.69
615.539	13.69
615.661	17.69
615.783	35.69
615.905	20.69
616.027	6.69
616.15	33.69
616.272	24.69
616.394	15.69
616.516	17.69
616.638	9.69
616.76	15.69
616.883	28.69
617.005	1.69
617.127	-0.31
617.249	3.69
617.371	12.69
617.493	14.69
617.615	27.69
617.738	7.69
617.86	24.69
617.982	4.69
618.104	7.69
618.226	5.69
618.348	-4.31
618.471	11.69
618.593	21.69
618.715	8.69
618.837	18.69
618.959	34.69
619.081	23.69
619.203	15.69
619.326	23.69
619.448	18.69
619.57	26.69
619.692	21.69
619.814	31.69
619.936	11.69
620.058	19.69
620.181	17.69
620.303	8.69
620.425	13.69
620.547	25.69
620.669	8.69
620.791	22.69
620.913	15.69
621.036	9.69
621.158	9.69
621.28	35.69
621.402	-14.31
621.524	11.69
621.646	28.69
621.768	1.69
621.891	-19.31
622.013	1.69
622.135	5.69
622.257	-4.31
622.379	0.69
622.501	17.69
622.623	10.69
622.745	-6.31
622.868	13.69
622.99	-10.31
623.112	8.69
623.234	12.69
623.356	11.69
623.478	17.69
623.6	19.69
623.722	9.69
623.845	14.69
623.967	16.69
624.089	17.69
624.211	18.69
624.333	6.69
624.455	8.69
624.577	7.69
624.699	21.69
624.822	17.69
624.944	-2.31
625.066	15.69
625.188	-5.31
625.31	15.69
625.432	22.69
625.554	3.69
625.676	36.69
625.799	31.69
625.921	4.69
626.043	4.69
626.165	15.69
626.287	1.69
626.409	32.69
626.531	0.69
626.653	5.69
626.775	8.69
626.898	14.69
627.02	33.69
627.142	49.69
627.264	32.69
627.386	15.69
627.508	3.69
627.63	16.69
627.752	14.69
627.874	21.69
627.997	3.69
628.119	25.69
628.241	10.69
628.363	12.69
628.485	8.69
628.607	26.69
628.729	15.69
628.851	-4.31
628.973	20.69
629.096	4.69
629.218	3.69
629.34	-4.31
629.462	-5.31
629.584	3.69
629.706	19.69
629.828	21.69
629.95	19.69
630.072	10.69
630.195	-10.31
630.317	4.69
630.439	-3.31
630.561	15.69
630.683	15.69
630.805	5.69
630.927	10.69
631.049	-5.31
631.171	-9.31
631.293	10.69
631.416	11.69
631.538	18.69
631.66	24.69
631.782	9.69
631.904	13.69
632.026	-4.31
632.148	11.69
632.27	-2.31
632.392	18.69
632.514	7.69
632.637	-8.31
632.759	3.69
632.881	18.69
633.003	15.69
633.125	3.69
633.247	7.69
633.369	3.69
633.491	9.69
633.613	2.69
633.735	-2.31
633.858	0.69
633.98	15.69
634.102	1.69
634.224	15.69
634.346	6.69
634.468	15.69
634.59	14.69
634.712	1.69
634.834	21.69
634.956	-6.31
635.078	11.69
635.201	-0.31
635.323	19.69
635.445	9.69
635.567	-12.31
635.689	11.69
635.811	7.69
635.933	0.69
636.055	2.69
636.177	8.69
636.299	17.69
636.421	4.69
636.544	6.69
636.666	5.69
636.788	9.69
636.91	15.69
637.032	19.69
637.154	10.69
637.276	21.69
637.398	18.69
637.52	7.69
637.642	22.69
637.764	5.69
637.887	3.69
638.009	-6.31
638.131	12.69
638.253	-3.31
638.375	7.69
638.497	11.69
638.619	3.69
638.741	5.69
638.863	0.69
638.985	-0.31
639.107	-7.31
639.23	-4.31
639.352	27.69
639.474	5.69
639.596	18.69
639.718	-4.31
639.84	19.69
639.962	12.69
640.084	35.69
640.206	18.69
640.328	4.69
640.45	9.69
640.573	8.69
640.695	4.69
640.817	7.69
640.939	25.69
641.061	2.69
641.183	8.69
641.305	-5.31
641.427	18.69
641.549	11.69
641.671	11.69
641.793	2.69
641.915	12.69
642.038	-2.31
642.16	-0.31
642.282	-7.31
642.404	19.69
642.526	13.69
642.648	-2.31
642.77	-1.31
642.892	5.69
643.014	27.69
643.136	8.69
643.258	3.69
643.381	22.69
643.503	38.69
643.625	-12.31
643.747	-15.31
643.869	11.69
643.991	12.69
644.113	22.69
644.235	15.69
644.357	18.69
644.479	24.69
644.601	3.69
644.723	10.69
644.846	18.69
644.968	-10.31
645.09	-0.31
645.212	8.69
645.334	18.69
645.456	12.69
645.578	13.69
645.7	-0.31
645.822	1.69
645.944	13.69
646.066	13.69
646.188	3.69
646.311	6.69
646.433	3.69
646.555	28.69
646.677	20.69
646.799	1.69
646.921	-12.31
647.043	23.69
647.165	-5.31
647.287	10.69
647.409	-0.31
647.531	19.69
647.654	-15.31
647.776	15.69
647.898	23.69
648.02	6.69
648.142	11.69
648.264	4.69
648.386	3.69
648.508	3.69
648.63	-8.31
648.752	19.69
648.874	3.69
648.997	5.69
649.119	22.69
649.241	1.69
649.363	19.69
649.485	27.69
649.607	12.69
649.729	12.69
649.851	13.69
649.973	-0.31
650.095	7.69
650.217	0.69
650.34	10.69
650.462	28.69
650.584	24.69
650.706	19.69
650.828	18.69
650.95	-2.31
651.072	16.69
651.194	-14.31
651.316	-18.31
651.438	23.69
651.56	-4.31
651.683	-11.31
651.805	1.69
651.927	-0.31
652.049	4.69
652.171	15.69
652.293	2.69
652.415	-9.31
652.537	-14.31
652.659	-0.31
652.781	-4.31
652.903	20.69
653.026	20.69
653.148	9.69
653.27	1.69
653.392	15.69
653.514	16.69
653.636	-3.31
653.758	-11.31
653.88	-2.31
654.002	-10.31
654.124	-7.31
654.247	8.69
654.369	16.69
654.491	-3.31
654.613	9.69
654.735	-4.31
654.857	8.69
654.979	-11.31
655.101	13.69
655.223	32.69
655.345	27.69
655.468	12.69
655.59	9.69
655.712	5.69
655.834	2.69
655.956	27.69
656.078	9.69
656.2	8.69
656.322	9.69
656.444	-3.31
656.566	8.69
656.689	4.69
656.811	13.69
656.933	14.69
657.055	-4.31
657.177	-5.31
657.299	3.69
657.421	12.69
657.543	24.69
657.665	6.69
657.787	5.69
657.91	-10.31
658.032	-6.31
658.154	3.69
658.276	-9.31
658.398	-10.31
658.52	10.69
658.642	15.69
658.764	-4.31
658.886	-27.31
659.009	10.69
659.131	8.69
659.253	16.69
659.375	4.69
659.497	-1.31
659.619	17.69
659.741	3.69
659.863	-0.31
659.985	-1.31
660.108	3.69
660.23	-4.31
660.352	-0.31
660.474	4.69
660.596	8.69
660.718	11.69
660.84	-4.31
660.962	-3.31
661.084	-10.31
661.207	-2.31
661.329	15.69
661.451	-2.31
661.573	-0.31
661.695	24.69
661.817	21.69
661.939	35.69
662.061	28.69
662.184	0.69
662.306	-4.31
662.428	17.69
662.55	15.69
662.672	3.69
662.794	3.69
662.916	3.69
663.038	7.69
663.161	26.69
663.283	15.69
663.405	4.69
663.527	-3.31
663.649	15.69
663.771	10.69
663.893	0.69
664.015	2.69
664.138	12.69
664.26	11.69
664.382	6.69
664.504	-11.31
664.626	-10.31
664.748	-11.31
664.87	-6.31
664.992	2.69
665.115	15.69
665.237	5.69
665.359	6.69
665.481	23.69
665.603	10.69
665.725	-4.31
665.847	2.69
665.97	1.69
666.092	-14.31
666.214	1.69
666.336	-8.31
666.458	-7.31
666.58	-6.31
666.702	-13.31
666.825	11.69
666.947	-29.31
667.069	-6.31
667.191	-0.31
667.313	7.69
667.435	-11.31
667.557	-6.31
667.68	13.69
667.802	6.69
667.924	6.69
668.046	8.69
668.168	29.69
668.29	33.69
668.412	7.69
668.535	1.69
668.657	6.69
668.779	-9.31
668.901	6.69
669.023	-0.31
669.145	0.69
669.267	13.69
669.39	4.69
669.512	4.69
669.634	16.69
669.756	5.69
669.878	-0.31
670	5.69
670.123	-4.31
670.245	25.69
670.367	15.69
670.489	6.69
670.611	9.69
670.733	-7.31
670.856	-2.31
670.978	17.69
671.1	27.69
671.222	20.69
671.344	7.69
671.466	-9.31
671.589	-7.31
671.711	-12.31
671.833	1.69
671.955	9.69
672.077	15.69
672.199	13.69
672.322	14.69
672.444	-4.31
672.566	9.69
672.688	5.69
672.81	5.69
672.932	11.69
673.055	5.69
673.177	6.69
673.299	5.69
673.421	-15.31
673.543	1.69
673.665	15.69
673.788	22.69
673.91	-9.31
674.032	-18.31
674.154	0.69
674.276	13.69
674.399	-8.31
674.521	-18.31
674.643	16.69
674.765	-15.31
674.887	10.69
675.009	0.69
675.132	8.69
675.254	10.69
675.376	4.69
675.498	22.69
675.62	25.69
675.743	-2.31
675.865	4.69
675.987	8.69
676.109	16.69
676.231	-5.31
676.354	12.69
676.476	-6.31
676.598	-6.31
676.72	-0.31
676.842	11.69
676.965	9.69
677.087	8.69
677.209	6.69
677.331	20.69
677.453	12.69
677.576	-6.31
677.698	13.69
677.82	-3.31
677.942	-0.31
678.064	-0.31
678.187	15.69
678.309	-2.31
678.431	-5.31
678.553	5.69
678.675	9.69
678.798	27.69
678.92	2.69
679.042	11.69
679.164	5.69
679.286	11.69
679.409	8.69
679.531	1.69
679.653	5.69
679.775	2.69
679.898	-12.31
680.02	-4.31
680.142	-4.31
680.264	18.69
680.386	-9.31
680.509	-1.31
680.631	5.69
680.753	0.69
680.875	-8.31
680.998	6.69
681.12	-4.31
681.242	5.69
681.364	-17.31
681.486	0.69
681.609	-3.31
681.731	-3.31
681.853	-1.31
681.975	-4.31
682.098	9.69
682.22	21.69
682.342	9.69
682.464	15.69
682.587	4.69
682.709	-1.31
682.831	-7.31
682.953	-2.31
683.076	-12.31
683.198	-3.31
683.32	13.69
683.442	-5.31
683.565	13.69
683.687	2.69
683.809	-1.31
683.931	-10.31
684.054	-3.31
684.176	22.69
684.298	17.69
684.42	3.69
684.543	1.69
684.665	12.69
684.787	-8.31
684.909	7.69
685.032	12.69
685.154	-7.31
685.276	1.69
685.398	-5.31
685.521	-5.31
685.643	0.69
685.765	-4.31
685.887	0.69
686.01	-15.31
686.132	0.69
686.254	10.69
686.377	16.69
686.499	10.69
686.621	11.69
686.743	1.69
686.866	5.69
686.988	34.69
687.11	25.69
687.232	-3.31
687.355	-12.31
687.477	6.69
687.599	5.69
687.722	5.69
687.844	8.69
687.966	1.69
688.088	0.69
688.211	23.69
688.333	11.69
688.455	-2.31
688.578	13.69
688.7	24.69
688.822	4.69
688.944	-19.31
689.067	10.69
689.189	9.69
689.311	-13.31
689.434	-7.31
689.556	20.69
689.678	29.69
689.801	-9.31
689.923	6.69
690.045	12.69
690.167	7.69
690.29	7.69
690.412	-0.31
690.534	13.69
690.657	5.69
690.779	7.69
690.901	24.69
691.024	16.69
691.146	9.69
691.268	1.69
691.391	15.69
691.513	27.69
691.635	35.69
691.758	16.69
691.88	3.69
692.002	-6.31
692.125	3.69
692.247	-3.31
692.369	-0.31
692.492	-9.31
692.614	-6.31
692.736	-4.31
692.859	-4.31
692.981	-5.31
693.103	11.69
693.226	15.69
693.348	24.69
693.47	10.69
693.593	35.69
693.715	31.69
693.837	35.69
693.96	16.69
694.082	6.69
694.204	15.69
694.327	16.69
694.449	-0.31
694.571	-3.31
694.694	7.69
694.816	9.69
694.938	4.69
695.061	11.69
695.183	15.69
695.305	3.69
695.428	17.69
695.55	-7.31
695.672	11.69
695.795	17.69
695.917	7.69
696.04	-7.31
696.162	-4.31
696.284	-0.31
696.407	6.69
696.529	-6.31
696.651	28.69
696.774	0.69
696.896	16.69
697.019	8.69
697.141	-2.31
697.263	-13.31
697.386	6.69
697.508	7.69
697.63	9.69
697.753	3.69
697.875	4.69
697.998	17.69
698.12	17.69
698.242	0.69
698.365	8.69
698.487	7.69
698.61	12.69
698.732	4.69
698.854	22.69
698.977	17.69
699.099	16.69
699.221	-4.31
699.344	-3.31
699.466	7.69
699.589	2.69
699.711	9.69
699.834	19.69
699.956	-2.31
700.078	-6.31
700.201	5.69
700.323	21.69
700.446	-3.31
700.568	12.69
700.69	5.69
700.813	2.69
700.935	-7.31
701.058	12.69
701.18	3.69
701.302	-6.31
701.425	-11.31
701.547	7.69
701.67	7.69
701.792	13.69
701.915	-10.31
702.037	-20.31
702.159	-5.31
702.282	8.69
702.404	6.69
702.527	17.69
702.649	32.69
702.772	0.69
702.894	19.69
703.017	13.69
703.139	2.69
703.261	17.69
703.384	13.69
703.506	-7.31
703.629	12.69
703.751	3.69
703.874	9.69
703.996	-1.31
704.119	-2.31
704.241	25.69
704.364	3.69
704.486	12.69
704.608	7.69
704.731	-1.31
704.853	9.69
704.976	-10.31
705.098	4.69
705.221	4.69
705.343	8.69
705.466	-0.31
705.588	-11.31
705.711	5.69
705.833	12.69
705.956	10.69
706.078	19.69
706.201	3.69
706.323	19.69
706.446	11.69
