Data from LowRes_mercury_15_20_11_07_2024_HR4C61881__24__15-23-34-671.txt Node

Date: Thu Nov 07 15:23:34 EST 2024
User: crc00042
Spectrometer: HR4C6188
Trigger mode: 4
Integration Time (sec): 1.000000E-1
Scans to average: 1
Electric dark correction enabled: true
Nonlinearity correction enabled: false
Boxcar width: 0
XAxis mode: Wavelengths
Number of Pixels in Spectrum: 3648
>>>>>Begin Spectral Data<<<<<
245.66	-84.08
245.797	-84.08
245.934	-84.08
246.071	-64.08
246.208	22.92
246.344	4.92
246.481	0.92
246.618	-4.08
246.755	2.92
246.892	5.92
247.029	-8.08
247.165	-18.08
247.302	7.92
247.439	0.92
247.576	12.92
247.713	2.92
247.849	16.92
247.986	-26.08
248.123	4.92
248.26	-10.08
248.396	0.92
248.533	13.92
248.67	-2.08
248.806	15.92
248.943	-13.08
249.08	-6.08
249.216	-3.08
249.353	-17.08
249.49	-8.08
249.626	3.92
249.763	-9.08
249.9	-12.08
250.036	1.92
250.173	0.92
250.309	-5.08
250.446	-8.08
250.582	-0.08
250.719	-13.08
250.856	10.92
250.992	12.92
251.129	8.92
251.265	10.92
251.402	7.92
251.538	13.92
251.675	-3.08
251.811	12.92
251.948	11.92
252.084	6.92
252.221	-3.08
252.357	4.92
252.493	34.92
252.63	-2.08
252.766	2.92
252.903	-6.08
253.039	-3.08
253.175	-5.08
253.312	-17.08
253.448	-5.08
253.585	4.92
253.721	15.92
253.857	15.92
253.994	0.92
254.13	4.92
254.266	-4.08
254.403	11.92
254.539	18.92
254.675	18.92
254.811	-0.08
254.948	21.92
255.084	2.92
255.22	-1.08
255.356	8.92
255.493	-1.08
255.629	-1.08
255.765	9.92
255.901	8.92
256.037	3.92
256.174	3.92
256.31	-6.08
256.446	20.92
256.582	-8.08
256.718	27.92
256.854	19.92
256.991	8.92
257.127	17.92
257.263	-3.08
257.399	5.92
257.535	2.92
257.671	8.92
257.807	-4.08
257.943	-5.08
258.079	-5.08
258.215	-17.08
258.351	24.92
258.487	11.92
258.623	18.92
258.759	6.92
258.895	11.92
259.031	9.92
259.167	-20.08
259.303	20.92
259.439	7.92
259.575	13.92
259.711	0.92
259.847	-17.08
259.983	14.92
260.119	-12.08
260.255	-3.08
260.391	0.92
260.527	3.92
260.663	14.92
260.799	17.92
260.934	18.92
261.07	8.92
261.206	-3.08
261.342	-11.08
261.478	20.92
261.614	34.92
261.749	-5.08
261.885	2.92
262.021	-0.08
262.157	26.92
262.293	3.92
262.428	5.92
262.564	11.92
262.7	13.92
262.836	-14.08
262.971	12.92
263.107	25.92
263.243	27.92
263.378	8.92
263.514	-5.08
263.65	6.92
263.785	-4.08
263.921	-2.08
264.057	-0.08
264.192	25.92
264.328	38.92
264.464	-0.08
264.599	-6.08
264.735	16.92
264.871	-9.08
265.006	23.92
265.142	0.92
265.277	13.92
265.413	8.92
265.548	29.92
265.684	36.92
265.819	18.92
265.955	-7.08
266.091	-18.08
266.226	2.92
266.362	5.92
266.497	1.92
266.633	12.92
266.768	-2.08
266.903	4.92
267.039	-3.08
267.174	33.92
267.31	8.92
267.445	-3.08
267.581	17.92
267.716	19.92
267.851	27.92
267.987	8.92
268.122	4.92
268.258	1.92
268.393	-12.08
268.528	22.92
268.664	-3.08
268.799	-14.08
268.934	9.92
269.07	-8.08
269.205	19.92
269.34	16.92
269.476	17.92
269.611	-8.08
269.746	16.92
269.881	7.92
270.017	17.92
270.152	11.92
270.287	8.92
270.422	12.92
270.558	-12.08
270.693	14.92
270.828	26.92
270.963	4.92
271.098	9.92
271.234	-9.08
271.369	1.92
271.504	15.92
271.639	9.92
271.774	5.92
271.909	2.92
272.045	-7.08
272.18	8.92
272.315	22.92
272.45	22.92
272.585	-4.08
272.72	4.92
272.855	-15.08
272.99	19.92
273.125	-13.08
273.26	-28.08
273.395	-19.08
273.53	4.92
273.665	24.92
273.8	14.92
273.935	-2.08
274.07	2.92
274.205	-11.08
274.34	-24.08
274.475	-0.08
274.61	25.92
274.745	3.92
274.88	0.92
275.015	-8.08
275.15	7.92
275.285	1.92
275.42	-4.08
275.555	14.92
275.69	-0.08
275.825	13.92
275.959	10.92
276.094	-10.08
276.229	-0.08
276.364	-12.08
276.499	-5.08
276.634	-2.08
276.768	-9.08
276.903	23.92
277.038	11.92
277.173	14.92
277.308	13.92
277.442	-8.08
277.577	-11.08
277.712	-9.08
277.847	-4.08
277.981	21.92
278.116	-3.08
278.251	4.92
278.386	2.92
278.52	4.92
278.655	-0.08
278.79	12.92
278.924	27.92
279.059	15.92
279.194	12.92
279.328	36.92
279.463	18.92
279.598	25.92
279.732	13.92
279.867	1.92
280.001	24.92
280.136	4.92
280.271	5.92
280.405	24.92
280.54	8.92
280.674	-11.08
280.809	16.92
280.943	-14.08
281.078	17.92
281.213	28.92
281.347	14.92
281.482	12.92
281.616	23.92
281.751	1.92
281.885	-10.08
282.02	3.92
282.154	9.92
282.288	-6.08
282.423	-0.08
282.557	-14.08
282.692	-9.08
282.826	-6.08
282.961	-0.08
283.095	-2.08
283.229	-1.08
283.364	-10.08
283.498	-7.08
283.633	-0.08
283.767	7.92
283.901	1.92
284.036	-1.08
284.17	-7.08
284.304	6.92
284.439	14.92
284.573	20.92
284.707	14.92
284.842	-2.08
284.976	-3.08
285.11	-10.08
285.244	-3.08
285.379	51.92
285.513	9.92
285.647	9.92
285.781	11.92
285.916	15.92
286.05	-1.08
286.184	22.92
286.318	-3.08
286.453	12.92
286.587	5.92
286.721	0.92
286.855	13.92
286.989	20.92
287.123	16.92
287.258	-12.08
287.392	2.92
287.526	35.92
287.66	3.92
287.794	6.92
287.928	-8.08
288.062	-0.08
288.196	-0.08
288.33	26.92
288.464	21.92
288.598	7.92
288.733	14.92
288.867	26.92
289.001	8.92
289.135	11.92
289.269	0.92
289.403	7.92
289.537	11.92
289.671	15.92
289.805	-15.08
289.939	13.92
290.073	0.92
290.207	19.92
290.34	4.92
290.474	16.92
290.608	10.92
290.742	-8.08
290.876	5.92
291.01	-1.08
291.144	40.92
291.278	-4.08
291.412	13.92
291.546	9.92
291.679	-2.08
291.813	-4.08
291.947	11.92
292.081	2.92
292.215	16.92
292.349	20.92
292.482	3.92
292.616	10.92
292.75	12.92
292.884	10.92
293.018	8.92
293.151	-10.08
293.285	11.92
293.419	16.92
293.553	0.92
293.686	7.92
293.82	5.92
293.954	24.92
294.088	7.92
294.221	5.92
294.355	8.92
294.489	3.92
294.622	4.92
294.756	17.92
294.89	-1.08
295.023	9.92
295.157	23.92
295.291	19.92
295.424	38.92
295.558	7.92
295.691	14.92
295.825	-1.08
295.959	14.92
296.092	12.92
296.226	12.92
296.359	25.92
296.493	3.92
296.627	1.92
296.76	2.92
296.894	-3.08
297.027	12.92
297.161	8.92
297.294	-17.08
297.428	-5.08
297.561	33.92
297.695	-8.08
297.828	0.92
297.962	2.92
298.095	-0.08
298.229	3.92
298.362	10.92
298.495	-7.08
298.629	4.92
298.762	6.92
298.896	9.92
299.029	-7.08
299.162	-13.08
299.296	3.92
299.429	-3.08
299.563	0.92
299.696	-6.08
299.829	5.92
299.963	21.92
300.096	16.92
300.229	29.92
300.363	4.92
300.496	11.92
300.629	-17.08
300.763	4.92
300.896	-10.08
301.029	15.92
301.162	-0.08
301.296	1.92
301.429	0.92
301.562	-7.08
301.695	23.92
301.829	3.92
301.962	18.92
302.095	5.92
302.228	-0.08
302.362	-0.08
302.495	0.92
302.628	13.92
302.761	17.92
302.894	1.92
303.027	14.92
303.161	-1.08
303.294	-0.08
303.427	11.92
303.56	2.92
303.693	13.92
303.826	-4.08
303.959	0.92
304.092	15.92
304.225	0.92
304.359	22.92
304.492	12.92
304.625	1.92
304.758	14.92
304.891	17.92
305.024	12.92
305.157	-1.08
305.29	-12.08
305.423	9.92
305.556	35.92
305.689	19.92
305.822	-0.08
305.955	18.92
306.088	4.92
306.221	7.92
306.354	-19.08
306.487	9.92
306.62	-6.08
306.752	13.92
306.885	5.92
307.018	3.92
307.151	6.92
307.284	8.92
307.417	-1.08
307.55	3.92
307.683	17.92
307.816	13.92
307.948	1.92
308.081	38.92
308.214	12.92
308.347	20.92
308.48	-2.08
308.613	0.92
308.745	23.92
308.878	-5.08
309.011	1.92
309.144	21.92
309.277	-4.08
309.409	18.92
309.542	-17.08
309.675	13.92
309.808	15.92
309.94	20.92
310.073	-23.08
310.206	-12.08
310.339	6.92
310.471	0.92
310.604	30.92
310.737	12.92
310.869	14.92
311.002	24.92
311.135	10.92
311.267	-4.08
311.4	1.92
311.533	20.92
311.665	4.92
311.798	10.92
311.93	12.92
312.063	29.92
312.196	37.92
312.328	76.92
312.461	67.92
312.593	32.92
312.726	52.92
312.859	101.92
312.991	195.92
313.124	55.92
313.256	16.92
313.389	18.92
313.521	-7.08
313.654	13.92
313.786	-16.08
313.919	4.92
314.051	10.92
314.184	15.92
314.316	3.92
314.449	-15.08
314.581	-5.08
314.714	-0.08
314.846	28.92
314.978	19.92
315.111	8.92
315.243	7.92
315.376	0.92
315.508	-4.08
315.641	16.92
315.773	22.92
315.905	26.92
316.038	5.92
316.17	17.92
316.302	1.92
316.435	-9.08
316.567	-6.08
316.699	28.92
316.832	-6.08
316.964	-2.08
317.096	-7.08
317.229	3.92
317.361	-22.08
317.493	-10.08
317.625	-8.08
317.758	11.92
317.89	13.92
318.022	9.92
318.155	9.92
318.287	5.92
318.419	-5.08
318.551	-1.08
318.683	3.92
318.816	-0.08
318.948	-6.08
319.08	-6.08
319.212	1.92
319.344	26.92
319.477	16.92
319.609	22.92
319.741	29.92
319.873	8.92
320.005	-6.08
320.137	13.92
320.269	15.92
320.401	15.92
320.534	2.92
320.666	2.92
320.798	3.92
320.93	15.92
321.062	0.92
321.194	6.92
321.326	27.92
321.458	18.92
321.59	8.92
321.722	-3.08
321.854	4.92
321.986	4.92
322.118	2.92
322.25	2.92
322.382	3.92
322.514	12.92
322.646	-3.08
322.778	4.92
322.91	-12.08
323.042	5.92
323.174	-14.08
323.306	1.92
323.438	-19.08
323.57	14.92
323.702	14.92
323.834	12.92
323.966	-10.08
324.097	15.92
324.229	11.92
324.361	12.92
324.493	3.92
324.625	-4.08
324.757	4.92
324.889	1.92
325.021	26.92
325.152	22.92
325.284	26.92
325.416	8.92
325.548	9.92
325.68	4.92
325.811	13.92
325.943	9.92
326.075	7.92
326.207	6.92
326.339	10.92
326.47	-7.08
326.602	8.92
326.734	0.92
326.866	23.92
326.997	-0.08
327.129	-2.08
327.261	-5.08
327.392	-7.08
327.524	-5.08
327.656	12.92
327.787	16.92
327.919	10.92
328.051	13.92
328.182	18.92
328.314	40.92
328.446	-4.08
328.577	-0.08
328.709	3.92
328.841	4.92
328.972	4.92
329.104	12.92
329.235	2.92
329.367	1.92
329.499	3.92
329.63	1.92
329.762	1.92
329.893	21.92
330.025	7.92
330.156	-15.08
330.288	24.92
330.419	18.92
330.551	26.92
330.683	15.92
330.814	1.92
330.946	20.92
331.077	-2.08
331.208	6.92
331.34	-7.08
331.471	-1.08
331.603	1.92
331.734	-0.08
331.866	12.92
331.997	12.92
332.129	5.92
332.26	8.92
332.392	32.92
332.523	12.92
332.654	10.92
332.786	21.92
332.917	-10.08
333.048	27.92
333.18	20.92
333.311	4.92
333.443	23.92
333.574	-5.08
333.705	44.92
333.837	53.92
333.968	127.92
334.099	214.92
334.231	214.92
334.362	61.92
334.493	31.92
334.624	21.92
334.756	11.92
334.887	12.92
335.018	23.92
335.15	29.92
335.281	25.92
335.412	39.92
335.543	17.92
335.675	14.92
335.806	-0.08
335.937	21.92
336.068	12.92
336.199	33.92
336.331	1.92
336.462	17.92
336.593	21.92
336.724	11.92
336.855	15.92
336.986	21.92
337.118	28.92
337.249	17.92
337.38	24.92
337.511	21.92
337.642	28.92
337.773	16.92
337.904	12.92
338.035	14.92
338.166	2.92
338.298	21.92
338.429	16.92
338.56	28.92
338.691	22.92
338.822	13.92
338.953	20.92
339.084	37.92
339.215	31.92
339.346	14.92
339.477	13.92
339.608	6.92
339.739	26.92
339.87	32.92
340.001	12.92
340.132	21.92
340.263	13.92
340.394	22.92
340.525	15.92
340.656	15.92
340.787	13.92
340.918	24.92
341.049	3.92
341.179	22.92
341.31	23.92
341.441	16.92
341.572	25.92
341.703	17.92
341.834	11.92
341.965	25.92
342.096	14.92
342.227	28.92
342.357	18.92
342.488	18.92
342.619	22.92
342.75	25.92
342.881	26.92
343.012	37.92
343.142	44.92
343.273	37.92
343.404	34.92
343.535	30.92
343.666	35.92
343.796	26.92
343.927	28.92
344.058	43.92
344.189	39.92
344.319	54.92
344.45	20.92
344.581	26.92
344.712	23.92
344.842	34.92
344.973	18.92
345.104	31.92
345.234	18.92
345.365	-3.08
345.496	18.92
345.626	50.92
345.757	45.92
345.888	27.92
346.018	42.92
346.149	39.92
346.28	46.92
346.41	12.92
346.541	34.92
346.672	14.92
346.802	37.92
346.933	42.92
347.063	26.92
347.194	26.92
347.325	29.92
347.455	49.92
347.586	34.92
347.716	10.92
347.847	32.92
347.977	36.92
348.108	47.92
348.238	25.92
348.369	33.92
348.499	34.92
348.63	27.92
348.76	50.92
348.891	57.92
349.021	58.92
349.152	64.92
349.282	57.92
349.413	51.92
349.543	61.92
349.674	37.92
349.804	39.92
349.935	29.92
350.065	23.92
350.196	24.92
350.326	11.92
350.456	10.92
350.587	41.92
350.717	44.92
350.848	21.92
350.978	47.92
351.108	10.92
351.239	49.92
351.369	19.92
351.499	10.92
351.63	25.92
351.76	21.92
351.89	24.92
352.021	28.92
352.151	20.92
352.281	46.92
352.412	53.92
352.542	42.92
352.672	16.92
352.803	25.92
352.933	28.92
353.063	28.92
353.193	23.92
353.324	18.92
353.454	33.92
353.584	43.92
353.714	40.92
353.845	32.92
353.975	13.92
354.105	8.92
354.235	36.92
354.365	29.92
354.496	16.92
354.626	26.92
354.756	36.92
354.886	4.92
355.016	45.92
355.146	34.92
355.277	21.92
355.407	18.92
355.537	29.92
355.667	38.92
355.797	30.92
355.927	2.92
356.057	9.92
356.187	9.92
356.318	19.92
356.448	27.92
356.578	21.92
356.708	44.92
356.838	43.92
356.968	25.92
357.098	44.92
357.228	34.92
357.358	32.92
357.488	19.92
357.618	56.92
357.748	50.92
357.878	30.92
358.008	12.92
358.138	32.92
358.268	30.92
358.398	59.92
358.528	23.92
358.658	32.92
358.788	25.92
358.918	41.92
359.048	29.92
359.178	24.92
359.308	35.92
359.438	40.92
359.568	39.92
359.698	48.92
359.827	39.92
359.957	33.92
360.087	38.92
360.217	22.92
360.347	42.92
360.477	52.92
360.607	18.92
360.737	44.92
360.866	36.92
360.996	32.92
361.126	32.92
361.256	43.92
361.386	49.92
361.516	39.92
361.645	18.92
361.775	34.92
361.905	24.92
362.035	27.92
362.165	31.92
362.294	43.92
362.424	56.92
362.554	39.92
362.684	37.92
362.813	48.92
362.943	69.92
363.073	45.92
363.203	52.92
363.332	64.92
363.462	76.92
363.592	91.92
363.721	144.92
363.851	175.92
363.981	209.92
364.111	243.92
364.24	315.92
364.37	466.92
364.5	859.92
364.629	1839.92
364.759	3855.92
364.888	6257.92
365.018	9438.92
365.148	14813.92
365.277	12952.92
365.407	4727.92
365.537	3107.92
365.666	4033.92
365.796	1828.92
365.925	781.92
366.055	759.92
366.184	1041.92
366.314	1408.92
366.444	2455.92
366.573	2071.92
366.703	653.92
366.832	222.92
366.962	116.92
367.091	94.92
367.221	67.92
367.35	57.92
367.48	83.92
367.609	53.92
367.739	67.92
367.868	35.92
367.998	45.92
368.127	42.92
368.257	68.92
368.386	55.92
368.516	52.92
368.645	31.92
368.775	51.92
368.904	50.92
369.033	30.92
369.163	43.92
369.292	50.92
369.422	40.92
369.551	34.92
369.68	31.92
369.81	38.92
369.939	32.92
370.069	57.92
370.198	47.92
370.327	13.92
370.457	41.92
370.586	32.92
370.715	29.92
370.845	23.92
370.974	52.92
371.103	64.92
371.233	54.92
371.362	43.92
371.491	33.92
371.621	53.92
371.75	48.92
371.879	40.92
372.008	69.92
372.138	46.92
372.267	57.92
372.396	55.92
372.525	42.92
372.655	43.92
372.784	40.92
372.913	44.92
373.042	23.92
373.172	35.92
373.301	7.92
373.43	5.92
373.559	19.92
373.688	19.92
373.818	36.92
373.947	25.92
374.076	26.92
374.205	33.92
374.334	23.92
374.463	8.92
374.593	17.92
374.722	48.92
374.851	31.92
374.98	3.92
375.109	-1.08
375.238	26.92
375.367	47.92
375.496	-4.08
375.625	-5.08
375.755	30.92
375.884	46.92
376.013	43.92
376.142	20.92
376.271	16.92
376.4	12.92
376.529	19.92
376.658	21.92
376.787	37.92
376.916	13.92
377.045	13.92
377.174	24.92
377.303	32.92
377.432	33.92
377.561	38.92
377.69	23.92
377.819	34.92
377.948	26.92
378.077	38.92
378.206	2.92
378.335	16.92
378.464	4.92
378.593	25.92
378.722	25.92
378.851	31.92
378.98	30.92
379.108	32.92
379.237	18.92
379.366	15.92
379.495	30.92
379.624	7.92
379.753	12.92
379.882	21.92
380.011	1.92
380.14	-2.08
380.268	9.92
380.397	15.92
380.526	32.92
380.655	14.92
380.784	3.92
380.913	-0.08
381.041	4.92
381.17	16.92
381.299	21.92
381.428	12.92
381.557	19.92
381.685	13.92
381.814	38.92
381.943	16.92
382.072	-1.08
382.2	20.92
382.329	16.92
382.458	25.92
382.587	32.92
382.715	56.92
382.844	24.92
382.973	26.92
383.102	27.92
383.23	21.92
383.359	11.92
383.488	9.92
383.616	15.92
383.745	-0.08
383.874	17.92
384.003	27.92
384.131	6.92
384.26	19.92
384.389	45.92
384.517	-4.08
384.646	14.92
384.774	25.92
384.903	33.92
385.032	36.92
385.16	18.92
385.289	18.92
385.418	36.92
385.546	24.92
385.675	23.92
385.803	7.92
385.932	37.92
386.06	16.92
386.189	17.92
386.318	12.92
386.446	13.92
386.575	16.92
386.703	37.92
386.832	13.92
386.96	25.92
387.089	40.92
387.217	37.92
387.346	15.92
387.474	27.92
387.603	30.92
387.731	23.92
387.86	38.92
387.988	13.92
388.117	34.92
388.245	18.92
388.374	17.92
388.502	23.92
388.631	4.92
388.759	-0.08
388.888	30.92
389.016	18.92
389.144	18.92
389.273	36.92
389.401	18.92
389.53	14.92
389.658	37.92
389.786	11.92
389.915	27.92
390.043	18.92
390.172	28.92
390.3	50.92
390.428	39.92
390.557	24.92
390.685	47.92
390.813	59.92
390.942	50.92
391.07	31.92
391.198	12.92
391.327	26.92
391.455	-3.08
391.583	35.92
391.712	18.92
391.84	34.92
391.968	8.92
392.096	16.92
392.225	13.92
392.353	44.92
392.481	27.92
392.609	22.92
392.738	12.92
392.866	19.92
392.994	15.92
393.122	34.92
393.251	4.92
393.379	14.92
393.507	28.92
393.635	21.92
393.764	33.92
393.892	45.92
394.02	14.92
394.148	24.92
394.276	29.92
394.404	38.92
394.533	29.92
394.661	22.92
394.789	57.92
394.917	60.92
395.045	36.92
395.173	16.92
395.302	49.92
395.43	34.92
395.558	39.92
395.686	25.92
395.814	49.92
395.942	29.92
396.07	37.92
396.198	40.92
396.326	42.92
396.454	37.92
396.582	32.92
396.711	32.92
396.839	25.92
396.967	29.92
397.095	33.92
397.223	32.92
397.351	48.92
397.479	44.92
397.607	37.92
397.735	36.92
397.863	33.92
397.991	44.92
398.119	14.92
398.247	37.92
398.375	43.92
398.503	59.92
398.631	55.92
398.759	69.92
398.887	56.92
399.015	50.92
399.143	51.92
399.271	75.92
399.399	80.92
399.526	69.92
399.654	85.92
399.782	64.92
399.91	93.92
400.038	100.92
400.166	94.92
400.294	84.92
400.422	86.92
400.55	105.92
400.678	113.92
400.805	98.92
400.933	115.92
401.061	121.92
401.189	127.92
401.317	154.92
401.445	102.92
401.573	82.92
401.7	58.92
401.828	60.92
401.956	52.92
402.084	49.92
402.212	38.92
402.34	40.92
402.467	34.92
402.595	32.92
402.723	46.92
402.851	59.92
402.978	73.92
403.106	74.92
403.234	66.92
403.362	108.92
403.489	125.92
403.617	152.92
403.745	199.92
403.873	266.92
404	573.92
404.128	1426.92
404.256	3932.92
404.384	5072.92
404.511	5455.92
404.639	7252.92
404.767	11432.92
404.894	14634.92
405.022	4963.92
405.15	1288.92
405.277	400.92
405.405	252.92
405.533	137.92
405.66	90.92
405.788	47.92
405.916	65.92
406.043	41.92
406.171	52.92
406.299	56.92
406.426	68.92
406.554	48.92
406.681	64.92
406.809	53.92
406.937	60.92
407.064	49.92
407.192	128.92
407.319	298.92
407.447	538.92
407.574	567.92
407.702	648.92
407.83	874.92
407.957	1607.92
408.085	950.92
408.212	292.92
408.34	126.92
408.467	68.92
408.595	53.92
408.722	56.92
408.85	47.92
408.977	57.92
409.105	16.92
409.232	21.92
409.36	13.92
409.487	42.92
409.615	36.92
409.742	23.92
409.87	32.92
409.997	39.92
410.125	38.92
410.252	57.92
410.379	32.92
410.507	27.92
410.634	39.92
410.762	48.92
410.889	36.92
411.017	41.92
411.144	51.92
411.271	34.92
411.399	30.92
411.526	30.92
411.653	49.92
411.781	43.92
411.908	33.92
412.036	20.92
412.163	49.92
412.29	33.92
412.418	34.92
412.545	42.92
412.672	40.92
412.8	63.92
412.927	45.92
413.054	41.92
413.182	28.92
413.309	21.92
413.436	17.92
413.564	14.92
413.691	29.92
413.818	38.92
413.945	14.92
414.073	35.92
414.2	37.92
414.327	12.92
414.454	26.92
414.582	35.92
414.709	21.92
414.836	26.92
414.963	36.92
415.091	37.92
415.218	38.92
415.345	24.92
415.472	33.92
415.6	17.92
415.727	34.92
415.854	48.92
415.981	32.92
416.108	28.92
416.236	30.92
416.363	18.92
416.49	14.92
416.617	27.92
416.744	30.92
416.871	36.92
416.998	25.92
417.126	20.92
417.253	20.92
417.38	28.92
417.507	20.92
417.634	36.92
417.761	50.92
417.888	38.92
418.015	26.92
418.143	52.92
418.27	51.92
418.397	30.92
418.524	39.92
418.651	17.92
418.778	39.92
418.905	48.92
419.032	37.92
419.159	38.92
419.286	59.92
419.413	60.92
419.54	47.92
419.667	43.92
419.794	32.92
419.921	52.92
420.048	53.92
420.175	62.92
420.302	46.92
420.429	61.92
420.556	61.92
420.683	50.92
420.81	54.92
420.937	70.92
421.064	93.92
421.191	64.92
421.318	62.92
421.445	73.92
421.572	71.92
421.699	48.92
421.826	60.92
421.953	40.92
422.08	41.92
422.207	36.92
422.334	39.92
422.461	41.92
422.588	16.92
422.714	30.92
422.841	32.92
422.968	39.92
423.095	35.92
423.222	13.92
423.349	31.92
423.476	38.92
423.603	31.92
423.729	-1.08
423.856	20.92
423.983	37.92
424.11	18.92
424.237	18.92
424.364	22.92
424.491	17.92
424.617	16.92
424.744	1.92
424.871	27.92
424.998	41.92
425.125	30.92
425.251	21.92
425.378	29.92
425.505	42.92
425.632	25.92
425.758	17.92
425.885	26.92
426.012	25.92
426.139	37.92
426.266	20.92
426.392	40.92
426.519	22.92
426.646	11.92
426.772	43.92
426.899	27.92
427.026	24.92
427.153	29.92
427.279	36.92
427.406	22.92
427.533	34.92
427.659	28.92
427.786	17.92
427.913	31.92
428.039	24.92
428.166	21.92
428.293	19.92
428.419	37.92
428.546	14.92
428.673	3.92
428.799	16.92
428.926	16.92
429.053	43.92
429.179	44.92
429.306	46.92
429.433	55.92
429.559	42.92
429.686	19.92
429.812	3.92
429.939	31.92
430.066	18.92
430.192	23.92
430.319	37.92
430.445	33.92
430.572	36.92
430.699	22.92
430.825	24.92
430.952	31.92
431.078	34.92
431.205	59.92
431.331	37.92
431.458	39.92
431.584	48.92
431.711	27.92
431.837	60.92
431.964	18.92
432.09	36.92
432.217	0.92
432.343	40.92
432.47	51.92
432.596	37.92
432.723	24.92
432.849	28.92
432.976	26.92
433.102	54.92
433.229	25.92
433.355	60.92
433.482	89.92
433.608	109.92
433.735	94.92
433.861	115.92
433.987	162.92
434.114	183.92
434.24	174.92
434.367	221.92
434.493	206.92
434.62	287.92
434.746	388.92
434.872	630.92
434.999	847.92
435.125	1737.92
435.252	5563.92
435.378	13442.92
435.504	15203.92
435.631	15433.92
435.757	15686.92
435.883	15686.92
436.01	15686.92
436.136	15686.92
436.262	15686.92
436.389	3470.92
436.515	2140.92
436.641	769.92
436.768	644.92
436.894	403.92
437.02	411.92
437.147	305.92
437.273	293.92
437.399	210.92
437.526	243.92
437.652	177.92
437.778	217.92
437.904	148.92
438.031	169.92
438.157	140.92
438.283	163.92
438.409	117.92
438.536	119.92
438.662	131.92
438.788	142.92
438.914	129.92
439.041	143.92
439.167	127.92
439.293	101.92
439.419	82.92
439.546	110.92
439.672	64.92
439.798	99.92
439.924	78.92
440.05	105.92
440.177	86.92
440.303	80.92
440.429	64.92
440.555	69.92
440.681	75.92
440.807	91.92
440.934	56.92
441.06	49.92
441.186	50.92
441.312	72.92
441.438	47.92
441.564	79.92
441.69	69.92
441.816	70.92
441.943	44.92
442.069	48.92
442.195	57.92
442.321	63.92
442.447	56.92
442.573	45.92
442.699	32.92
442.825	51.92
442.951	47.92
443.077	52.92
443.203	69.92
443.33	55.92
443.456	34.92
443.582	48.92
443.708	44.92
443.834	56.92
443.96	53.92
444.086	45.92
444.212	52.92
444.338	55.92
444.464	53.92
444.59	61.92
444.716	54.92
444.842	50.92
444.968	28.92
445.094	47.92
445.22	33.92
445.346	49.92
445.472	27.92
445.598	37.92
445.724	46.92
445.85	45.92
445.976	47.92
446.102	66.92
446.228	53.92
446.354	37.92
446.48	34.92
446.605	35.92
446.731	36.92
446.857	33.92
446.983	29.92
447.109	46.92
447.235	43.92
447.361	47.92
447.487	36.92
447.613	62.92
447.739	37.92
447.865	28.92
447.99	28.92
448.116	41.92
448.242	36.92
448.368	24.92
448.494	18.92
448.62	37.92
448.746	28.92
448.872	29.92
448.997	30.92
449.123	32.92
449.249	49.92
449.375	57.92
449.501	25.92
449.627	24.92
449.752	40.92
449.878	34.92
450.004	11.92
450.13	26.92
450.256	28.92
450.381	26.92
450.507	27.92
450.633	39.92
450.759	39.92
450.884	21.92
451.01	38.92
451.136	37.92
451.262	39.92
451.388	34.92
451.513	52.92
451.639	40.92
451.765	29.92
451.89	37.92
452.016	32.92
452.142	27.92
452.268	33.92
452.393	35.92
452.519	26.92
452.645	19.92
452.771	22.92
452.896	19.92
453.022	23.92
453.148	26.92
453.273	27.92
453.399	39.92
453.525	4.92
453.65	19.92
453.776	49.92
453.902	35.92
454.027	35.92
454.153	25.92
454.279	38.92
454.404	35.92
454.53	51.92
454.656	54.92
454.781	18.92
454.907	23.92
455.032	26.92
455.158	40.92
455.284	39.92
455.409	43.92
455.535	28.92
455.66	34.92
455.786	34.92
455.912	25.92
456.037	16.92
456.163	34.92
456.288	31.92
456.414	7.92
456.539	20.92
456.665	38.92
456.791	27.92
456.916	26.92
457.042	37.92
457.167	20.92
457.293	40.92
457.418	26.92
457.544	12.92
457.669	21.92
457.795	30.92
457.92	19.92
458.046	19.92
458.171	31.92
458.297	28.92
458.422	26.92
458.548	25.92
458.673	32.92
458.799	22.92
458.924	15.92
459.05	26.92
459.175	25.92
459.301	14.92
459.426	32.92
459.552	18.92
459.677	-1.08
459.803	36.92
459.928	27.92
460.053	35.92
460.179	39.92
460.304	31.92
460.43	18.92
460.555	16.92
460.681	21.92
460.806	20.92
460.931	21.92
461.057	28.92
461.182	28.92
461.308	42.92
461.433	38.92
461.558	27.92
461.684	38.92
461.809	36.92
461.934	27.92
462.06	17.92
462.185	11.92
462.311	20.92
462.436	34.92
462.561	12.92
462.687	30.92
462.812	31.92
462.937	21.92
463.063	21.92
463.188	18.92
463.313	34.92
463.439	28.92
463.564	29.92
463.689	31.92
463.814	33.92
463.94	20.92
464.065	39.92
464.19	47.92
464.316	6.92
464.441	23.92
464.566	4.92
464.692	36.92
464.817	-5.08
464.942	20.92
465.067	26.92
465.193	12.92
465.318	17.92
465.443	39.92
465.568	29.92
465.694	26.92
465.819	33.92
465.944	35.92
466.069	26.92
466.194	32.92
466.32	51.92
466.445	25.92
466.57	22.92
466.695	34.92
466.82	37.92
466.946	54.92
467.071	38.92
467.196	34.92
467.321	24.92
467.446	52.92
467.572	52.92
467.697	21.92
467.822	35.92
467.947	60.92
468.072	29.92
468.197	12.92
468.323	28.92
468.448	42.92
468.573	36.92
468.698	33.92
468.823	43.92
468.948	47.92
469.073	28.92
469.198	43.92
469.324	40.92
469.449	38.92
469.574	43.92
469.699	55.92
469.824	44.92
469.949	46.92
470.074	21.92
470.199	54.92
470.324	53.92
470.449	53.92
470.574	39.92
470.7	42.92
470.825	38.92
470.95	72.92
471.075	19.92
471.2	32.92
471.325	46.92
471.45	46.92
471.575	26.92
471.7	30.92
471.825	9.92
471.95	13.92
472.075	24.92
472.2	33.92
472.325	26.92
472.45	20.92
472.575	42.92
472.7	28.92
472.825	38.92
472.95	64.92
473.075	24.92
473.2	22.92
473.325	51.92
473.45	39.92
473.575	41.92
473.7	49.92
473.825	50.92
473.95	25.92
474.075	27.92
474.2	10.92
474.325	-4.08
474.45	18.92
474.574	36.92
474.699	45.92
474.824	34.92
474.949	8.92
475.074	5.92
475.199	37.92
475.324	24.92
475.449	16.92
475.574	9.92
475.699	26.92
475.824	13.92
475.949	12.92
476.073	24.92
476.198	23.92
476.323	17.92
476.448	18.92
476.573	30.92
476.698	30.92
476.823	21.92
476.947	38.92
477.072	32.92
477.197	19.92
477.322	23.92
477.447	24.92
477.572	22.92
477.697	32.92
477.821	34.92
477.946	33.92
478.071	31.92
478.196	33.92
478.321	20.92
478.445	39.92
478.57	17.92
478.695	8.92
478.82	27.92
478.945	30.92
479.069	33.92
479.194	10.92
479.319	29.92
479.444	46.92
479.569	13.92
479.693	24.92
479.818	28.92
479.943	40.92
480.068	23.92
480.192	33.92
480.317	38.92
480.442	16.92
480.567	23.92
480.691	23.92
480.816	14.92
480.941	12.92
481.066	27.92
481.19	44.92
481.315	27.92
481.44	-0.08
481.564	-13.08
481.689	21.92
481.814	20.92
481.938	11.92
482.063	-3.08
482.188	21.92
482.313	29.92
482.437	8.92
482.562	8.92
482.687	21.92
482.811	17.92
482.936	9.92
483.061	29.92
483.185	9.92
483.31	34.92
483.435	47.92
483.559	29.92
483.684	33.92
483.808	72.92
483.933	24.92
484.058	10.92
484.182	30.92
484.307	20.92
484.432	25.92
484.556	20.92
484.681	21.92
484.805	25.92
484.93	21.92
485.055	36.92
485.179	49.92
485.304	30.92
485.428	27.92
485.553	22.92
485.678	34.92
485.802	20.92
485.927	31.92
486.051	40.92
486.176	21.92
486.3	27.92
486.425	17.92
486.549	19.92
486.674	36.92
486.799	27.92
486.923	18.92
487.048	28.92
487.172	12.92
487.297	38.92
487.421	28.92
487.546	24.92
487.67	37.92
487.795	1.92
487.919	8.92
488.044	27.92
488.168	28.92
488.293	40.92
488.417	20.92
488.542	51.92
488.666	36.92
488.791	26.92
488.915	19.92
489.04	13.92
489.164	30.92
489.289	65.92
489.413	28.92
489.538	35.92
489.662	17.92
489.786	27.92
489.911	35.92
490.035	-1.08
490.16	7.92
490.284	19.92
490.409	4.92
490.533	15.92
490.658	44.92
490.782	34.92
490.906	37.92
491.031	122.92
491.155	133.92
491.28	143.92
491.404	187.92
491.528	259.92
491.653	157.92
491.777	75.92
491.902	44.92
492.026	34.92
492.15	33.92
492.275	37.92
492.399	35.92
492.524	28.92
492.648	36.92
492.772	20.92
492.897	25.92
493.021	27.92
493.145	29.92
493.27	32.92
493.394	31.92
493.518	25.92
493.643	17.92
493.767	40.92
493.891	15.92
494.016	29.92
494.14	19.92
494.264	33.92
494.389	14.92
494.513	19.92
494.637	9.92
494.762	28.92
494.886	27.92
495.01	26.92
495.134	31.92
495.259	46.92
495.383	38.92
495.507	18.92
495.632	39.92
495.756	39.92
495.88	40.92
496.004	35.92
496.129	12.92
496.253	35.92
496.377	25.92
496.501	30.92
496.626	23.92
496.75	31.92
496.874	20.92
496.998	7.92
497.123	48.92
497.247	18.92
497.371	0.92
497.495	20.92
497.62	14.92
497.744	5.92
497.868	21.92
497.992	34.92
498.116	7.92
498.241	26.92
498.365	12.92
498.489	20.92
498.613	53.92
498.737	17.92
498.862	12.92
498.986	8.92
499.11	38.92
499.234	28.92
499.358	19.92
499.482	17.92
499.607	40.92
499.731	31.92
499.855	43.92
499.979	17.92
500.103	30.92
500.227	46.92
500.351	20.92
500.476	35.92
500.6	24.92
500.724	33.92
500.848	39.92
500.972	32.92
501.096	17.92
501.22	32.92
501.344	27.92
501.469	15.92
501.593	28.92
501.717	27.92
501.841	23.92
501.965	26.92
502.089	17.92
502.213	27.92
502.337	30.92
502.461	13.92
502.585	24.92
502.709	31.92
502.834	29.92
502.958	20.92
503.082	28.92
503.206	20.92
503.33	41.92
503.454	37.92
503.578	33.92
503.702	38.92
503.826	23.92
503.95	36.92
504.074	32.92
504.198	13.92
504.322	16.92
504.446	32.92
504.57	33.92
504.694	25.92
504.818	26.92
504.942	29.92
505.066	32.92
505.19	32.92
505.314	4.92
505.438	26.92
505.562	35.92
505.686	51.92
505.81	23.92
505.934	30.92
506.058	26.92
506.182	20.92
506.306	29.92
506.43	8.92
506.554	11.92
506.678	11.92
506.802	17.92
506.926	23.92
507.05	36.92
507.174	39.92
507.298	29.92
507.422	14.92
507.546	15.92
507.67	37.92
507.794	20.92
507.918	22.92
508.042	36.92
508.165	34.92
508.289	16.92
508.413	18.92
508.537	40.92
508.661	25.92
508.785	4.92
508.909	16.92
509.033	15.92
509.157	11.92
509.281	25.92
509.405	32.92
509.528	51.92
509.652	54.92
509.776	16.92
509.9	38.92
510.024	49.92
510.148	39.92
510.272	39.92
510.396	23.92
510.519	22.92
510.643	39.92
510.767	41.92
510.891	39.92
511.015	45.92
511.139	35.92
511.263	45.92
511.386	35.92
511.51	24.92
511.634	42.92
511.758	32.92
511.882	42.92
512.006	40.92
512.129	50.92
512.253	95.92
512.377	74.92
512.501	100.92
512.625	88.92
512.748	82.92
512.872	74.92
512.996	60.92
513.12	73.92
513.244	73.92
513.367	79.92
513.491	64.92
513.615	87.92
513.739	73.92
513.862	83.92
513.986	90.92
514.11	104.92
514.234	88.92
514.358	105.92
514.481	123.92
514.605	115.92
514.729	116.92
514.853	113.92
514.976	105.92
515.1	112.92
515.224	107.92
515.348	79.92
515.471	89.92
515.595	119.92
515.719	127.92
515.842	224.92
515.966	275.92
516.09	297.92
516.214	275.92
516.337	317.92
516.461	226.92
516.585	104.92
516.708	51.92
516.832	33.92
516.956	23.92
517.08	23.92
517.203	11.92
517.327	27.92
517.451	41.92
517.574	33.92
517.698	11.92
517.822	29.92
517.945	49.92
518.069	53.92
518.193	37.92
518.316	20.92
518.44	30.92
518.564	9.92
518.687	14.92
518.811	24.92
518.935	52.92
519.058	18.92
519.182	17.92
519.306	15.92
519.429	0.92
519.553	26.92
519.676	17.92
519.8	23.92
519.924	14.92
520.047	22.92
520.171	17.92
520.294	21.92
520.418	25.92
520.542	8.92
520.665	30.92
520.789	30.92
520.913	13.92
521.036	-6.08
521.16	2.92
521.283	11.92
521.407	25.92
521.53	14.92
521.654	6.92
521.778	43.92
521.901	32.92
522.025	37.92
522.148	20.92
522.272	22.92
522.395	17.92
522.519	25.92
522.643	19.92
522.766	15.92
522.89	7.92
523.013	39.92
523.137	9.92
523.26	18.92
523.384	30.92
523.507	24.92
523.631	11.92
523.754	11.92
523.878	14.92
524.002	24.92
524.125	20.92
524.249	10.92
524.372	24.92
524.496	27.92
524.619	34.92
524.743	19.92
524.866	24.92
524.99	31.92
525.113	13.92
525.237	18.92
525.36	23.92
525.484	24.92
525.607	-2.08
525.731	17.92
525.854	28.92
525.978	58.92
526.101	7.92
526.224	15.92
526.348	8.92
526.471	21.92
526.595	28.92
526.718	19.92
526.842	5.92
526.965	36.92
527.089	8.92
527.212	28.92
527.336	26.92
527.459	32.92
527.582	20.92
527.706	15.92
527.829	27.92
527.953	16.92
528.076	16.92
528.2	11.92
528.323	25.92
528.446	21.92
528.57	21.92
528.693	37.92
528.817	23.92
528.94	26.92
529.064	39.92
529.187	15.92
529.31	15.92
529.434	27.92
529.557	20.92
529.68	25.92
529.804	26.92
529.927	15.92
530.051	30.92
530.174	5.92
530.297	20.92
530.421	35.92
530.544	37.92
530.668	33.92
530.791	8.92
530.914	33.92
531.038	33.92
531.161	21.92
531.284	22.92
531.408	24.92
531.531	16.92
531.654	16.92
531.778	11.92
531.901	15.92
532.024	18.92
532.148	17.92
532.271	20.92
532.394	15.92
532.518	41.92
532.641	26.92
532.764	32.92
532.888	12.92
533.011	-2.08
533.134	19.92
533.258	32.92
533.381	13.92
533.504	10.92
533.628	7.92
533.751	37.92
533.874	28.92
533.997	10.92
534.121	13.92
534.244	14.92
534.367	10.92
534.491	40.92
534.614	32.92
534.737	29.92
534.86	26.92
534.984	14.92
535.107	10.92
535.23	34.92
535.354	20.92
535.477	11.92
535.6	14.92
535.723	19.92
535.847	8.92
535.97	12.92
536.093	45.92
536.216	19.92
536.34	17.92
536.463	20.92
536.586	25.92
536.709	22.92
536.833	12.92
536.956	12.92
537.079	5.92
537.202	32.92
537.325	27.92
537.449	11.92
537.572	9.92
537.695	21.92
537.818	14.92
537.941	25.92
538.065	23.92
538.188	14.92
538.311	32.92
538.434	29.92
538.558	8.92
538.681	33.92
538.804	35.92
538.927	29.92
539.05	11.92
539.173	33.92
539.297	5.92
539.42	25.92
539.543	23.92
539.666	29.92
539.789	31.92
539.913	21.92
540.036	40.92
540.159	35.92
540.282	24.92
540.405	30.92
540.528	25.92
540.651	45.92
540.775	24.92
540.898	32.92
541.021	25.92
541.144	50.92
541.267	32.92
541.39	25.92
541.513	42.92
541.637	27.92
541.76	30.92
541.883	25.92
542.006	28.92
542.129	65.92
542.252	36.92
542.375	37.92
542.498	33.92
542.622	43.92
542.745	64.92
542.868	65.92
542.991	69.92
543.114	57.92
543.237	58.92
543.36	78.92
543.483	73.92
543.606	59.92
543.73	83.92
543.853	81.92
543.976	88.92
544.099	113.92
544.222	130.92
544.345	139.92
544.468	174.92
544.591	219.92
544.714	252.92
544.837	371.92
544.96	462.92
545.083	669.92
545.206	1091.92
545.329	2454.92
545.453	10949.92
545.576	15255.92
545.699	15686.92
545.822	15686.92
545.945	15686.92
546.068	15686.92
546.191	15686.92
546.314	15686.92
546.437	15686.92
546.56	15686.92
546.683	15686.92
546.806	15686.92
546.929	15686.92
547.052	15686.92
547.175	15686.92
547.298	15686.92
547.421	15686.92
547.544	15686.92
547.667	3568.92
547.79	2759.92
547.913	1068.92
548.036	897.92
548.159	639.92
548.282	655.92
548.405	511.92
548.528	481.92
548.651	403.92
548.774	404.92
548.897	350.92
549.02	347.92
549.143	306.92
549.266	314.92
549.389	285.92
549.512	269.92
549.635	267.92
549.758	267.92
549.881	222.92
550.004	221.92
550.127	194.92
550.25	194.92
550.373	169.92
550.496	195.92
550.619	158.92
550.742	149.92
550.865	138.92
550.988	160.92
551.111	160.92
551.234	147.92
551.356	116.92
551.479	137.92
551.602	123.92
551.725	147.92
551.848	142.92
551.971	140.92
552.094	136.92
552.217	123.92
552.34	116.92
552.463	125.92
552.586	108.92
552.709	128.92
552.832	112.92
552.955	120.92
553.077	97.92
553.2	115.92
553.323	86.92
553.446	99.92
553.569	112.92
553.692	106.92
553.815	119.92
553.938	111.92
554.061	115.92
554.184	90.92
554.306	93.92
554.429	93.92
554.552	96.92
554.675	87.92
554.798	82.92
554.921	118.92
555.044	79.92
555.167	80.92
555.29	71.92
555.412	68.92
555.535	87.92
555.658	71.92
555.781	73.92
555.904	78.92
556.027	73.92
556.15	75.92
556.272	73.92
556.395	81.92
556.518	66.92
556.641	92.92
556.764	80.92
556.887	92.92
557.01	73.92
557.132	64.92
557.255	73.92
557.378	77.92
557.501	74.92
557.624	77.92
557.747	72.92
557.869	78.92
557.992	82.92
558.115	94.92
558.238	97.92
558.361	106.92
558.483	100.92
558.606	88.92
558.729	51.92
558.852	77.92
558.975	69.92
559.098	71.92
559.22	55.92
559.343	53.92
559.466	55.92
559.589	55.92
559.712	62.92
559.834	64.92
559.957	61.92
560.08	60.92
560.203	55.92
560.325	55.92
560.448	65.92
560.571	71.92
560.694	59.92
560.817	86.92
560.939	56.92
561.062	59.92
561.185	65.92
561.308	68.92
561.43	56.92
561.553	70.92
561.676	43.92
561.799	64.92
561.921	73.92
562.044	71.92
562.167	59.92
562.29	95.92
562.413	69.92
562.535	62.92
562.658	41.92
562.781	63.92
562.903	64.92
563.026	100.92
563.149	145.92
563.272	116.92
563.394	116.92
563.517	94.92
563.64	73.92
563.763	51.92
563.885	71.92
564.008	71.92
564.131	57.92
564.254	31.92
564.376	19.92
564.499	20.92
564.622	52.92
564.744	50.92
564.867	48.92
564.99	20.92
565.113	47.92
565.235	52.92
565.358	45.92
565.481	11.92
565.603	34.92
565.726	41.92
565.849	63.92
565.971	29.92
566.094	18.92
566.217	28.92
566.34	41.92
566.462	44.92
566.585	53.92
566.708	61.92
566.83	36.92
566.953	50.92
567.076	41.92
567.198	43.92
567.321	18.92
567.444	45.92
567.566	53.92
567.689	33.92
567.812	24.92
567.934	41.92
568.057	36.92
568.18	38.92
568.302	33.92
568.425	24.92
568.548	29.92
568.67	40.92
568.793	20.92
568.916	33.92
569.038	38.92
569.161	26.92
569.283	42.92
569.406	35.92
569.529	32.92
569.651	16.92
569.774	25.92
569.897	39.92
570.019	35.92
570.142	28.92
570.265	49.92
570.387	47.92
570.51	38.92
570.632	38.92
570.755	27.92
570.878	30.92
571	30.92
571.123	42.92
571.246	47.92
571.368	40.92
571.491	36.92
571.613	39.92
571.736	33.92
571.859	32.92
571.981	30.92
572.104	21.92
572.226	28.92
572.349	32.92
572.472	38.92
572.594	39.92
572.717	28.92
572.839	29.92
572.962	30.92
573.085	33.92
573.207	37.92
573.33	26.92
573.452	39.92
573.575	35.92
573.697	33.92
573.82	35.92
573.943	41.92
574.065	41.92
574.188	41.92
574.31	47.92
574.433	41.92
574.555	64.92
574.678	33.92
574.801	43.92
574.923	38.92
575.046	59.92
575.168	41.92
575.291	53.92
575.413	28.92
575.536	42.92
575.659	59.92
575.781	41.92
575.904	61.92
576.026	60.92
576.149	84.92
576.271	123.92
576.394	194.92
576.516	545.92
576.639	3653.92
576.761	10228.92
576.884	8832.92
577.007	8765.92
577.129	7999.92
577.252	3691.92
577.374	1291.92
577.497	527.92
577.619	295.92
577.742	182.92
577.864	181.92
577.987	122.92
578.109	120.92
578.232	140.92
578.354	153.92
578.477	183.92
578.599	409.92
578.722	1945.92
578.844	9132.92
578.967	9833.92
579.089	8760.92
579.212	9063.92
579.334	5294.92
579.457	1911.92
579.579	722.92
579.702	323.92
579.824	210.92
579.947	147.92
580.069	116.92
580.192	93.92
580.314	89.92
580.437	73.92
580.559	110.92
580.682	69.92
580.804	73.92
580.927	79.92
581.049	69.92
581.172	50.92
581.294	62.92
581.417	57.92
581.539	57.92
581.662	51.92
581.784	55.92
581.907	50.92
582.029	45.92
582.152	33.92
582.274	46.92
582.396	44.92
582.519	34.92
582.641	19.92
582.764	46.92
582.886	45.92
583.009	40.92
583.131	37.92
583.254	42.92
583.376	39.92
583.499	39.92
583.621	42.92
583.743	39.92
583.866	54.92
583.988	43.92
584.111	48.92
584.233	47.92
584.356	60.92
584.478	47.92
584.601	20.92
584.723	56.92
584.845	56.92
584.968	36.92
585.09	16.92
585.213	47.92
585.335	18.92
585.458	29.92
585.58	31.92
585.702	28.92
585.825	35.92
585.947	37.92
586.07	24.92
586.192	19.92
586.315	41.92
586.437	38.92
586.559	39.92
586.682	8.92
586.804	37.92
586.927	21.92
587.049	24.92
587.171	33.92
587.294	32.92
587.416	26.92
587.539	27.92
587.661	3.92
587.783	23.92
587.906	21.92
588.028	33.92
588.151	40.92
588.273	37.92
588.395	36.92
588.518	27.92
588.64	34.92
588.763	36.92
588.885	35.92
589.007	45.92
589.13	12.92
589.252	16.92
589.375	28.92
589.497	37.92
589.619	25.92
589.742	39.92
589.864	47.92
589.986	18.92
590.109	11.92
590.231	23.92
590.354	33.92
590.476	16.92
590.598	10.92
590.721	29.92
590.843	23.92
590.965	23.92
591.088	32.92
591.21	9.92
591.332	27.92
591.455	33.92
591.577	29.92
591.7	39.92
591.822	38.92
591.944	39.92
592.067	9.92
592.189	31.92
592.311	41.92
592.434	28.92
592.556	13.92
592.678	39.92
592.801	21.92
592.923	26.92
593.045	23.92
593.168	20.92
593.29	25.92
593.412	32.92
593.535	15.92
593.657	17.92
593.779	43.92
593.902	47.92
594.024	10.92
594.146	48.92
594.269	33.92
594.391	15.92
594.513	40.92
594.636	37.92
594.758	23.92
594.88	32.92
595.003	39.92
595.125	28.92
595.247	23.92
595.37	37.92
595.492	35.92
595.614	55.92
595.737	29.92
595.859	29.92
595.981	12.92
596.104	37.92
596.226	19.92
596.348	17.92
596.471	23.92
596.593	24.92
596.715	11.92
596.838	11.92
596.96	14.92
597.082	31.92
597.204	36.92
597.327	25.92
597.449	11.92
597.571	34.92
597.694	26.92
597.816	34.92
597.938	28.92
598.061	14.92
598.183	30.92
598.305	36.92
598.427	16.92
598.55	33.92
598.672	37.92
598.794	41.92
598.917	24.92
599.039	44.92
599.161	36.92
599.283	36.92
599.406	35.92
599.528	43.92
599.65	45.92
599.773	38.92
599.895	59.92
600.017	45.92
600.139	26.92
600.262	19.92
600.384	15.92
600.506	35.92
600.628	28.92
600.751	38.92
600.873	32.92
600.995	33.92
601.118	46.92
601.24	38.92
601.362	48.92
601.484	38.92
601.607	29.92
601.729	24.92
601.851	14.92
601.973	20.92
602.096	31.92
602.218	42.92
602.34	25.92
602.462	34.92
602.585	11.92
602.707	20.92
602.829	31.92
602.951	11.92
603.074	12.92
603.196	27.92
603.318	11.92
603.44	28.92
603.563	19.92
603.685	-8.08
603.807	26.92
603.929	27.92
604.052	37.92
604.174	32.92
604.296	36.92
604.418	37.92
604.541	34.92
604.663	21.92
604.785	38.92
604.907	13.92
605.03	11.92
605.152	56.92
605.274	17.92
605.396	12.92
605.519	31.92
605.641	12.92
605.763	21.92
605.885	32.92
606.008	8.92
606.13	43.92
606.252	47.92
606.374	14.92
606.496	4.92
606.619	28.92
606.741	17.92
606.863	32.92
606.985	36.92
607.108	39.92
607.23	24.92
607.352	13.92
607.474	8.92
607.596	29.92
607.719	28.92
607.841	37.92
607.963	44.92
608.085	11.92
608.207	27.92
608.33	36.92
608.452	24.92
608.574	34.92
608.696	34.92
608.819	30.92
608.941	33.92
609.063	28.92
609.185	31.92
609.307	26.92
609.43	20.92
609.552	33.92
609.674	17.92
609.796	39.92
609.918	31.92
610.041	31.92
610.163	33.92
610.285	29.92
610.407	34.92
610.529	24.92
610.652	39.92
610.774	19.92
610.896	40.92
611.018	26.92
611.14	17.92
611.263	31.92
611.385	24.92
611.507	43.92
611.629	29.92
611.751	47.92
611.873	53.92
611.996	22.92
612.118	43.92
612.24	10.92
612.362	33.92
612.484	43.92
612.607	48.92
612.729	58.92
612.851	30.92
612.973	25.92
613.095	27.92
613.218	24.92
613.34	33.92
613.462	31.92
613.584	21.92
613.706	7.92
613.828	35.92
613.951	18.92
614.073	16.92
614.195	19.92
614.317	34.92
614.439	37.92
614.561	32.92
614.684	12.92
614.806	27.92
614.928	29.92
615.05	30.92
615.172	33.92
615.294	32.92
615.417	11.92
615.539	24.92
615.661	23.92
615.783	32.92
615.905	41.92
616.027	23.92
616.15	26.92
616.272	22.92
616.394	15.92
616.516	14.92
616.638	19.92
616.76	31.92
616.883	33.92
617.005	37.92
617.127	19.92
617.249	26.92
617.371	23.92
617.493	19.92
617.615	28.92
617.738	24.92
617.86	30.92
617.982	20.92
618.104	20.92
618.226	20.92
618.348	20.92
618.471	29.92
618.593	27.92
618.715	17.92
618.837	16.92
618.959	37.92
619.081	37.92
619.203	36.92
619.326	44.92
619.448	33.92
619.57	25.92
619.692	33.92
619.814	18.92
619.936	21.92
620.058	39.92
620.181	21.92
620.303	18.92
620.425	26.92
620.547	16.92
620.669	15.92
620.791	23.92
620.913	26.92
621.036	4.92
621.158	12.92
621.28	23.92
621.402	9.92
621.524	24.92
621.646	9.92
621.768	21.92
621.891	8.92
622.013	19.92
622.135	11.92
622.257	23.92
622.379	16.92
622.501	28.92
622.623	33.92
622.745	28.92
622.868	15.92
622.99	11.92
623.112	32.92
623.234	21.92
623.356	30.92
623.478	22.92
623.6	38.92
623.722	20.92
623.845	26.92
623.967	32.92
624.089	30.92
624.211	12.92
624.333	18.92
624.455	26.92
624.577	15.92
624.699	15.92
624.822	31.92
624.944	23.92
625.066	24.92
625.188	18.92
625.31	26.92
625.432	27.92
625.554	20.92
625.676	43.92
625.799	34.92
625.921	27.92
626.043	17.92
626.165	11.92
626.287	1.92
626.409	19.92
626.531	26.92
626.653	33.92
626.775	17.92
626.898	34.92
627.02	43.92
627.142	38.92
627.264	24.92
627.386	11.92
627.508	46.92
627.63	16.92
627.752	49.92
627.874	16.92
627.997	34.92
628.119	23.92
628.241	18.92
628.363	24.92
628.485	27.92
628.607	25.92
628.729	35.92
628.851	18.92
628.973	25.92
629.096	13.92
629.218	27.92
629.34	37.92
629.462	16.92
629.584	12.92
629.706	33.92
629.828	30.92
629.95	19.92
630.072	31.92
630.195	19.92
630.317	34.92
630.439	10.92
630.561	27.92
630.683	7.92
630.805	24.92
630.927	32.92
631.049	7.92
631.171	8.92
631.293	45.92
631.416	34.92
631.538	12.92
631.66	6.92
631.782	27.92
631.904	31.92
632.026	11.92
632.148	19.92
632.27	1.92
632.392	34.92
632.514	27.92
632.637	28.92
632.759	26.92
632.881	33.92
633.003	7.92
633.125	10.92
633.247	28.92
633.369	3.92
633.491	27.92
633.613	34.92
633.735	12.92
633.858	7.92
633.98	25.92
634.102	5.92
634.224	3.92
634.346	20.92
634.468	25.92
634.59	23.92
634.712	17.92
634.834	29.92
634.956	8.92
635.078	7.92
635.201	7.92
635.323	23.92
635.445	14.92
635.567	2.92
635.689	10.92
635.811	11.92
635.933	14.92
636.055	19.92
636.177	20.92
636.299	28.92
636.421	2.92
636.544	3.92
636.666	23.92
636.788	20.92
636.91	30.92
637.032	10.92
637.154	19.92
637.276	52.92
637.398	32.92
637.52	20.92
637.642	5.92
637.764	18.92
637.887	-0.08
638.009	13.92
638.131	16.92
638.253	16.92
638.375	13.92
638.497	17.92
638.619	7.92
638.741	12.92
638.863	-7.08
638.985	2.92
639.107	27.92
639.23	21.92
639.352	29.92
639.474	10.92
639.596	14.92
639.718	21.92
639.84	17.92
639.962	17.92
640.084	26.92
640.206	23.92
640.328	-2.08
640.45	22.92
640.573	23.92
640.695	1.92
640.817	10.92
640.939	16.92
641.061	9.92
641.183	7.92
641.305	11.92
641.427	13.92
641.549	18.92
641.671	15.92
641.793	3.92
641.915	25.92
642.038	16.92
642.16	26.92
642.282	14.92
642.404	7.92
642.526	28.92
642.648	27.92
642.77	5.92
642.892	16.92
643.014	25.92
643.136	16.92
643.258	26.92
643.381	32.92
643.503	21.92
643.625	17.92
643.747	-8.08
643.869	10.92
643.991	25.92
644.113	24.92
644.235	9.92
644.357	16.92
644.479	29.92
644.601	13.92
644.723	18.92
644.846	25.92
644.968	20.92
645.09	9.92
645.212	7.92
645.334	23.92
645.456	21.92
645.578	23.92
645.7	33.92
645.822	32.92
645.944	25.92
646.066	13.92
646.188	8.92
646.311	34.92
646.433	13.92
646.555	42.92
646.677	31.92
646.799	32.92
646.921	21.92
647.043	55.92
647.165	15.92
647.287	3.92
647.409	-1.08
647.531	23.92
647.654	2.92
647.776	48.92
647.898	19.92
648.02	23.92
648.142	19.92
648.264	18.92
648.386	13.92
648.508	-8.08
648.63	26.92
648.752	21.92
648.874	10.92
648.997	18.92
649.119	12.92
649.241	3.92
649.363	34.92
649.485	25.92
649.607	27.92
649.729	20.92
649.851	5.92
649.973	13.92
650.095	24.92
650.217	-5.08
650.34	4.92
650.462	21.92
650.584	29.92
650.706	24.92
650.828	27.92
650.95	6.92
651.072	28.92
651.194	11.92
651.316	16.92
651.438	19.92
651.56	15.92
651.683	-3.08
651.805	10.92
651.927	4.92
652.049	17.92
652.171	20.92
652.293	3.92
652.415	1.92
652.537	7.92
652.659	-1.08
652.781	9.92
652.903	11.92
653.026	23.92
653.148	11.92
653.27	16.92
653.392	15.92
653.514	24.92
653.636	3.92
653.758	15.92
653.88	-0.08
654.002	-4.08
654.124	1.92
654.247	3.92
654.369	9.92
654.491	26.92
654.613	23.92
654.735	9.92
654.857	28.92
654.979	13.92
655.101	18.92
655.223	39.92
655.345	36.92
655.468	28.92
655.59	8.92
655.712	17.92
655.834	11.92
655.956	17.92
656.078	23.92
656.2	7.92
656.322	12.92
656.444	-0.08
656.566	14.92
656.689	16.92
656.811	12.92
656.933	33.92
657.055	22.92
657.177	19.92
657.299	16.92
657.421	12.92
657.543	7.92
657.665	14.92
657.787	9.92
657.91	8.92
658.032	9.92
658.154	23.92
658.276	22.92
658.398	7.92
658.52	9.92
658.642	6.92
658.764	19.92
658.886	1.92
659.009	12.92
659.131	30.92
659.253	12.92
659.375	33.92
659.497	24.92
659.619	24.92
659.741	5.92
659.863	20.92
659.985	0.92
660.108	22.92
660.23	12.92
660.352	5.92
660.474	37.92
660.596	14.92
660.718	19.92
660.84	4.92
660.962	14.92
661.084	11.92
661.207	24.92
661.329	26.92
661.451	19.92
661.573	-3.08
661.695	32.92
661.817	19.92
661.939	52.92
662.061	30.92
662.184	16.92
662.306	21.92
662.428	17.92
662.55	27.92
662.672	7.92
662.794	-0.08
662.916	22.92
663.038	-1.08
663.161	35.92
663.283	23.92
663.405	25.92
663.527	12.92
663.649	27.92
663.771	16.92
663.893	16.92
664.015	19.92
664.138	8.92
664.26	20.92
664.382	4.92
664.504	-8.08
664.626	21.92
664.748	-0.08
664.87	-4.08
664.992	25.92
665.115	14.92
665.237	19.92
665.359	3.92
665.481	18.92
665.603	18.92
665.725	-6.08
665.847	7.92
665.97	10.92
666.092	8.92
666.214	38.92
666.336	-2.08
666.458	12.92
666.58	11.92
666.702	17.92
666.825	18.92
666.947	-0.08
667.069	7.92
667.191	16.92
667.313	22.92
667.435	4.92
667.557	-4.08
667.68	7.92
667.802	19.92
667.924	9.92
668.046	24.92
668.168	14.92
668.29	18.92
668.412	4.92
668.535	17.92
668.657	7.92
668.779	9.92
668.901	11.92
669.023	12.92
669.145	9.92
669.267	22.92
669.39	28.92
669.512	5.92
669.634	17.92
669.756	11.92
669.878	32.92
670	16.92
670.123	25.92
670.245	33.92
670.367	10.92
670.489	33.92
670.611	19.92
670.733	-5.08
670.856	12.92
670.978	16.92
671.1	15.92
671.222	21.92
671.344	18.92
671.466	3.92
671.589	-7.08
671.711	2.92
671.833	4.92
671.955	2.92
672.077	-2.08
672.199	27.92
672.322	21.92
672.444	25.92
672.566	29.92
672.688	0.92
672.81	21.92
672.932	11.92
673.055	13.92
673.177	1.92
673.299	17.92
673.421	12.92
673.543	11.92
673.665	23.92
673.788	40.92
673.91	0.92
674.032	-5.08
674.154	-2.08
674.276	18.92
674.399	6.92
674.521	6.92
674.643	7.92
674.765	13.92
674.887	18.92
675.009	-4.08
675.132	0.92
675.254	-7.08
675.376	12.92
675.498	33.92
675.62	23.92
675.743	10.92
675.865	35.92
675.987	12.92
676.109	9.92
676.231	12.92
676.354	13.92
676.476	3.92
676.598	7.92
676.72	0.92
676.842	12.92
676.965	-1.08
677.087	20.92
677.209	13.92
677.331	22.92
677.453	7.92
677.576	7.92
677.698	15.92
677.82	5.92
677.942	4.92
678.064	12.92
678.187	24.92
678.309	6.92
678.431	4.92
678.553	1.92
678.675	24.92
678.798	24.92
678.92	4.92
679.042	18.92
679.164	0.92
679.286	4.92
679.409	8.92
679.531	-7.08
679.653	29.92
679.775	-3.08
679.898	1.92
680.02	0.92
680.142	-12.08
680.264	3.92
680.386	3.92
680.509	8.92
680.631	3.92
680.753	8.92
680.875	8.92
680.998	21.92
681.12	5.92
681.242	-0.08
681.364	-3.08
681.486	17.92
681.609	12.92
681.731	-1.08
681.853	11.92
681.975	-3.08
682.098	4.92
682.22	27.92
682.342	21.92
682.464	23.92
682.587	5.92
682.709	-2.08
682.831	4.92
682.953	-4.08
683.076	-2.08
683.198	18.92
683.32	19.92
683.442	10.92
683.565	15.92
683.687	12.92
683.809	26.92
683.931	11.92
684.054	20.92
684.176	9.92
684.298	7.92
684.42	-12.08
684.543	-4.08
684.665	7.92
684.787	0.92
684.909	12.92
685.032	24.92
685.154	7.92
685.276	16.92
685.398	16.92
685.521	-1.08
685.643	18.92
685.765	9.92
685.887	11.92
686.01	13.92
686.132	19.92
686.254	18.92
686.377	20.92
686.499	12.92
686.621	21.92
686.743	12.92
686.866	15.92
686.988	37.92
687.11	38.92
687.232	26.92
687.355	-0.08
687.477	9.92
687.599	11.92
687.722	18.92
687.844	11.92
687.966	10.92
688.088	19.92
688.211	20.92
688.333	13.92
688.455	17.92
688.578	13.92
688.7	25.92
688.822	13.92
688.944	1.92
689.067	61.92
689.189	11.92
689.311	-15.08
689.434	4.92
689.556	7.92
689.678	16.92
689.801	5.92
689.923	20.92
690.045	25.92
690.167	46.92
690.29	19.92
690.412	24.92
690.534	27.92
690.657	20.92
690.779	11.92
690.901	30.92
691.024	12.92
691.146	12.92
691.268	-6.08
691.391	26.92
691.513	28.92
691.635	21.92
691.758	38.92
691.88	39.92
692.002	14.92
692.125	17.92
692.247	14.92
692.369	9.92
692.492	16.92
692.614	25.92
692.736	-4.08
692.859	8.92
692.981	12.92
693.103	28.92
693.226	12.92
693.348	20.92
693.47	6.92
693.593	30.92
693.715	46.92
693.837	24.92
693.96	21.92
694.082	4.92
694.204	31.92
694.327	9.92
694.449	8.92
694.571	13.92
694.694	12.92
694.816	15.92
694.938	7.92
695.061	4.92
695.183	24.92
695.305	21.92
695.428	15.92
695.55	5.92
695.672	-7.08
695.795	20.92
695.917	34.92
696.04	13.92
696.162	10.92
696.284	3.92
696.407	1.92
696.529	20.92
696.651	24.92
696.774	-1.08
696.896	21.92
697.019	20.92
697.141	24.92
697.263	1.92
697.386	-2.08
697.508	13.92
697.63	30.92
697.753	18.92
697.875	9.92
697.998	15.92
698.12	15.92
698.242	14.92
698.365	37.92
698.487	-2.08
698.61	9.92
698.732	31.92
698.854	24.92
698.977	9.92
699.099	-1.08
699.221	7.92
699.344	2.92
699.466	11.92
699.589	17.92
699.711	3.92
699.834	16.92
699.956	24.92
700.078	17.92
700.201	-2.08
700.323	11.92
700.446	14.92
700.568	11.92
700.69	38.92
700.813	35.92
700.935	14.92
701.058	15.92
701.18	0.92
701.302	8.92
701.425	15.92
701.547	22.92
701.67	4.92
701.792	7.92
701.915	4.92
702.037	5.92
702.159	1.92
702.282	19.92
702.404	4.92
702.527	28.92
702.649	32.92
702.772	21.92
702.894	13.92
703.017	17.92
703.139	13.92
703.261	26.92
703.384	17.92
703.506	-2.08
703.629	7.92
703.751	8.92
703.874	16.92
703.996	13.92
704.119	21.92
704.241	30.92
704.364	17.92
704.486	5.92
704.608	15.92
704.731	14.92
704.853	16.92
704.976	-3.08
705.098	22.92
705.221	3.92
705.343	1.92
705.466	19.92
705.588	11.92
705.711	7.92
705.833	11.92
705.956	17.92
706.078	27.92
706.201	9.92
706.323	8.92
706.446	-0.08
