Data from LowRes_mercury_15_20_11_07_2024_HR4C61881__32__15-23-35-471.txt Node

Date: Thu Nov 07 15:23:35 EST 2024
User: crc00042
Spectrometer: HR4C6188
Trigger mode: 4
Integration Time (sec): 1.000000E-1
Scans to average: 1
Electric dark correction enabled: true
Nonlinearity correction enabled: false
Boxcar width: 0
XAxis mode: Wavelengths
Number of Pixels in Spectrum: 3648
>>>>>Begin Spectral Data<<<<<
245.66	-41.92
245.797	-41.92
245.934	-41.92
246.071	-62.92
246.208	12.08
246.344	12.08
246.481	-6.92
246.618	-16.92
246.755	15.08
246.892	-10.92
247.029	-7.92
247.165	-21.92
247.302	20.08
247.439	12.08
247.576	-6.92
247.713	-4.92
247.849	21.08
247.986	-3.92
248.123	10.08
248.26	5.08
248.396	11.08
248.533	4.08
248.67	-2.92
248.806	4.08
248.943	-14.92
249.08	4.08
249.216	16.08
249.353	-19.92
249.49	-9.92
249.626	6.08
249.763	-9.92
249.9	-14.92
250.036	6.08
250.173	25.08
250.309	1.08
250.446	-3.92
250.582	-24.92
250.719	-17.92
250.856	0.08
250.992	6.08
251.129	-3.92
251.265	-9.92
251.402	10.08
251.538	14.08
251.675	9.08
251.811	9.08
251.948	22.08
252.084	20.08
252.221	-7.92
252.357	5.08
252.493	27.08
252.63	3.08
252.766	18.08
252.903	12.08
253.039	-2.92
253.175	-10.92
253.312	28.08
253.448	6.08
253.585	-4.92
253.721	5.08
253.857	-2.92
253.994	-8.92
254.13	-14.92
254.266	-2.92
254.403	-0.92
254.539	-6.92
254.675	21.08
254.811	-3.92
254.948	6.08
255.084	-23.92
255.22	-7.92
255.356	-6.92
255.493	4.08
255.629	8.08
255.765	-1.92
255.901	10.08
256.037	-3.92
256.174	16.08
256.31	-16.92
256.446	-14.92
256.582	-7.92
256.718	-7.92
256.854	12.08
256.991	10.08
257.127	20.08
257.263	-6.92
257.399	1.08
257.535	4.08
257.671	10.08
257.807	-7.92
257.943	-0.92
258.079	-10.92
258.215	-14.92
258.351	7.08
258.487	-0.92
258.623	20.08
258.759	4.08
258.895	-4.92
259.031	-4.92
259.167	-0.92
259.303	6.08
259.439	-13.92
259.575	-2.92
259.711	5.08
259.847	-13.92
259.983	-2.92
260.119	5.08
260.255	5.08
260.391	-5.92
260.527	7.08
260.663	14.08
260.799	-4.92
260.934	2.08
261.07	-2.92
261.206	-5.92
261.342	-23.92
261.478	19.08
261.614	15.08
261.749	13.08
261.885	-5.92
262.021	-24.92
262.157	-5.92
262.293	1.08
262.428	-4.92
262.564	12.08
262.7	1.08
262.836	-7.92
262.971	25.08
263.107	21.08
263.243	38.08
263.378	28.08
263.514	-21.92
263.65	-1.92
263.785	-12.92
263.921	-8.92
264.057	1.08
264.192	-4.92
264.328	9.08
264.464	-13.92
264.599	9.08
264.735	19.08
264.871	5.08
265.006	22.08
265.142	4.08
265.277	-0.92
265.413	-2.92
265.548	16.08
265.684	17.08
265.819	6.08
265.955	-11.92
266.091	2.08
266.226	1.08
266.362	-7.92
266.497	16.08
266.633	13.08
266.768	-4.92
266.903	-4.92
267.039	25.08
267.174	16.08
267.31	-7.92
267.445	-8.92
267.581	-25.92
267.716	9.08
267.851	3.08
267.987	-0.92
268.122	13.08
268.258	-23.92
268.393	-15.92
268.528	13.08
268.664	-3.92
268.799	1.08
268.934	12.08
269.07	19.08
269.205	9.08
269.34	33.08
269.476	1.08
269.611	-8.92
269.746	21.08
269.881	1.08
270.017	24.08
270.152	7.08
270.287	3.08
270.422	-0.92
270.558	-16.92
270.693	5.08
270.828	-6.92
270.963	-0.92
271.098	17.08
271.234	4.08
271.369	6.08
271.504	-15.92
271.639	-17.92
271.774	0.08
271.909	-1.92
272.045	-24.92
272.18	-9.92
272.315	8.08
272.45	22.08
272.585	-7.92
272.72	-1.92
272.855	3.08
272.99	15.08
273.125	4.08
273.26	2.08
273.395	-11.92
273.53	14.08
273.665	22.08
273.8	-0.92
273.935	7.08
274.07	2.08
274.205	0.08
274.34	-4.92
274.475	7.08
274.61	9.08
274.745	-8.92
274.88	22.08
275.015	-27.92
275.15	-5.92
275.285	24.08
275.42	32.08
275.555	23.08
275.69	15.08
275.825	-2.92
275.959	9.08
276.094	-10.92
276.229	-7.92
276.364	1.08
276.499	1.08
276.634	1.08
276.768	-23.92
276.903	-10.92
277.038	12.08
277.173	16.08
277.308	14.08
277.442	0.08
277.577	-32.92
277.712	-1.92
277.847	6.08
277.981	6.08
278.116	-0.92
278.251	1.08
278.386	6.08
278.52	20.08
278.655	-2.92
278.79	5.08
278.924	1.08
279.059	11.08
279.194	-2.92
279.328	23.08
279.463	12.08
279.598	14.08
279.732	11.08
279.867	11.08
280.001	14.08
280.136	7.08
280.271	-10.92
280.405	7.08
280.54	-17.92
280.674	-16.92
280.809	16.08
280.943	12.08
281.078	-7.92
281.213	5.08
281.347	22.08
281.482	11.08
281.616	4.08
281.751	-12.92
281.885	-11.92
282.02	-9.92
282.154	12.08
282.288	-3.92
282.423	13.08
282.557	-14.92
282.692	-10.92
282.826	-2.92
282.961	18.08
283.095	8.08
283.229	-15.92
283.364	-2.92
283.498	-6.92
283.633	18.08
283.767	15.08
283.901	-4.92
284.036	12.08
284.17	9.08
284.304	0.08
284.439	-12.92
284.573	-7.92
284.707	23.08
284.842	-0.92
284.976	-6.92
285.11	-12.92
285.244	17.08
285.379	46.08
285.513	-7.92
285.647	-4.92
285.781	-7.92
285.916	33.08
286.05	-6.92
286.184	12.08
286.318	4.08
286.453	6.08
286.587	7.08
286.721	4.08
286.855	-5.92
286.989	9.08
287.123	-19.92
287.258	-8.92
287.392	0.08
287.526	23.08
287.66	-3.92
287.794	9.08
287.928	4.08
288.062	20.08
288.196	-0.92
288.33	0.08
288.464	27.08
288.598	27.08
288.733	10.08
288.867	20.08
289.001	8.08
289.135	7.08
289.269	-3.92
289.403	-10.92
289.537	20.08
289.671	24.08
289.805	-15.92
289.939	-1.92
290.073	4.08
290.207	26.08
290.34	5.08
290.474	5.08
290.608	11.08
290.742	10.08
290.876	3.08
291.01	-7.92
291.144	3.08
291.278	14.08
291.412	7.08
291.546	-2.92
291.679	-18.92
291.813	0.08
291.947	2.08
292.081	-2.92
292.215	-7.92
292.349	16.08
292.482	7.08
292.616	3.08
292.75	-15.92
292.884	7.08
293.018	9.08
293.151	-2.92
293.285	7.08
293.419	-1.92
293.553	9.08
293.686	-8.92
293.82	0.08
293.954	19.08
294.088	21.08
294.221	8.08
294.355	-7.92
294.489	8.08
294.622	1.08
294.756	6.08
294.89	11.08
295.023	-10.92
295.157	-2.92
295.291	20.08
295.424	17.08
295.558	8.08
295.691	10.08
295.825	21.08
295.959	12.08
296.092	-3.92
296.226	-6.92
296.359	-12.92
296.493	5.08
296.627	1.08
296.76	25.08
296.894	30.08
297.027	11.08
297.161	6.08
297.294	-24.92
297.428	-12.92
297.561	17.08
297.695	4.08
297.828	-12.92
297.962	-3.92
298.095	-16.92
298.229	10.08
298.362	-5.92
298.495	11.08
298.629	-6.92
298.762	-1.92
298.896	11.08
299.029	-14.92
299.162	7.08
299.296	1.08
299.429	-6.92
299.563	-2.92
299.696	4.08
299.829	22.08
299.963	10.08
300.096	16.08
300.229	4.08
300.363	15.08
300.496	3.08
300.629	-16.92
300.763	-7.92
300.896	-11.92
301.029	13.08
301.162	4.08
301.296	-7.92
301.429	15.08
301.562	-24.92
301.695	9.08
301.829	8.08
301.962	19.08
302.095	19.08
302.228	-19.92
302.362	0.08
302.495	-12.92
302.628	8.08
302.761	-4.92
302.894	8.08
303.027	11.08
303.161	-7.92
303.294	-0.92
303.427	17.08
303.56	0.08
303.693	-21.92
303.826	-9.92
303.959	-3.92
304.092	12.08
304.225	-11.92
304.359	-6.92
304.492	-3.92
304.625	-19.92
304.758	9.08
304.891	-12.92
305.024	2.08
305.157	3.08
305.29	-9.92
305.423	1.08
305.556	12.08
305.689	13.08
305.822	3.08
305.955	10.08
306.088	-4.92
306.221	0.08
306.354	0.08
306.487	-3.92
306.62	-20.92
306.752	6.08
306.885	6.08
307.018	0.08
307.151	15.08
307.284	0.08
307.417	-19.92
307.55	6.08
307.683	7.08
307.816	24.08
307.948	11.08
308.081	4.08
308.214	12.08
308.347	14.08
308.48	12.08
308.613	-13.92
308.745	0.08
308.878	-2.92
309.011	10.08
309.144	14.08
309.277	9.08
309.409	-6.92
309.542	-10.92
309.675	24.08
309.808	13.08
309.94	29.08
310.073	-15.92
310.206	1.08
310.339	13.08
310.471	-10.92
310.604	21.08
310.737	-0.92
310.869	-6.92
311.002	-7.92
311.135	-13.92
311.267	4.08
311.4	-8.92
311.533	11.08
311.665	-7.92
311.798	4.08
311.93	15.08
312.063	28.08
312.196	56.08
312.328	87.08
312.461	40.08
312.593	35.08
312.726	48.08
312.859	112.08
312.991	168.08
313.124	38.08
313.256	26.08
313.389	0.08
313.521	-11.92
313.654	0.08
313.786	-2.92
313.919	9.08
314.051	21.08
314.184	23.08
314.316	-0.92
314.449	-11.92
314.581	1.08
314.714	1.08
314.846	11.08
314.978	0.08
315.111	9.08
315.243	6.08
315.376	0.08
315.508	-0.92
315.641	4.08
315.773	22.08
315.905	-2.92
316.038	9.08
316.17	-7.92
316.302	4.08
316.435	5.08
316.567	11.08
316.699	31.08
316.832	2.08
316.964	4.08
317.096	-1.92
317.229	12.08
317.361	-11.92
317.493	7.08
317.625	8.08
317.758	16.08
317.89	24.08
318.022	-0.92
318.155	-14.92
318.287	-4.92
318.419	-3.92
318.551	2.08
318.683	11.08
318.816	-3.92
318.948	-7.92
319.08	8.08
319.212	-7.92
319.344	10.08
319.477	7.08
319.609	4.08
319.741	-0.92
319.873	-7.92
320.005	17.08
320.137	-0.92
320.269	12.08
320.401	-1.92
320.534	-8.92
320.666	-27.92
320.798	-4.92
320.93	5.08
321.062	-19.92
321.194	11.08
321.326	17.08
321.458	-5.92
321.59	1.08
321.722	-5.92
321.854	11.08
321.986	16.08
322.118	15.08
322.25	-4.92
322.382	5.08
322.514	4.08
322.646	3.08
322.778	11.08
322.91	5.08
323.042	20.08
323.174	29.08
323.306	-0.92
323.438	-27.92
323.57	-0.92
323.702	6.08
323.834	-6.92
323.966	-21.92
324.097	-5.92
324.229	15.08
324.361	5.08
324.493	1.08
324.625	2.08
324.757	8.08
324.889	-10.92
325.021	18.08
325.152	22.08
325.284	15.08
325.416	8.08
325.548	24.08
325.68	1.08
325.811	20.08
325.943	15.08
326.075	-21.92
326.207	16.08
326.339	19.08
326.47	-3.92
326.602	2.08
326.734	13.08
326.866	30.08
326.997	-8.92
327.129	-13.92
327.261	-8.92
327.392	8.08
327.524	11.08
327.656	7.08
327.787	32.08
327.919	19.08
328.051	3.08
328.182	1.08
328.314	26.08
328.446	-0.92
328.577	13.08
328.709	12.08
328.841	1.08
328.972	-12.92
329.104	4.08
329.235	9.08
329.367	-11.92
329.499	-7.92
329.63	9.08
329.762	9.08
329.893	23.08
330.025	20.08
330.156	-6.92
330.288	15.08
330.419	24.08
330.551	-5.92
330.683	8.08
330.814	-5.92
330.946	22.08
331.077	-9.92
331.208	1.08
331.34	10.08
331.471	-3.92
331.603	-6.92
331.734	-15.92
331.866	-1.92
331.997	-1.92
332.129	8.08
332.26	14.08
332.392	12.08
332.523	-0.92
332.654	-6.92
332.786	18.08
332.917	6.08
333.048	23.08
333.18	23.08
333.311	10.08
333.443	5.08
333.574	7.08
333.705	44.08
333.837	29.08
333.968	113.08
334.099	236.08
334.231	203.08
334.362	54.08
334.493	32.08
334.624	27.08
334.756	8.08
334.887	20.08
335.018	5.08
335.15	25.08
335.281	-3.92
335.412	39.08
335.543	12.08
335.675	2.08
335.806	8.08
335.937	11.08
336.068	19.08
336.199	29.08
336.331	-1.92
336.462	-0.92
336.593	16.08
336.724	-4.92
336.855	9.08
336.986	10.08
337.118	11.08
337.249	10.08
337.38	22.08
337.511	20.08
337.642	27.08
337.773	14.08
337.904	8.08
338.035	15.08
338.166	8.08
338.298	9.08
338.429	-12.92
338.56	18.08
338.691	29.08
338.822	6.08
338.953	13.08
339.084	23.08
339.215	17.08
339.346	8.08
339.477	20.08
339.608	24.08
339.739	-0.92
339.87	1.08
340.001	6.08
340.132	18.08
340.263	-5.92
340.394	11.08
340.525	5.08
340.656	-5.92
340.787	6.08
340.918	16.08
341.049	29.08
341.179	7.08
341.31	0.08
341.441	12.08
341.572	32.08
341.703	18.08
341.834	5.08
341.965	13.08
342.096	-11.92
342.227	10.08
342.357	6.08
342.488	16.08
342.619	11.08
342.75	9.08
342.881	22.08
343.012	28.08
343.142	37.08
343.273	23.08
343.404	17.08
343.535	56.08
343.666	37.08
343.796	23.08
343.927	25.08
344.058	20.08
344.189	23.08
344.319	15.08
344.45	8.08
344.581	7.08
344.712	32.08
344.842	34.08
344.973	26.08
345.104	12.08
345.234	10.08
345.365	7.08
345.496	21.08
345.626	28.08
345.757	30.08
345.888	19.08
346.018	25.08
346.149	11.08
346.28	35.08
346.41	14.08
346.541	43.08
346.672	15.08
346.802	30.08
346.933	33.08
347.063	26.08
347.194	28.08
347.325	29.08
347.455	64.08
347.586	27.08
347.716	23.08
347.847	20.08
347.977	41.08
348.108	40.08
348.238	36.08
348.369	37.08
348.499	49.08
348.63	50.08
348.76	63.08
348.891	61.08
349.021	55.08
349.152	59.08
349.282	44.08
349.413	48.08
349.543	59.08
349.674	23.08
349.804	30.08
349.935	24.08
350.065	22.08
350.196	19.08
350.326	31.08
350.456	24.08
350.587	14.08
350.717	13.08
350.848	36.08
350.978	39.08
351.108	4.08
351.239	29.08
351.369	9.08
351.499	16.08
351.63	24.08
351.76	29.08
351.89	28.08
352.021	39.08
352.151	27.08
352.281	10.08
352.412	26.08
352.542	11.08
352.672	16.08
352.803	21.08
352.933	32.08
353.063	16.08
353.193	21.08
353.324	8.08
353.454	9.08
353.584	25.08
353.714	20.08
353.845	26.08
353.975	17.08
354.105	17.08
354.235	17.08
354.365	8.08
354.496	26.08
354.626	30.08
354.756	42.08
354.886	5.08
355.016	36.08
355.146	30.08
355.277	32.08
355.407	21.08
355.537	13.08
355.667	35.08
355.797	19.08
355.927	8.08
356.057	26.08
356.187	21.08
356.318	15.08
356.448	-0.92
356.578	29.08
356.708	35.08
356.838	42.08
356.968	31.08
357.098	35.08
357.228	31.08
357.358	11.08
357.488	22.08
357.618	57.08
357.748	47.08
357.878	23.08
358.008	19.08
358.138	31.08
358.268	24.08
358.398	20.08
358.528	14.08
358.658	33.08
358.788	16.08
358.918	27.08
359.048	12.08
359.178	19.08
359.308	25.08
359.438	56.08
359.568	45.08
359.698	27.08
359.827	34.08
359.957	25.08
360.087	33.08
360.217	15.08
360.347	20.08
360.477	46.08
360.607	-3.92
360.737	32.08
360.866	32.08
360.996	12.08
361.126	24.08
361.256	41.08
361.386	37.08
361.516	37.08
361.645	23.08
361.775	38.08
361.905	17.08
362.035	36.08
362.165	19.08
362.294	23.08
362.424	21.08
362.554	35.08
362.684	23.08
362.813	43.08
362.943	52.08
363.073	57.08
363.203	53.08
363.332	72.08
363.462	83.08
363.592	102.08
363.721	122.08
363.851	146.08
363.981	213.08
364.111	245.08
364.24	318.08
364.37	475.08
364.5	891.08
364.629	1807.08
364.759	3853.08
364.888	6271.08
365.018	9434.08
365.148	14813.08
365.277	13022.08
365.407	4790.08
365.537	3135.08
365.666	4086.08
365.796	1840.08
365.925	795.08
366.055	767.08
366.184	1051.08
366.314	1424.08
366.444	2501.08
366.573	2114.08
366.703	669.08
366.832	229.08
366.962	133.08
367.091	110.08
367.221	94.08
367.35	47.08
367.48	84.08
367.609	68.08
367.739	60.08
367.868	35.08
367.998	34.08
368.127	48.08
368.257	64.08
368.386	53.08
368.516	40.08
368.645	45.08
368.775	43.08
368.904	35.08
369.033	28.08
369.163	34.08
369.292	40.08
369.422	27.08
369.551	30.08
369.68	44.08
369.81	38.08
369.939	12.08
370.069	49.08
370.198	39.08
370.327	33.08
370.457	31.08
370.586	30.08
370.715	29.08
370.845	43.08
370.974	29.08
371.103	44.08
371.233	48.08
371.362	58.08
371.491	23.08
371.621	52.08
371.75	53.08
371.879	38.08
372.008	49.08
372.138	62.08
372.267	59.08
372.396	44.08
372.525	41.08
372.655	25.08
372.784	26.08
372.913	21.08
373.042	40.08
373.172	34.08
373.301	9.08
373.43	14.08
373.559	10.08
373.688	21.08
373.818	32.08
373.947	21.08
374.076	23.08
374.205	25.08
374.334	23.08
374.463	8.08
374.593	7.08
374.722	39.08
374.851	27.08
374.98	21.08
375.109	13.08
375.238	26.08
375.367	36.08
375.496	8.08
375.625	-6.92
375.755	18.08
375.884	22.08
376.013	41.08
376.142	10.08
376.271	12.08
376.4	15.08
376.529	28.08
376.658	34.08
376.787	13.08
376.916	36.08
377.045	22.08
377.174	17.08
377.303	24.08
377.432	37.08
377.561	23.08
377.69	17.08
377.819	32.08
377.948	30.08
378.077	-1.92
378.206	1.08
378.335	13.08
378.464	5.08
378.593	27.08
378.722	-6.92
378.851	7.08
378.98	34.08
379.108	9.08
379.237	4.08
379.366	13.08
379.495	14.08
379.624	28.08
379.753	19.08
379.882	11.08
380.011	7.08
380.14	4.08
380.268	1.08
380.397	4.08
380.526	29.08
380.655	12.08
380.784	-2.92
380.913	21.08
381.041	21.08
381.17	13.08
381.299	21.08
381.428	17.08
381.557	25.08
381.685	20.08
381.814	24.08
381.943	21.08
382.072	9.08
382.2	5.08
382.329	19.08
382.458	26.08
382.587	31.08
382.715	24.08
382.844	24.08
382.973	41.08
383.102	18.08
383.23	22.08
383.359	2.08
383.488	19.08
383.616	18.08
383.745	9.08
383.874	25.08
384.003	27.08
384.131	24.08
384.26	24.08
384.389	26.08
384.517	12.08
384.646	1.08
384.774	13.08
384.903	25.08
385.032	46.08
385.16	13.08
385.289	25.08
385.418	20.08
385.546	17.08
385.675	22.08
385.803	23.08
385.932	25.08
386.06	12.08
386.189	19.08
386.318	3.08
386.446	18.08
386.575	32.08
386.703	25.08
386.832	13.08
386.96	17.08
387.089	32.08
387.217	10.08
387.346	3.08
387.474	4.08
387.603	26.08
387.731	14.08
387.86	44.08
387.988	22.08
388.117	25.08
388.245	24.08
388.374	2.08
388.502	26.08
388.631	4.08
388.759	-7.92
388.888	14.08
389.016	22.08
389.144	30.08
389.273	3.08
389.401	39.08
389.53	5.08
389.658	33.08
389.786	25.08
389.915	21.08
390.043	15.08
390.172	22.08
390.3	48.08
390.428	58.08
390.557	28.08
390.685	36.08
390.813	62.08
390.942	37.08
391.07	13.08
391.198	7.08
391.327	11.08
391.455	5.08
391.583	39.08
391.712	42.08
391.84	23.08
391.968	9.08
392.096	24.08
392.225	13.08
392.353	13.08
392.481	20.08
392.609	28.08
392.738	10.08
392.866	31.08
392.994	30.08
393.122	49.08
393.251	18.08
393.379	13.08
393.507	9.08
393.635	37.08
393.764	22.08
393.892	35.08
394.02	32.08
394.148	7.08
394.276	19.08
394.404	35.08
394.533	22.08
394.661	15.08
394.789	34.08
394.917	41.08
395.045	13.08
395.173	11.08
395.302	0.08
395.43	21.08
395.558	32.08
395.686	25.08
395.814	37.08
395.942	17.08
396.07	29.08
396.198	49.08
396.326	38.08
396.454	41.08
396.582	51.08
396.711	34.08
396.839	43.08
396.967	30.08
397.095	28.08
397.223	44.08
397.351	60.08
397.479	70.08
397.607	36.08
397.735	36.08
397.863	59.08
397.991	51.08
398.119	40.08
398.247	45.08
398.375	60.08
398.503	56.08
398.631	60.08
398.759	67.08
398.887	45.08
399.015	44.08
399.143	54.08
399.271	51.08
399.399	57.08
399.526	62.08
399.654	77.08
399.782	65.08
399.91	96.08
400.038	92.08
400.166	88.08
400.294	91.08
400.422	78.08
400.55	108.08
400.678	114.08
400.805	117.08
400.933	124.08
401.061	117.08
401.189	123.08
401.317	157.08
401.445	119.08
401.573	71.08
401.7	53.08
401.828	39.08
401.956	54.08
402.084	37.08
402.212	27.08
402.34	33.08
402.467	39.08
402.595	34.08
402.723	51.08
402.851	64.08
402.978	58.08
403.106	78.08
403.234	81.08
403.362	105.08
403.489	141.08
403.617	160.08
403.745	191.08
403.873	269.08
404	564.08
404.128	1437.08
404.256	3922.08
404.384	5110.08
404.511	5477.08
404.639	7246.08
404.767	11470.08
404.894	14670.08
405.022	4984.08
405.15	1319.08
405.277	417.08
405.405	235.08
405.533	145.08
405.66	98.08
405.788	50.08
405.916	58.08
406.043	30.08
406.171	55.08
406.299	47.08
406.426	47.08
406.554	50.08
406.681	72.08
406.809	48.08
406.937	52.08
407.064	64.08
407.192	135.08
407.319	293.08
407.447	527.08
407.574	541.08
407.702	633.08
407.83	851.08
407.957	1610.08
408.085	949.08
408.212	280.08
408.34	108.08
408.467	59.08
408.595	30.08
408.722	43.08
408.85	51.08
408.977	25.08
409.105	29.08
409.232	39.08
409.36	32.08
409.487	33.08
409.615	37.08
409.742	33.08
409.87	18.08
409.997	61.08
410.125	28.08
410.252	57.08
410.379	35.08
410.507	42.08
410.634	22.08
410.762	32.08
410.889	32.08
411.017	23.08
411.144	30.08
411.271	15.08
411.399	27.08
411.526	25.08
411.653	48.08
411.781	52.08
411.908	28.08
412.036	13.08
412.163	49.08
412.29	41.08
412.418	20.08
412.545	20.08
412.672	6.08
412.8	48.08
412.927	47.08
413.054	54.08
413.182	33.08
413.309	32.08
413.436	33.08
413.564	14.08
413.691	27.08
413.818	42.08
413.945	18.08
414.073	27.08
414.2	32.08
414.327	27.08
414.454	36.08
414.582	31.08
414.709	5.08
414.836	33.08
414.963	23.08
415.091	56.08
415.218	24.08
415.345	35.08
415.472	38.08
415.6	38.08
415.727	35.08
415.854	24.08
415.981	14.08
416.108	21.08
416.236	23.08
416.363	27.08
416.49	25.08
416.617	33.08
416.744	39.08
416.871	42.08
416.998	31.08
417.126	29.08
417.253	23.08
417.38	33.08
417.507	24.08
417.634	47.08
417.761	43.08
417.888	28.08
418.015	24.08
418.143	43.08
418.27	61.08
418.397	32.08
418.524	38.08
418.651	12.08
418.778	51.08
418.905	59.08
419.032	39.08
419.159	35.08
419.286	55.08
419.413	52.08
419.54	39.08
419.667	41.08
419.794	19.08
419.921	44.08
420.048	49.08
420.175	67.08
420.302	52.08
420.429	67.08
420.556	44.08
420.683	41.08
420.81	61.08
420.937	70.08
421.064	73.08
421.191	56.08
421.318	53.08
421.445	70.08
421.572	66.08
421.699	51.08
421.826	43.08
421.953	37.08
422.08	30.08
422.207	10.08
422.334	5.08
422.461	16.08
422.588	6.08
422.714	35.08
422.841	38.08
422.968	32.08
423.095	25.08
423.222	6.08
423.349	43.08
423.476	26.08
423.603	17.08
423.729	6.08
423.856	15.08
423.983	24.08
424.11	12.08
424.237	8.08
424.364	42.08
424.491	25.08
424.617	1.08
424.744	19.08
424.871	20.08
424.998	-1.92
425.125	32.08
425.251	27.08
425.378	17.08
425.505	16.08
425.632	37.08
425.758	11.08
425.885	18.08
426.012	12.08
426.139	37.08
426.266	23.08
426.392	27.08
426.519	26.08
426.646	14.08
426.772	17.08
426.899	17.08
427.026	30.08
427.153	23.08
427.279	41.08
427.406	39.08
427.533	21.08
427.659	-1.92
427.786	11.08
427.913	22.08
428.039	29.08
428.166	23.08
428.293	31.08
428.419	40.08
428.546	19.08
428.673	13.08
428.799	15.08
428.926	20.08
429.053	37.08
429.179	36.08
429.306	27.08
429.433	32.08
429.559	30.08
429.686	13.08
429.812	27.08
429.939	11.08
430.066	33.08
430.192	9.08
430.319	9.08
430.445	12.08
430.572	30.08
430.699	7.08
430.825	30.08
430.952	30.08
431.078	30.08
431.205	27.08
431.331	24.08
431.458	37.08
431.584	39.08
431.711	12.08
431.837	32.08
431.964	18.08
432.09	32.08
432.217	20.08
432.343	25.08
432.47	31.08
432.596	18.08
432.723	27.08
432.849	26.08
432.976	31.08
433.102	49.08
433.229	30.08
433.355	49.08
433.482	74.08
433.608	111.08
433.735	105.08
433.861	109.08
433.987	161.08
434.114	182.08
434.24	185.08
434.367	203.08
434.493	207.08
434.62	296.08
434.746	378.08
434.872	595.08
434.999	825.08
435.125	1771.08
435.252	5516.08
435.378	13450.08
435.504	15232.08
435.631	15428.08
435.757	15682.08
435.883	15682.08
436.01	15682.08
436.136	15682.08
436.262	15682.08
436.389	3484.08
436.515	2274.08
436.641	810.08
436.768	615.08
436.894	385.08
437.02	411.08
437.147	323.08
437.273	311.08
437.399	217.08
437.526	225.08
437.652	178.08
437.778	220.08
437.904	160.08
438.031	154.08
438.157	151.08
438.283	148.08
438.409	104.08
438.536	94.08
438.662	126.08
438.788	117.08
438.914	104.08
439.041	112.08
439.167	129.08
439.293	112.08
439.419	98.08
439.546	84.08
439.672	85.08
439.798	100.08
439.924	95.08
440.05	74.08
440.177	59.08
440.303	71.08
440.429	78.08
440.555	79.08
440.681	57.08
440.807	81.08
440.934	47.08
441.06	65.08
441.186	54.08
441.312	46.08
441.438	53.08
441.564	76.08
441.69	69.08
441.816	40.08
441.943	54.08
442.069	60.08
442.195	43.08
442.321	65.08
442.447	53.08
442.573	29.08
442.699	30.08
442.825	33.08
442.951	32.08
443.077	54.08
443.203	64.08
443.33	56.08
443.456	43.08
443.582	52.08
443.708	51.08
443.834	42.08
443.96	48.08
444.086	48.08
444.212	46.08
444.338	53.08
444.464	45.08
444.59	51.08
444.716	35.08
444.842	27.08
444.968	27.08
445.094	25.08
445.22	40.08
445.346	16.08
445.472	37.08
445.598	35.08
445.724	34.08
445.85	27.08
445.976	38.08
446.102	36.08
446.228	41.08
446.354	45.08
446.48	29.08
446.605	25.08
446.731	35.08
446.857	39.08
446.983	40.08
447.109	39.08
447.235	41.08
447.361	29.08
447.487	31.08
447.613	60.08
447.739	31.08
447.865	31.08
447.99	16.08
448.116	49.08
448.242	42.08
448.368	36.08
448.494	20.08
448.62	41.08
448.746	34.08
448.872	10.08
448.997	13.08
449.123	19.08
449.249	48.08
449.375	34.08
449.501	14.08
449.627	10.08
449.752	52.08
449.878	24.08
450.004	21.08
450.13	12.08
450.256	24.08
450.381	38.08
450.507	23.08
450.633	23.08
450.759	34.08
450.884	19.08
451.01	34.08
451.136	34.08
451.262	40.08
451.388	32.08
451.513	20.08
451.639	25.08
451.765	34.08
451.89	26.08
452.016	27.08
452.142	24.08
452.268	21.08
452.393	34.08
452.519	28.08
452.645	35.08
452.771	46.08
452.896	28.08
453.022	7.08
453.148	38.08
453.273	34.08
453.399	19.08
453.525	30.08
453.65	13.08
453.776	39.08
453.902	39.08
454.027	51.08
454.153	40.08
454.279	29.08
454.404	11.08
454.53	44.08
454.656	42.08
454.781	35.08
454.907	26.08
455.032	19.08
455.158	39.08
455.284	30.08
455.409	33.08
455.535	26.08
455.66	25.08
455.786	16.08
455.912	28.08
456.037	17.08
456.163	33.08
456.288	35.08
456.414	5.08
456.539	10.08
456.665	20.08
456.791	13.08
456.916	21.08
457.042	23.08
457.167	8.08
457.293	29.08
457.418	34.08
457.544	11.08
457.669	13.08
457.795	21.08
457.92	20.08
458.046	26.08
458.171	38.08
458.297	26.08
458.422	29.08
458.548	18.08
458.673	37.08
458.799	38.08
458.924	13.08
459.05	27.08
459.175	24.08
459.301	28.08
459.426	26.08
459.552	21.08
459.677	5.08
459.803	26.08
459.928	28.08
460.053	33.08
460.179	31.08
460.304	35.08
460.43	4.08
460.555	1.08
460.681	7.08
460.806	11.08
460.931	20.08
461.057	17.08
461.182	35.08
461.308	40.08
461.433	21.08
461.558	16.08
461.684	21.08
461.809	30.08
461.934	19.08
462.06	46.08
462.185	21.08
462.311	11.08
462.436	33.08
462.561	20.08
462.687	25.08
462.812	26.08
462.937	9.08
463.063	20.08
463.188	16.08
463.313	39.08
463.439	23.08
463.564	21.08
463.689	15.08
463.814	12.08
463.94	34.08
464.065	16.08
464.19	33.08
464.316	31.08
464.441	6.08
464.566	4.08
464.692	15.08
464.817	26.08
464.942	11.08
465.067	19.08
465.193	17.08
465.318	30.08
465.443	37.08
465.568	25.08
465.694	49.08
465.819	33.08
465.944	32.08
466.069	6.08
466.194	29.08
466.32	45.08
466.445	29.08
466.57	25.08
466.695	35.08
466.82	40.08
466.946	33.08
467.071	46.08
467.196	37.08
467.321	45.08
467.446	25.08
467.572	27.08
467.697	16.08
467.822	33.08
467.947	47.08
468.072	26.08
468.197	20.08
468.323	17.08
468.448	36.08
468.573	24.08
468.698	23.08
468.823	32.08
468.948	25.08
469.073	38.08
469.198	43.08
469.324	38.08
469.449	32.08
469.574	52.08
469.699	53.08
469.824	45.08
469.949	29.08
470.074	27.08
470.199	54.08
470.324	49.08
470.449	51.08
470.574	24.08
470.7	22.08
470.825	46.08
470.95	44.08
471.075	38.08
471.2	38.08
471.325	39.08
471.45	45.08
471.575	36.08
471.7	36.08
471.825	37.08
471.95	38.08
472.075	36.08
472.2	29.08
472.325	37.08
472.45	29.08
472.575	33.08
472.7	23.08
472.825	52.08
472.95	37.08
473.075	36.08
473.2	31.08
473.325	32.08
473.45	48.08
473.575	23.08
473.7	44.08
473.825	27.08
473.95	29.08
474.075	21.08
474.2	10.08
474.325	4.08
474.45	38.08
474.574	21.08
474.699	36.08
474.824	22.08
474.949	22.08
475.074	23.08
475.199	20.08
475.324	19.08
475.449	19.08
475.574	32.08
475.699	17.08
475.824	12.08
475.949	20.08
476.073	17.08
476.198	-1.92
476.323	23.08
476.448	22.08
476.573	21.08
476.698	29.08
476.823	27.08
476.947	25.08
477.072	25.08
477.197	7.08
477.322	9.08
477.447	9.08
477.572	25.08
477.697	31.08
477.821	27.08
477.946	23.08
478.071	47.08
478.196	37.08
478.321	24.08
478.445	16.08
478.57	24.08
478.695	22.08
478.82	21.08
478.945	30.08
479.069	8.08
479.194	21.08
479.319	12.08
479.444	20.08
479.569	6.08
479.693	21.08
479.818	19.08
479.943	34.08
480.068	29.08
480.192	8.08
480.317	18.08
480.442	25.08
480.567	3.08
480.691	5.08
480.816	13.08
480.941	4.08
481.066	9.08
481.19	39.08
481.315	33.08
481.44	-0.92
481.564	-1.92
481.689	14.08
481.814	13.08
481.938	13.08
482.063	14.08
482.188	9.08
482.313	25.08
482.437	5.08
482.562	13.08
482.687	21.08
482.811	13.08
482.936	8.08
483.061	-2.92
483.185	8.08
483.31	18.08
483.435	12.08
483.559	1.08
483.684	28.08
483.808	29.08
483.933	25.08
484.058	26.08
484.182	13.08
484.307	15.08
484.432	29.08
484.556	18.08
484.681	26.08
484.805	23.08
484.93	17.08
485.055	25.08
485.179	50.08
485.304	17.08
485.428	27.08
485.553	23.08
485.678	22.08
485.802	16.08
485.927	26.08
486.051	41.08
486.176	26.08
486.3	14.08
486.425	23.08
486.549	22.08
486.674	28.08
486.799	22.08
486.923	18.08
487.048	11.08
487.172	13.08
487.297	6.08
487.421	26.08
487.546	28.08
487.67	28.08
487.795	11.08
487.919	13.08
488.044	31.08
488.168	31.08
488.293	26.08
488.417	22.08
488.542	8.08
488.666	21.08
488.791	35.08
488.915	20.08
489.04	14.08
489.164	37.08
489.289	34.08
489.413	9.08
489.538	29.08
489.662	21.08
489.786	25.08
489.911	34.08
490.035	23.08
490.16	22.08
490.284	22.08
490.409	6.08
490.533	19.08
490.658	48.08
490.782	21.08
490.906	59.08
491.031	117.08
491.155	141.08
491.28	145.08
491.404	175.08
491.528	263.08
491.653	158.08
491.777	66.08
491.902	9.08
492.026	24.08
492.15	16.08
492.275	24.08
492.399	25.08
492.524	13.08
492.648	19.08
492.772	37.08
492.897	15.08
493.021	16.08
493.145	38.08
493.27	35.08
493.394	16.08
493.518	19.08
493.643	10.08
493.767	37.08
493.891	8.08
494.016	23.08
494.14	17.08
494.264	5.08
494.389	19.08
494.513	21.08
494.637	14.08
494.762	41.08
494.886	27.08
495.01	17.08
495.134	16.08
495.259	22.08
495.383	12.08
495.507	1.08
495.632	28.08
495.756	46.08
495.88	42.08
496.004	9.08
496.129	13.08
496.253	40.08
496.377	20.08
496.501	39.08
496.626	1.08
496.75	23.08
496.874	33.08
496.998	29.08
497.123	38.08
497.247	16.08
497.371	10.08
497.495	13.08
497.62	22.08
497.744	17.08
497.868	13.08
497.992	18.08
498.116	15.08
498.241	33.08
498.365	15.08
498.489	15.08
498.613	37.08
498.737	28.08
498.862	26.08
498.986	10.08
499.11	23.08
499.234	15.08
499.358	12.08
499.482	22.08
499.607	28.08
499.731	25.08
499.855	27.08
499.979	27.08
500.103	31.08
500.227	25.08
500.351	35.08
500.476	31.08
500.6	16.08
500.724	28.08
500.848	15.08
500.972	23.08
501.096	24.08
501.22	28.08
501.344	8.08
501.469	18.08
501.593	28.08
501.717	37.08
501.841	13.08
501.965	15.08
502.089	28.08
502.213	17.08
502.337	17.08
502.461	-3.92
502.585	15.08
502.709	30.08
502.834	2.08
502.958	41.08
503.082	13.08
503.206	29.08
503.33	36.08
503.454	38.08
503.578	20.08
503.702	8.08
503.826	27.08
503.95	40.08
504.074	26.08
504.198	12.08
504.322	11.08
504.446	14.08
504.57	29.08
504.694	36.08
504.818	12.08
504.942	31.08
505.066	23.08
505.19	13.08
505.314	20.08
505.438	21.08
505.562	17.08
505.686	38.08
505.81	7.08
505.934	20.08
506.058	5.08
506.182	34.08
506.306	36.08
506.43	14.08
506.554	13.08
506.678	29.08
506.802	24.08
506.926	24.08
507.05	16.08
507.174	30.08
507.298	33.08
507.422	20.08
507.546	28.08
507.67	10.08
507.794	8.08
507.918	14.08
508.042	28.08
508.165	9.08
508.289	6.08
508.413	16.08
508.537	20.08
508.661	40.08
508.785	38.08
508.909	41.08
509.033	40.08
509.157	29.08
509.281	36.08
509.405	23.08
509.528	54.08
509.652	37.08
509.776	28.08
509.9	54.08
510.024	24.08
510.148	49.08
510.272	33.08
510.396	39.08
510.519	26.08
510.643	43.08
510.767	28.08
510.891	47.08
511.015	30.08
511.139	31.08
511.263	33.08
511.386	25.08
511.51	37.08
511.634	42.08
511.758	47.08
511.882	23.08
512.006	44.08
512.129	52.08
512.253	73.08
512.377	75.08
512.501	91.08
512.625	89.08
512.748	100.08
512.872	87.08
512.996	46.08
513.12	54.08
513.244	48.08
513.367	75.08
513.491	64.08
513.615	81.08
513.739	58.08
513.862	71.08
513.986	93.08
514.11	111.08
514.234	88.08
514.358	120.08
514.481	118.08
514.605	76.08
514.729	95.08
514.853	116.08
514.976	81.08
515.1	102.08
515.224	122.08
515.348	90.08
515.471	75.08
515.595	97.08
515.719	127.08
515.842	230.08
515.966	255.08
516.09	300.08
516.214	304.08
516.337	353.08
516.461	249.08
516.585	89.08
516.708	39.08
516.832	43.08
516.956	29.08
517.08	26.08
517.203	12.08
517.327	8.08
517.451	36.08
517.574	31.08
517.698	19.08
517.822	11.08
517.945	17.08
518.069	21.08
518.193	36.08
518.316	17.08
518.44	19.08
518.564	26.08
518.687	8.08
518.811	11.08
518.935	43.08
519.058	11.08
519.182	21.08
519.306	22.08
519.429	12.08
519.553	43.08
519.676	24.08
519.8	13.08
519.924	23.08
520.047	21.08
520.171	11.08
520.294	20.08
520.418	21.08
520.542	1.08
520.665	30.08
520.789	25.08
520.913	10.08
521.036	9.08
521.16	14.08
521.283	19.08
521.407	7.08
521.53	9.08
521.654	4.08
521.778	31.08
521.901	15.08
522.025	25.08
522.148	16.08
522.272	11.08
522.395	10.08
522.519	19.08
522.643	12.08
522.766	21.08
522.89	6.08
523.013	25.08
523.137	4.08
523.26	14.08
523.384	21.08
523.507	35.08
523.631	24.08
523.754	13.08
523.878	21.08
524.002	24.08
524.125	31.08
524.249	1.08
524.372	15.08
524.496	12.08
524.619	20.08
524.743	16.08
524.866	24.08
524.99	4.08
525.113	10.08
525.237	42.08
525.36	21.08
525.484	10.08
525.607	3.08
525.731	11.08
525.854	13.08
525.978	17.08
526.101	14.08
526.224	23.08
526.348	-1.92
526.471	26.08
526.595	6.08
526.718	-2.92
526.842	-3.92
526.965	23.08
527.089	16.08
527.212	40.08
527.336	13.08
527.459	13.08
527.582	16.08
527.706	7.08
527.829	14.08
527.953	39.08
528.076	9.08
528.2	3.08
528.323	16.08
528.446	35.08
528.57	22.08
528.693	12.08
528.817	-5.92
528.94	16.08
529.064	48.08
529.187	19.08
529.31	12.08
529.434	7.08
529.557	24.08
529.68	23.08
529.804	32.08
529.927	20.08
530.051	8.08
530.174	18.08
530.297	29.08
530.421	32.08
530.544	32.08
530.668	22.08
530.791	-7.92
530.914	11.08
531.038	24.08
531.161	21.08
531.284	13.08
531.408	9.08
531.531	16.08
531.654	17.08
531.778	13.08
531.901	-11.92
532.024	34.08
532.148	11.08
532.271	43.08
532.394	10.08
532.518	20.08
532.641	12.08
532.764	15.08
532.888	16.08
533.011	-2.92
533.134	-0.92
533.258	26.08
533.381	-0.92
533.504	25.08
533.628	41.08
533.751	28.08
533.874	12.08
533.997	29.08
534.121	22.08
534.244	15.08
534.367	25.08
534.491	23.08
534.614	19.08
534.737	28.08
534.86	18.08
534.984	11.08
535.107	9.08
535.23	11.08
535.354	16.08
535.477	3.08
535.6	13.08
535.723	22.08
535.847	5.08
535.97	-2.92
536.093	15.08
536.216	8.08
536.34	31.08
536.463	24.08
536.586	41.08
536.709	22.08
536.833	35.08
536.956	14.08
537.079	-3.92
537.202	27.08
537.325	9.08
537.449	4.08
537.572	15.08
537.695	14.08
537.818	11.08
537.941	12.08
538.065	23.08
538.188	23.08
538.311	21.08
538.434	42.08
538.558	17.08
538.681	45.08
538.804	33.08
538.927	37.08
539.05	44.08
539.173	24.08
539.297	17.08
539.42	33.08
539.543	41.08
539.666	38.08
539.789	31.08
539.913	25.08
540.036	10.08
540.159	23.08
540.282	21.08
540.405	5.08
540.528	21.08
540.651	39.08
540.775	10.08
540.898	11.08
541.021	3.08
541.144	37.08
541.267	41.08
541.39	17.08
541.513	38.08
541.637	29.08
541.76	43.08
541.883	30.08
542.006	51.08
542.129	39.08
542.252	21.08
542.375	36.08
542.498	36.08
542.622	25.08
542.745	46.08
542.868	38.08
542.991	62.08
543.114	50.08
543.237	75.08
543.36	53.08
543.483	39.08
543.606	62.08
543.73	81.08
543.853	64.08
543.976	92.08
544.099	114.08
544.222	132.08
544.345	143.08
544.468	173.08
544.591	230.08
544.714	270.08
544.837	353.08
544.96	456.08
545.083	661.08
545.206	1074.08
545.329	2480.08
545.453	11025.08
545.576	15261.08
545.699	15682.08
545.822	15682.08
545.945	15682.08
546.068	15682.08
546.191	15682.08
546.314	15682.08
546.437	15682.08
546.56	15682.08
546.683	15682.08
546.806	15682.08
546.929	15682.08
547.052	15682.08
547.175	15682.08
547.298	15682.08
547.421	15682.08
547.544	15682.08
547.667	3644.08
547.79	3110.08
547.913	1153.08
548.036	894.08
548.159	630.08
548.282	625.08
548.405	489.08
548.528	533.08
548.651	417.08
548.774	393.08
548.897	341.08
549.02	342.08
549.143	321.08
549.266	285.08
549.389	276.08
549.512	253.08
549.635	259.08
549.758	269.08
549.881	211.08
550.004	217.08
550.127	195.08
550.25	193.08
550.373	171.08
550.496	189.08
550.619	160.08
550.742	144.08
550.865	131.08
550.988	165.08
551.111	149.08
551.234	145.08
551.356	119.08
551.479	127.08
551.602	102.08
551.725	113.08
551.848	112.08
551.971	145.08
552.094	128.08
552.217	125.08
552.34	103.08
552.463	103.08
552.586	113.08
552.709	91.08
552.832	104.08
552.955	93.08
553.077	95.08
553.2	93.08
553.323	85.08
553.446	111.08
553.569	104.08
553.692	107.08
553.815	104.08
553.938	109.08
554.061	92.08
554.184	89.08
554.306	97.08
554.429	99.08
554.552	88.08
554.675	69.08
554.798	56.08
554.921	83.08
555.044	80.08
555.167	80.08
555.29	85.08
555.412	79.08
555.535	81.08
555.658	65.08
555.781	65.08
555.904	82.08
556.027	79.08
556.15	82.08
556.272	76.08
556.395	75.08
556.518	77.08
556.641	67.08
556.764	95.08
556.887	90.08
557.01	70.08
557.132	66.08
557.255	46.08
557.378	67.08
557.501	61.08
557.624	66.08
557.747	50.08
557.869	77.08
557.992	84.08
558.115	83.08
558.238	82.08
558.361	85.08
558.483	102.08
558.606	57.08
558.729	39.08
558.852	67.08
558.975	61.08
559.098	72.08
559.22	50.08
559.343	58.08
559.466	58.08
559.589	54.08
559.712	60.08
559.834	42.08
559.957	45.08
560.08	35.08
560.203	55.08
560.325	54.08
560.448	58.08
560.571	41.08
560.694	44.08
560.817	60.08
560.939	54.08
561.062	70.08
561.185	51.08
561.308	80.08
561.43	69.08
561.553	60.08
561.676	60.08
561.799	63.08
561.921	64.08
562.044	49.08
562.167	56.08
562.29	77.08
562.413	61.08
562.535	56.08
562.658	57.08
562.781	29.08
562.903	54.08
563.026	75.08
563.149	132.08
563.272	118.08
563.394	100.08
563.517	94.08
563.64	68.08
563.763	53.08
563.885	48.08
564.008	48.08
564.131	62.08
564.254	20.08
564.376	48.08
564.499	-1.92
564.622	28.08
564.744	45.08
564.867	27.08
564.99	30.08
565.113	38.08
565.235	39.08
565.358	46.08
565.481	24.08
565.603	34.08
565.726	42.08
565.849	61.08
565.971	40.08
566.094	30.08
566.217	33.08
566.34	47.08
566.462	47.08
566.585	34.08
566.708	53.08
566.83	39.08
566.953	49.08
567.076	42.08
567.198	47.08
567.321	32.08
567.444	40.08
567.566	33.08
567.689	39.08
567.812	47.08
567.934	24.08
568.057	46.08
568.18	46.08
568.302	33.08
568.425	31.08
568.548	41.08
568.67	36.08
568.793	52.08
568.916	42.08
569.038	17.08
569.161	35.08
569.283	53.08
569.406	32.08
569.529	21.08
569.651	12.08
569.774	27.08
569.897	36.08
570.019	43.08
570.142	31.08
570.265	25.08
570.387	41.08
570.51	27.08
570.632	52.08
570.755	29.08
570.878	21.08
571	31.08
571.123	37.08
571.246	36.08
571.368	31.08
571.491	28.08
571.613	14.08
571.736	3.08
571.859	15.08
571.981	28.08
572.104	35.08
572.226	29.08
572.349	23.08
572.472	50.08
572.594	29.08
572.717	34.08
572.839	19.08
572.962	32.08
573.085	19.08
573.207	26.08
573.33	19.08
573.452	45.08
573.575	38.08
573.697	37.08
573.82	35.08
573.943	26.08
574.065	47.08
574.188	22.08
574.31	32.08
574.433	40.08
574.555	57.08
574.678	33.08
574.801	38.08
574.923	36.08
575.046	52.08
575.168	31.08
575.291	31.08
575.413	32.08
575.536	29.08
575.659	55.08
575.781	44.08
575.904	59.08
576.026	65.08
576.149	83.08
576.271	133.08
576.394	206.08
576.516	526.08
576.639	3626.08
576.761	10182.08
576.884	8800.08
577.007	8799.08
577.129	8122.08
577.252	3756.08
577.374	1305.08
577.497	507.08
577.619	281.08
577.742	185.08
577.864	170.08
577.987	143.08
578.109	133.08
578.232	123.08
578.354	146.08
578.477	195.08
578.599	389.08
578.722	1948.08
578.844	9142.08
578.967	9875.08
579.089	8862.08
579.212	9093.08
579.334	5241.08
579.457	1912.08
579.579	721.08
579.702	335.08
579.824	211.08
579.947	136.08
580.069	103.08
580.192	91.08
580.314	103.08
580.437	81.08
580.559	96.08
580.682	70.08
580.804	66.08
580.927	55.08
581.049	73.08
581.172	45.08
581.294	59.08
581.417	50.08
581.539	46.08
581.662	37.08
581.784	44.08
581.907	59.08
582.029	36.08
582.152	28.08
582.274	48.08
582.396	51.08
582.519	38.08
582.641	22.08
582.764	43.08
582.886	42.08
583.009	32.08
583.131	36.08
583.254	40.08
583.376	44.08
583.499	38.08
583.621	48.08
583.743	42.08
583.866	59.08
583.988	33.08
584.111	38.08
584.233	41.08
584.356	38.08
584.478	35.08
584.601	20.08
584.723	25.08
584.845	35.08
584.968	19.08
585.09	4.08
585.213	41.08
585.335	27.08
585.458	26.08
585.58	26.08
585.702	18.08
585.825	30.08
585.947	23.08
586.07	21.08
586.192	27.08
586.315	27.08
586.437	21.08
586.559	15.08
586.682	12.08
586.804	36.08
586.927	29.08
587.049	14.08
587.171	34.08
587.294	57.08
587.416	60.08
587.539	38.08
587.661	21.08
587.783	25.08
587.906	30.08
588.028	25.08
588.151	31.08
588.273	29.08
588.395	17.08
588.518	34.08
588.64	25.08
588.763	28.08
588.885	44.08
589.007	35.08
589.13	8.08
589.252	13.08
589.375	20.08
589.497	31.08
589.619	34.08
589.742	36.08
589.864	32.08
589.986	17.08
590.109	26.08
590.231	20.08
590.354	34.08
590.476	25.08
590.598	7.08
590.721	28.08
590.843	28.08
590.965	15.08
591.088	35.08
591.21	30.08
591.332	14.08
591.455	14.08
591.577	-2.92
591.7	7.08
591.822	24.08
591.944	15.08
592.067	11.08
592.189	21.08
592.311	35.08
592.434	24.08
592.556	32.08
592.678	31.08
592.801	11.08
592.923	28.08
593.045	14.08
593.168	28.08
593.29	30.08
593.412	38.08
593.535	27.08
593.657	29.08
593.779	20.08
593.902	29.08
594.024	21.08
594.146	24.08
594.269	23.08
594.391	14.08
594.513	35.08
594.636	32.08
594.758	19.08
594.88	48.08
595.003	40.08
595.125	19.08
595.247	32.08
595.37	29.08
595.492	4.08
595.614	55.08
595.737	44.08
595.859	30.08
595.981	38.08
596.104	23.08
596.226	31.08
596.348	21.08
596.471	14.08
596.593	34.08
596.715	37.08
596.838	14.08
596.96	9.08
597.082	7.08
597.204	15.08
597.327	22.08
597.449	11.08
597.571	17.08
597.694	43.08
597.816	19.08
597.938	12.08
598.061	27.08
598.183	27.08
598.305	35.08
598.427	27.08
598.55	26.08
598.672	29.08
598.794	48.08
598.917	19.08
599.039	25.08
599.161	57.08
599.283	30.08
599.406	33.08
599.528	37.08
599.65	34.08
599.773	33.08
599.895	24.08
600.017	33.08
600.139	21.08
600.262	23.08
600.384	32.08
600.506	31.08
600.628	39.08
600.751	62.08
600.873	40.08
600.995	20.08
601.118	32.08
601.24	24.08
601.362	49.08
601.484	28.08
601.607	24.08
601.729	22.08
601.851	6.08
601.973	18.08
602.096	43.08
602.218	32.08
602.34	28.08
602.462	37.08
602.585	29.08
602.707	13.08
602.829	26.08
602.951	21.08
603.074	21.08
603.196	23.08
603.318	15.08
603.44	43.08
603.563	19.08
603.685	7.08
603.807	35.08
603.929	25.08
604.052	36.08
604.174	32.08
604.296	34.08
604.418	21.08
604.541	47.08
604.663	11.08
604.785	11.08
604.907	9.08
605.03	12.08
605.152	42.08
605.274	23.08
605.396	8.08
605.519	17.08
605.641	26.08
605.763	31.08
605.885	21.08
606.008	28.08
606.13	31.08
606.252	32.08
606.374	27.08
606.496	7.08
606.619	8.08
606.741	23.08
606.863	40.08
606.985	22.08
607.108	29.08
607.23	33.08
607.352	8.08
607.474	17.08
607.596	5.08
607.719	8.08
607.841	28.08
607.963	21.08
608.085	1.08
608.207	33.08
608.33	21.08
608.452	16.08
608.574	37.08
608.696	29.08
608.819	23.08
608.941	22.08
609.063	20.08
609.185	21.08
609.307	26.08
609.43	30.08
609.552	24.08
609.674	19.08
609.796	24.08
609.918	28.08
610.041	21.08
610.163	27.08
610.285	9.08
610.407	27.08
610.529	1.08
610.652	11.08
610.774	25.08
610.896	32.08
611.018	22.08
611.14	34.08
611.263	16.08
611.385	28.08
611.507	27.08
611.629	24.08
611.751	11.08
611.873	36.08
611.996	33.08
612.118	26.08
612.24	27.08
612.362	43.08
612.484	39.08
612.607	25.08
612.729	55.08
612.851	37.08
612.973	29.08
613.095	11.08
613.218	11.08
613.34	24.08
613.462	21.08
613.584	20.08
613.706	12.08
613.828	33.08
613.951	20.08
614.073	19.08
614.195	3.08
614.317	40.08
614.439	30.08
614.561	15.08
614.684	29.08
614.806	14.08
614.928	21.08
615.05	35.08
615.172	46.08
615.294	35.08
615.417	5.08
615.539	25.08
615.661	20.08
615.783	23.08
615.905	12.08
616.027	25.08
616.15	29.08
616.272	23.08
616.394	25.08
616.516	8.08
616.638	13.08
616.76	39.08
616.883	22.08
617.005	11.08
617.127	23.08
617.249	32.08
617.371	40.08
617.493	27.08
617.615	39.08
617.738	26.08
617.86	27.08
617.982	29.08
618.104	15.08
618.226	6.08
618.348	5.08
618.471	25.08
618.593	22.08
618.715	5.08
618.837	17.08
618.959	18.08
619.081	35.08
619.203	22.08
619.326	29.08
619.448	28.08
619.57	37.08
619.692	23.08
619.814	25.08
619.936	27.08
620.058	31.08
620.181	20.08
620.303	4.08
620.425	22.08
620.547	25.08
620.669	21.08
620.791	13.08
620.913	23.08
621.036	10.08
621.158	29.08
621.28	26.08
621.402	19.08
621.524	4.08
621.646	28.08
621.768	6.08
621.891	-18.92
622.013	16.08
622.135	2.08
622.257	-7.92
622.379	16.08
622.501	19.08
622.623	13.08
622.745	22.08
622.868	12.08
622.99	0.08
623.112	9.08
623.234	11.08
623.356	32.08
623.478	15.08
623.6	36.08
623.722	13.08
623.845	25.08
623.967	28.08
624.089	34.08
624.211	29.08
624.333	27.08
624.455	25.08
624.577	24.08
624.699	29.08
624.822	17.08
624.944	7.08
625.066	21.08
625.188	27.08
625.31	1.08
625.432	33.08
625.554	23.08
625.676	46.08
625.799	15.08
625.921	27.08
626.043	31.08
626.165	26.08
626.287	9.08
626.409	26.08
626.531	14.08
626.653	22.08
626.775	32.08
626.898	35.08
627.02	49.08
627.142	47.08
627.264	35.08
627.386	6.08
627.508	24.08
627.63	-7.92
627.752	29.08
627.874	20.08
627.997	15.08
628.119	13.08
628.241	27.08
628.363	37.08
628.485	13.08
628.607	21.08
628.729	12.08
628.851	7.08
628.973	10.08
629.096	6.08
629.218	11.08
629.34	10.08
629.462	15.08
629.584	-9.92
629.706	26.08
629.828	23.08
629.95	4.08
630.072	5.08
630.195	20.08
630.317	24.08
630.439	20.08
630.561	2.08
630.683	10.08
630.805	24.08
630.927	39.08
631.049	14.08
631.171	9.08
631.293	27.08
631.416	24.08
631.538	19.08
631.66	32.08
631.782	39.08
631.904	29.08
632.026	21.08
632.148	19.08
632.27	9.08
632.392	21.08
632.514	17.08
632.637	29.08
632.759	7.08
632.881	19.08
633.003	5.08
633.125	10.08
633.247	5.08
633.369	13.08
633.491	19.08
633.613	16.08
633.735	7.08
633.858	27.08
633.98	0.08
634.102	15.08
634.224	-6.92
634.346	20.08
634.468	13.08
634.59	9.08
634.712	6.08
634.834	0.08
634.956	3.08
635.078	8.08
635.201	13.08
635.323	14.08
635.445	15.08
635.567	4.08
635.689	9.08
635.811	12.08
635.933	10.08
636.055	15.08
636.177	9.08
636.299	33.08
636.421	4.08
636.544	8.08
636.666	13.08
636.788	28.08
636.91	27.08
637.032	13.08
637.154	25.08
637.276	45.08
637.398	31.08
637.52	22.08
637.642	17.08
637.764	10.08
637.887	12.08
638.009	21.08
638.131	26.08
638.253	14.08
638.375	15.08
638.497	10.08
638.619	1.08
638.741	-5.92
638.863	-14.92
638.985	1.08
639.107	21.08
639.23	9.08
639.352	18.08
639.474	13.08
639.596	8.08
639.718	3.08
639.84	14.08
639.962	6.08
640.084	27.08
640.206	30.08
640.328	7.08
640.45	26.08
640.573	10.08
640.695	14.08
640.817	18.08
640.939	33.08
641.061	12.08
641.183	1.08
641.305	13.08
641.427	12.08
641.549	16.08
641.671	34.08
641.793	14.08
641.915	26.08
642.038	10.08
642.16	11.08
642.282	0.08
642.404	-7.92
642.526	9.08
642.648	21.08
642.77	14.08
642.892	3.08
643.014	21.08
643.136	45.08
643.258	20.08
643.381	33.08
643.503	25.08
643.625	13.08
643.747	5.08
643.869	-4.92
643.991	19.08
644.113	10.08
644.235	9.08
644.357	16.08
644.479	19.08
644.601	-1.92
644.723	-6.92
644.846	18.08
644.968	8.08
645.09	8.08
645.212	17.08
645.334	21.08
645.456	20.08
645.578	16.08
645.7	23.08
645.822	24.08
645.944	12.08
646.066	20.08
646.188	-5.92
646.311	24.08
646.433	13.08
646.555	32.08
646.677	32.08
646.799	28.08
646.921	9.08
647.043	21.08
647.165	-0.92
647.287	24.08
647.409	14.08
647.531	27.08
647.654	-1.92
647.776	31.08
647.898	10.08
648.02	11.08
648.142	12.08
648.264	12.08
648.386	11.08
648.508	17.08
648.63	9.08
648.752	6.08
648.874	8.08
648.997	7.08
649.119	20.08
649.241	13.08
649.363	44.08
649.485	17.08
649.607	-1.92
649.729	-12.92
649.851	5.08
649.973	4.08
650.095	21.08
650.217	3.08
650.34	5.08
650.462	22.08
650.584	6.08
650.706	19.08
650.828	25.08
650.95	1.08
651.072	5.08
651.194	9.08
651.316	15.08
651.438	15.08
651.56	-2.92
651.683	12.08
651.805	21.08
651.927	12.08
652.049	3.08
652.171	12.08
652.293	15.08
652.415	3.08
652.537	0.08
652.659	-4.92
652.781	20.08
652.903	24.08
653.026	36.08
653.148	16.08
653.27	4.08
653.392	13.08
653.514	13.08
653.636	3.08
653.758	4.08
653.88	7.08
654.002	4.08
654.124	20.08
654.247	6.08
654.369	21.08
654.491	-2.92
654.613	19.08
654.735	-6.92
654.857	14.08
654.979	14.08
655.101	18.08
655.223	28.08
655.345	21.08
655.468	13.08
655.59	4.08
655.712	10.08
655.834	4.08
655.956	20.08
656.078	9.08
656.2	-9.92
656.322	3.08
656.444	-4.92
656.566	17.08
656.689	11.08
656.811	11.08
656.933	11.08
657.055	-2.92
657.177	3.08
657.299	7.08
657.421	3.08
657.543	6.08
657.665	1.08
657.787	7.08
657.91	0.08
658.032	13.08
658.154	-0.92
658.276	20.08
658.398	2.08
658.52	11.08
658.642	15.08
658.764	21.08
658.886	-1.92
659.009	36.08
659.131	15.08
659.253	20.08
659.375	5.08
659.497	4.08
659.619	9.08
659.741	3.08
659.863	-14.92
659.985	-11.92
660.108	12.08
660.23	12.08
660.352	10.08
660.474	20.08
660.596	20.08
660.718	17.08
660.84	10.08
660.962	12.08
661.084	-16.92
661.207	-2.92
661.329	26.08
661.451	14.08
661.573	23.08
661.695	7.08
661.817	27.08
661.939	13.08
662.061	25.08
662.184	6.08
662.306	-12.92
662.428	12.08
662.55	20.08
662.672	4.08
662.794	6.08
662.916	7.08
663.038	13.08
663.161	18.08
663.283	2.08
663.405	25.08
663.527	8.08
663.649	19.08
663.771	7.08
663.893	-5.92
664.015	10.08
664.138	16.08
664.26	24.08
664.382	5.08
664.504	-2.92
664.626	-2.92
664.748	10.08
664.87	-4.92
664.992	8.08
665.115	4.08
665.237	18.08
665.359	-7.92
665.481	12.08
665.603	12.08
665.725	12.08
665.847	-3.92
665.97	5.08
666.092	13.08
666.214	12.08
666.336	29.08
666.458	16.08
666.58	11.08
666.702	6.08
666.825	5.08
666.947	-2.92
667.069	11.08
667.191	-3.92
667.313	7.08
667.435	-4.92
667.557	4.08
667.68	0.08
667.802	-2.92
667.924	0.08
668.046	25.08
668.168	30.08
668.29	27.08
668.412	7.08
668.535	10.08
668.657	9.08
668.779	9.08
668.901	2.08
669.023	5.08
669.145	14.08
669.267	25.08
669.39	8.08
669.512	10.08
669.634	2.08
669.756	-6.92
669.878	22.08
670	28.08
670.123	5.08
670.245	24.08
670.367	19.08
670.489	37.08
670.611	13.08
670.733	6.08
670.856	11.08
670.978	13.08
671.1	-8.92
671.222	9.08
671.344	10.08
671.466	17.08
671.589	1.08
671.711	5.08
671.833	-5.92
671.955	4.08
672.077	3.08
672.199	17.08
672.322	20.08
672.444	9.08
672.566	6.08
672.688	0.08
672.81	27.08
672.932	19.08
673.055	2.08
673.177	-11.92
673.299	21.08
673.421	-1.92
673.543	8.08
673.665	25.08
673.788	33.08
673.91	0.08
674.032	-4.92
674.154	11.08
674.276	8.08
674.399	-10.92
674.521	-1.92
674.643	13.08
674.765	-0.92
674.887	27.08
675.009	11.08
675.132	5.08
675.254	-4.92
675.376	13.08
675.498	12.08
675.62	30.08
675.743	13.08
675.865	21.08
675.987	21.08
676.109	8.08
676.231	9.08
676.354	16.08
676.476	-15.92
676.598	20.08
676.72	23.08
676.842	16.08
676.965	-1.92
677.087	-10.92
677.209	19.08
677.331	20.08
677.453	14.08
677.576	1.08
677.698	11.08
677.82	9.08
677.942	9.08
678.064	17.08
678.187	9.08
678.309	-3.92
678.431	6.08
678.553	7.08
678.675	29.08
678.798	21.08
678.92	11.08
679.042	6.08
679.164	5.08
679.286	21.08
679.409	5.08
679.531	-4.92
679.653	-5.92
679.775	4.08
679.898	4.08
680.02	-2.92
680.142	4.08
680.264	8.08
680.386	-1.92
680.509	27.08
680.631	10.08
680.753	23.08
680.875	-5.92
680.998	11.08
681.12	14.08
681.242	21.08
681.364	-1.92
681.486	2.08
681.609	-7.92
681.731	-1.92
681.853	8.08
681.975	-7.92
682.098	8.08
682.22	22.08
682.342	8.08
682.464	23.08
682.587	3.08
682.709	8.08
682.831	4.08
682.953	-9.92
683.076	-1.92
683.198	20.08
683.32	17.08
683.442	28.08
683.565	12.08
683.687	14.08
683.809	1.08
683.931	-11.92
684.054	10.08
684.176	3.08
684.298	5.08
684.42	-7.92
684.543	12.08
684.665	7.08
684.787	4.08
684.909	36.08
685.032	29.08
685.154	0.08
685.276	1.08
685.398	-4.92
685.521	-8.92
685.643	1.08
685.765	14.08
685.887	21.08
686.01	12.08
686.132	15.08
686.254	8.08
686.377	10.08
686.499	23.08
686.621	29.08
686.743	13.08
686.866	-0.92
686.988	19.08
687.11	15.08
687.232	6.08
687.355	-16.92
687.477	-2.92
687.599	6.08
687.722	-1.92
687.844	0.08
687.966	0.08
688.088	12.08
688.211	16.08
688.333	16.08
688.455	3.08
688.578	15.08
688.7	12.08
688.822	17.08
688.944	-11.92
689.067	47.08
689.189	4.08
689.311	0.08
689.434	1.08
689.556	5.08
689.678	18.08
689.801	4.08
689.923	29.08
690.045	13.08
690.167	21.08
690.29	11.08
690.412	13.08
690.534	19.08
690.657	7.08
690.779	-0.92
690.901	13.08
691.024	12.08
691.146	0.08
691.268	-9.92
691.391	24.08
691.513	17.08
691.635	28.08
691.758	13.08
691.88	24.08
692.002	9.08
692.125	11.08
692.247	1.08
692.369	12.08
692.492	3.08
692.614	0.08
692.736	-5.92
692.859	7.08
692.981	4.08
693.103	3.08
693.226	22.08
693.348	28.08
693.47	23.08
693.593	23.08
693.715	41.08
693.837	45.08
693.96	24.08
694.082	14.08
694.204	18.08
694.327	3.08
694.449	-12.92
694.571	4.08
694.694	6.08
694.816	9.08
694.938	25.08
695.061	13.08
695.183	3.08
695.305	14.08
695.428	11.08
695.55	21.08
695.672	6.08
695.795	9.08
695.917	29.08
696.04	-3.92
696.162	-5.92
696.284	11.08
696.407	7.08
696.529	-4.92
696.651	24.08
696.774	3.08
696.896	15.08
697.019	11.08
697.141	14.08
697.263	15.08
697.386	-10.92
697.508	12.08
697.63	10.08
697.753	4.08
697.875	0.08
697.998	0.08
698.12	16.08
698.242	13.08
698.365	12.08
698.487	5.08
698.61	12.08
698.732	13.08
698.854	10.08
698.977	12.08
699.099	15.08
699.221	-12.92
699.344	-0.92
699.466	2.08
699.589	15.08
699.711	4.08
699.834	-3.92
699.956	17.08
700.078	22.08
700.201	4.08
700.323	17.08
700.446	7.08
700.568	20.08
700.69	0.08
700.813	11.08
700.935	-1.92
701.058	17.08
701.18	-2.92
701.302	9.08
701.425	-0.92
701.547	11.08
701.67	-10.92
701.792	9.08
701.915	-3.92
702.037	-0.92
702.159	13.08
702.282	9.08
702.404	-5.92
702.527	0.08
702.649	17.08
702.772	27.08
702.894	21.08
703.017	12.08
703.139	23.08
703.261	23.08
703.384	13.08
703.506	-4.92
703.629	1.08
703.751	22.08
703.874	11.08
703.996	10.08
704.119	3.08
704.241	6.08
704.364	-0.92
704.486	21.08
704.608	29.08
704.731	10.08
704.853	6.08
704.976	2.08
705.098	11.08
705.221	-0.92
705.343	8.08
705.466	21.08
705.588	15.08
705.711	9.08
705.833	16.08
705.956	6.08
706.078	21.08
706.201	15.08
706.323	4.08
706.446	0.08
