Data from LowRes_mercury_15_20_11_07_2024_HR4C61881__19__15-23-34-171.txt Node

Date: Thu Nov 07 15:23:34 EST 2024
User: crc00042
Spectrometer: HR4C6188
Trigger mode: 4
Integration Time (sec): 1.000000E-1
Scans to average: 1
Electric dark correction enabled: true
Nonlinearity correction enabled: false
Boxcar width: 0
XAxis mode: Wavelengths
Number of Pixels in Spectrum: 3648
>>>>>Begin Spectral Data<<<<<
245.66	-47.92
245.797	-47.92
245.934	-47.92
246.071	-55.92
246.208	19.08
246.344	6.08
246.481	-11.92
246.618	-12.92
246.755	22.08
246.892	1.08
247.029	-2.92
247.165	-24.92
247.302	4.08
247.439	-1.92
247.576	17.08
247.713	4.08
247.849	14.08
247.986	-13.92
248.123	11.08
248.26	0.08
248.396	27.08
248.533	26.08
248.67	20.08
248.806	10.08
248.943	6.08
249.08	-8.92
249.216	16.08
249.353	-2.92
249.49	-9.92
249.626	6.08
249.763	9.08
249.9	15.08
250.036	24.08
250.173	8.08
250.309	8.08
250.446	2.08
250.582	11.08
250.719	-1.92
250.856	-4.92
250.992	4.08
251.129	5.08
251.265	4.08
251.402	13.08
251.538	15.08
251.675	13.08
251.811	22.08
251.948	36.08
252.084	15.08
252.221	-11.92
252.357	5.08
252.493	40.08
252.63	-3.92
252.766	29.08
252.903	-2.92
253.039	-17.92
253.175	-5.92
253.312	5.08
253.448	0.08
253.585	-14.92
253.721	35.08
253.857	1.08
253.994	16.08
254.13	22.08
254.266	13.08
254.403	7.08
254.539	8.08
254.675	-0.92
254.811	9.08
254.948	18.08
255.084	1.08
255.22	1.08
255.356	10.08
255.493	33.08
255.629	8.08
255.765	25.08
255.901	7.08
256.037	9.08
256.174	23.08
256.31	3.08
256.446	9.08
256.582	2.08
256.718	9.08
256.854	20.08
256.991	8.08
257.127	20.08
257.263	16.08
257.399	13.08
257.535	3.08
257.671	15.08
257.807	6.08
257.943	-7.92
258.079	-1.92
258.215	14.08
258.351	30.08
258.487	23.08
258.623	34.08
258.759	13.08
258.895	17.08
259.031	0.08
259.167	-12.92
259.303	40.08
259.439	-2.92
259.575	-2.92
259.711	2.08
259.847	4.08
259.983	8.08
260.119	14.08
260.255	6.08
260.391	12.08
260.527	26.08
260.663	31.08
260.799	8.08
260.934	10.08
261.07	-6.92
261.206	4.08
261.342	-5.92
261.478	33.08
261.614	29.08
261.749	15.08
261.885	9.08
262.021	-9.92
262.157	10.08
262.293	17.08
262.428	24.08
262.564	7.08
262.7	14.08
262.836	9.08
262.971	22.08
263.107	-1.92
263.243	28.08
263.378	18.08
263.514	-5.92
263.65	15.08
263.785	0.08
263.921	6.08
264.057	-0.92
264.192	13.08
264.328	7.08
264.464	-1.92
264.599	11.08
264.735	17.08
264.871	-0.92
265.006	11.08
265.142	23.08
265.277	4.08
265.413	20.08
265.548	11.08
265.684	13.08
265.819	9.08
265.955	2.08
266.091	12.08
266.226	-1.92
266.362	5.08
266.497	11.08
266.633	6.08
266.768	-3.92
266.903	9.08
267.039	15.08
267.174	19.08
267.31	10.08
267.445	16.08
267.581	7.08
267.716	33.08
267.851	19.08
267.987	7.08
268.122	32.08
268.258	25.08
268.393	10.08
268.528	25.08
268.664	3.08
268.799	-4.92
268.934	0.08
269.07	11.08
269.205	-3.92
269.34	26.08
269.476	-10.92
269.611	-6.92
269.746	40.08
269.881	12.08
270.017	29.08
270.152	15.08
270.287	11.08
270.422	18.08
270.558	5.08
270.693	15.08
270.828	-0.92
270.963	9.08
271.098	7.08
271.234	8.08
271.369	25.08
271.504	12.08
271.639	14.08
271.774	13.08
271.909	20.08
272.045	-6.92
272.18	2.08
272.315	3.08
272.45	40.08
272.585	-3.92
272.72	6.08
272.855	8.08
272.99	32.08
273.125	-4.92
273.26	1.08
273.395	-15.92
273.53	8.08
273.665	22.08
273.8	4.08
273.935	-10.92
274.07	-3.92
274.205	20.08
274.34	-2.92
274.475	-3.92
274.61	18.08
274.745	17.08
274.88	17.08
275.015	2.08
275.15	11.08
275.285	14.08
275.42	15.08
275.555	38.08
275.69	18.08
275.825	8.08
275.959	20.08
276.094	-2.92
276.229	2.08
276.364	-9.92
276.499	8.08
276.634	12.08
276.768	20.08
276.903	31.08
277.038	11.08
277.173	26.08
277.308	15.08
277.442	1.08
277.577	-8.92
277.712	-1.92
277.847	0.08
277.981	5.08
278.116	-11.92
278.251	6.08
278.386	3.08
278.52	30.08
278.655	21.08
278.79	21.08
278.924	10.08
279.059	20.08
279.194	-7.92
279.328	46.08
279.463	18.08
279.598	32.08
279.732	21.08
279.867	26.08
280.001	2.08
280.136	9.08
280.271	10.08
280.405	25.08
280.54	18.08
280.674	-5.92
280.809	14.08
280.943	6.08
281.078	25.08
281.213	32.08
281.347	19.08
281.482	15.08
281.616	3.08
281.751	5.08
281.885	-9.92
282.02	8.08
282.154	21.08
282.288	-0.92
282.423	0.08
282.557	-12.92
282.692	30.08
282.826	7.08
282.961	6.08
283.095	5.08
283.229	1.08
283.364	3.08
283.498	-2.92
283.633	34.08
283.767	10.08
283.901	18.08
284.036	16.08
284.17	17.08
284.304	16.08
284.439	18.08
284.573	1.08
284.707	17.08
284.842	0.08
284.976	22.08
285.11	2.08
285.244	13.08
285.379	58.08
285.513	6.08
285.647	-3.92
285.781	-5.92
285.916	24.08
286.05	13.08
286.184	34.08
286.318	10.08
286.453	4.08
286.587	-3.92
286.721	2.08
286.855	-0.92
286.989	-5.92
287.123	-0.92
287.258	4.08
287.392	10.08
287.526	7.08
287.66	13.08
287.794	6.08
287.928	4.08
288.062	13.08
288.196	9.08
288.33	9.08
288.464	17.08
288.598	14.08
288.733	7.08
288.867	25.08
289.001	25.08
289.135	14.08
289.269	-2.92
289.403	26.08
289.537	8.08
289.671	-4.92
289.805	-6.92
289.939	11.08
290.073	8.08
290.207	35.08
290.34	18.08
290.474	46.08
290.608	14.08
290.742	8.08
290.876	2.08
291.01	17.08
291.144	31.08
291.278	26.08
291.412	18.08
291.546	5.08
291.679	5.08
291.813	14.08
291.947	32.08
292.081	15.08
292.215	4.08
292.349	18.08
292.482	30.08
292.616	4.08
292.75	18.08
292.884	13.08
293.018	8.08
293.151	-14.92
293.285	4.08
293.419	-4.92
293.553	-17.92
293.686	-1.92
293.82	6.08
293.954	32.08
294.088	37.08
294.221	10.08
294.355	3.08
294.489	25.08
294.622	6.08
294.756	9.08
294.89	5.08
295.023	2.08
295.157	33.08
295.291	9.08
295.424	22.08
295.558	10.08
295.691	1.08
295.825	5.08
295.959	18.08
296.092	25.08
296.226	24.08
296.359	25.08
296.493	14.08
296.627	19.08
296.76	13.08
296.894	17.08
297.027	25.08
297.161	25.08
297.294	-6.92
297.428	7.08
297.561	34.08
297.695	9.08
297.828	-6.92
297.962	17.08
298.095	-9.92
298.229	30.08
298.362	-6.92
298.495	-17.92
298.629	-3.92
298.762	14.08
298.896	5.08
299.029	-7.92
299.162	-1.92
299.296	18.08
299.429	0.08
299.563	31.08
299.696	-0.92
299.829	1.08
299.963	31.08
300.096	27.08
300.229	21.08
300.363	14.08
300.496	11.08
300.629	17.08
300.763	21.08
300.896	13.08
301.029	10.08
301.162	24.08
301.296	-2.92
301.429	27.08
301.562	8.08
301.695	11.08
301.829	9.08
301.962	33.08
302.095	7.08
302.228	0.08
302.362	-1.92
302.495	8.08
302.628	18.08
302.761	4.08
302.894	28.08
303.027	19.08
303.161	7.08
303.294	8.08
303.427	15.08
303.56	4.08
303.693	9.08
303.826	16.08
303.959	-2.92
304.092	22.08
304.225	-2.92
304.359	-5.92
304.492	1.08
304.625	15.08
304.758	30.08
304.891	9.08
305.024	10.08
305.157	10.08
305.29	-9.92
305.423	-18.92
305.556	24.08
305.689	23.08
305.822	1.08
305.955	4.08
306.088	7.08
306.221	-3.92
306.354	7.08
306.487	1.08
306.62	-4.92
306.752	8.08
306.885	5.08
307.018	14.08
307.151	23.08
307.284	17.08
307.417	-6.92
307.55	11.08
307.683	19.08
307.816	23.08
307.948	30.08
308.081	25.08
308.214	18.08
308.347	33.08
308.48	-5.92
308.613	16.08
308.745	16.08
308.878	13.08
309.011	21.08
309.144	32.08
309.277	11.08
309.409	18.08
309.542	9.08
309.675	13.08
309.808	10.08
309.94	22.08
310.073	-5.92
310.206	2.08
310.339	24.08
310.471	-0.92
310.604	14.08
310.737	5.08
310.869	21.08
311.002	11.08
311.135	3.08
311.267	3.08
311.4	18.08
311.533	25.08
311.665	-12.92
311.798	9.08
311.93	23.08
312.063	32.08
312.196	55.08
312.328	74.08
312.461	49.08
312.593	49.08
312.726	68.08
312.859	95.08
312.991	179.08
313.124	71.08
313.256	37.08
313.389	10.08
313.521	-1.92
313.654	7.08
313.786	-9.92
313.919	-0.92
314.051	6.08
314.184	26.08
314.316	25.08
314.449	-4.92
314.581	-2.92
314.714	9.08
314.846	10.08
314.978	-19.92
315.111	-10.92
315.243	3.08
315.376	8.08
315.508	18.08
315.641	24.08
315.773	46.08
315.905	21.08
316.038	13.08
316.17	17.08
316.302	-2.92
316.435	-0.92
316.567	17.08
316.699	31.08
316.832	11.08
316.964	-8.92
317.096	2.08
317.229	-4.92
317.361	-23.92
317.493	12.08
317.625	4.08
317.758	18.08
317.89	26.08
318.022	12.08
318.155	13.08
318.287	3.08
318.419	18.08
318.551	26.08
318.683	6.08
318.816	17.08
318.948	-3.92
319.08	-1.92
319.212	29.08
319.344	-3.92
319.477	16.08
319.609	24.08
319.741	23.08
319.873	18.08
320.005	10.08
320.137	19.08
320.269	13.08
320.401	-3.92
320.534	13.08
320.666	-7.92
320.798	-8.92
320.93	24.08
321.062	9.08
321.194	11.08
321.326	16.08
321.458	14.08
321.59	-9.92
321.722	13.08
321.854	7.08
321.986	2.08
322.118	17.08
322.25	6.08
322.382	12.08
322.514	17.08
322.646	-7.92
322.778	4.08
322.91	17.08
323.042	15.08
323.174	21.08
323.306	1.08
323.438	-2.92
323.57	14.08
323.702	8.08
323.834	4.08
323.966	-2.92
324.097	5.08
324.229	20.08
324.361	21.08
324.493	7.08
324.625	-1.92
324.757	12.08
324.889	3.08
325.021	23.08
325.152	6.08
325.284	32.08
325.416	13.08
325.548	28.08
325.68	2.08
325.811	30.08
325.943	30.08
326.075	19.08
326.207	11.08
326.339	16.08
326.47	14.08
326.602	34.08
326.734	15.08
326.866	21.08
326.997	8.08
327.129	7.08
327.261	2.08
327.392	2.08
327.524	15.08
327.656	13.08
327.787	19.08
327.919	13.08
328.051	12.08
328.182	22.08
328.314	33.08
328.446	14.08
328.577	31.08
328.709	1.08
328.841	-2.92
328.972	9.08
329.104	7.08
329.235	14.08
329.367	32.08
329.499	14.08
329.63	11.08
329.762	10.08
329.893	33.08
330.025	3.08
330.156	-21.92
330.288	16.08
330.419	39.08
330.551	17.08
330.683	36.08
330.814	3.08
330.946	24.08
331.077	9.08
331.208	-9.92
331.34	-9.92
331.471	6.08
331.603	11.08
331.734	-6.92
331.866	21.08
331.997	15.08
332.129	19.08
332.26	21.08
332.392	20.08
332.523	26.08
332.654	-7.92
332.786	0.08
332.917	-4.92
333.048	34.08
333.18	40.08
333.311	13.08
333.443	15.08
333.574	9.08
333.705	43.08
333.837	57.08
333.968	143.08
334.099	258.08
334.231	230.08
334.362	75.08
334.493	41.08
334.624	26.08
334.756	32.08
334.887	22.08
335.018	16.08
335.15	14.08
335.281	20.08
335.412	29.08
335.543	8.08
335.675	10.08
335.806	-2.92
335.937	34.08
336.068	25.08
336.199	39.08
336.331	16.08
336.462	9.08
336.593	23.08
336.724	28.08
336.855	30.08
336.986	31.08
337.118	25.08
337.249	17.08
337.38	26.08
337.511	19.08
337.642	31.08
337.773	28.08
337.904	5.08
338.035	37.08
338.166	26.08
338.298	20.08
338.429	5.08
338.56	45.08
338.691	41.08
338.822	27.08
338.953	25.08
339.084	10.08
339.215	24.08
339.346	29.08
339.477	30.08
339.608	9.08
339.739	19.08
339.87	37.08
340.001	13.08
340.132	31.08
340.263	28.08
340.394	40.08
340.525	22.08
340.656	0.08
340.787	7.08
340.918	47.08
341.049	35.08
341.179	24.08
341.31	38.08
341.441	32.08
341.572	34.08
341.703	33.08
341.834	0.08
341.965	19.08
342.096	20.08
342.227	32.08
342.357	47.08
342.488	40.08
342.619	23.08
342.75	24.08
342.881	26.08
343.012	41.08
343.142	67.08
343.273	18.08
343.404	21.08
343.535	66.08
343.666	43.08
343.796	48.08
343.927	31.08
344.058	49.08
344.189	56.08
344.319	45.08
344.45	31.08
344.581	29.08
344.712	9.08
344.842	40.08
344.973	42.08
345.104	48.08
345.234	30.08
345.365	20.08
345.496	35.08
345.626	53.08
345.757	50.08
345.888	18.08
346.018	46.08
346.149	27.08
346.28	57.08
346.41	40.08
346.541	25.08
346.672	36.08
346.802	37.08
346.933	38.08
347.063	40.08
347.194	28.08
347.325	43.08
347.455	51.08
347.586	32.08
347.716	27.08
347.847	49.08
347.977	53.08
348.108	52.08
348.238	45.08
348.369	42.08
348.499	44.08
348.63	43.08
348.76	44.08
348.891	63.08
349.021	63.08
349.152	72.08
349.282	80.08
349.413	58.08
349.543	72.08
349.674	45.08
349.804	56.08
349.935	24.08
350.065	35.08
350.196	22.08
350.326	37.08
350.456	31.08
350.587	49.08
350.717	39.08
350.848	51.08
350.978	51.08
351.108	8.08
351.239	29.08
351.369	34.08
351.499	32.08
351.63	41.08
351.76	34.08
351.89	34.08
352.021	31.08
352.151	17.08
352.281	40.08
352.412	45.08
352.542	34.08
352.672	14.08
352.803	24.08
352.933	23.08
353.063	31.08
353.193	21.08
353.324	38.08
353.454	34.08
353.584	44.08
353.714	13.08
353.845	30.08
353.975	20.08
354.105	19.08
354.235	37.08
354.365	40.08
354.496	16.08
354.626	42.08
354.756	34.08
354.886	38.08
355.016	40.08
355.146	36.08
355.277	35.08
355.407	27.08
355.537	45.08
355.667	49.08
355.797	16.08
355.927	31.08
356.057	20.08
356.187	23.08
356.318	11.08
356.448	35.08
356.578	23.08
356.708	53.08
356.838	41.08
356.968	36.08
357.098	38.08
357.228	35.08
357.358	25.08
357.488	41.08
357.618	73.08
357.748	48.08
357.878	43.08
358.008	33.08
358.138	23.08
358.268	27.08
358.398	33.08
358.528	11.08
358.658	35.08
358.788	39.08
358.918	53.08
359.048	34.08
359.178	33.08
359.308	28.08
359.438	64.08
359.568	51.08
359.698	39.08
359.827	45.08
359.957	31.08
360.087	31.08
360.217	39.08
360.347	54.08
360.477	41.08
360.607	24.08
360.737	35.08
360.866	34.08
360.996	43.08
361.126	13.08
361.256	56.08
361.386	59.08
361.516	58.08
361.645	8.08
361.775	39.08
361.905	21.08
362.035	57.08
362.165	61.08
362.294	57.08
362.424	52.08
362.554	51.08
362.684	34.08
362.813	50.08
362.943	57.08
363.073	54.08
363.203	83.08
363.332	91.08
363.462	89.08
363.592	97.08
363.721	129.08
363.851	180.08
363.981	203.08
364.111	271.08
364.24	335.08
364.37	521.08
364.5	875.08
364.629	1856.08
364.759	3885.08
364.888	6352.08
365.018	9432.08
365.148	14849.08
365.277	13071.08
365.407	4823.08
365.537	3152.08
365.666	4078.08
365.796	1870.08
365.925	840.08
366.055	782.08
366.184	1031.08
366.314	1418.08
366.444	2489.08
366.573	2168.08
366.703	668.08
366.832	238.08
366.962	121.08
367.091	113.08
367.221	89.08
367.35	79.08
367.48	84.08
367.609	62.08
367.739	63.08
367.868	55.08
367.998	64.08
368.127	71.08
368.257	72.08
368.386	86.08
368.516	61.08
368.645	54.08
368.775	54.08
368.904	61.08
369.033	49.08
369.163	23.08
369.292	34.08
369.422	50.08
369.551	42.08
369.68	53.08
369.81	43.08
369.939	48.08
370.069	80.08
370.198	55.08
370.327	44.08
370.457	34.08
370.586	49.08
370.715	48.08
370.845	43.08
370.974	54.08
371.103	57.08
371.233	60.08
371.362	52.08
371.491	44.08
371.621	81.08
371.75	56.08
371.879	49.08
372.008	56.08
372.138	64.08
372.267	69.08
372.396	60.08
372.525	32.08
372.655	30.08
372.784	46.08
372.913	44.08
373.042	41.08
373.172	55.08
373.301	8.08
373.43	-0.92
373.559	57.08
373.688	47.08
373.818	38.08
373.947	31.08
374.076	21.08
374.205	34.08
374.334	12.08
374.463	17.08
374.593	23.08
374.722	26.08
374.851	55.08
374.98	22.08
375.109	38.08
375.238	37.08
375.367	52.08
375.496	25.08
375.625	20.08
375.755	35.08
375.884	37.08
376.013	49.08
376.142	19.08
376.271	20.08
376.4	12.08
376.529	30.08
376.658	30.08
376.787	30.08
376.916	18.08
377.045	29.08
377.174	30.08
377.303	40.08
377.432	55.08
377.561	48.08
377.69	26.08
377.819	51.08
377.948	23.08
378.077	19.08
378.206	18.08
378.335	20.08
378.464	4.08
378.593	32.08
378.722	20.08
378.851	23.08
378.98	25.08
379.108	20.08
379.237	8.08
379.366	45.08
379.495	36.08
379.624	29.08
379.753	5.08
379.882	23.08
380.011	17.08
380.14	16.08
380.268	26.08
380.397	11.08
380.526	23.08
380.655	27.08
380.784	11.08
380.913	26.08
381.041	22.08
381.17	11.08
381.299	18.08
381.428	33.08
381.557	41.08
381.685	22.08
381.814	33.08
381.943	39.08
382.072	23.08
382.2	26.08
382.329	23.08
382.458	25.08
382.587	35.08
382.715	70.08
382.844	30.08
382.973	25.08
383.102	15.08
383.23	30.08
383.359	31.08
383.488	58.08
383.616	25.08
383.745	19.08
383.874	31.08
384.003	30.08
384.131	21.08
384.26	10.08
384.389	15.08
384.517	8.08
384.646	4.08
384.774	11.08
384.903	41.08
385.032	34.08
385.16	26.08
385.289	26.08
385.418	38.08
385.546	24.08
385.675	42.08
385.803	29.08
385.932	34.08
386.06	29.08
386.189	18.08
386.318	32.08
386.446	21.08
386.575	26.08
386.703	43.08
386.832	20.08
386.96	22.08
387.089	31.08
387.217	19.08
387.346	11.08
387.474	38.08
387.603	27.08
387.731	24.08
387.86	35.08
387.988	21.08
388.117	37.08
388.245	30.08
388.374	42.08
388.502	41.08
388.631	20.08
388.759	29.08
388.888	25.08
389.016	24.08
389.144	33.08
389.273	12.08
389.401	16.08
389.53	9.08
389.658	35.08
389.786	33.08
389.915	37.08
390.043	33.08
390.172	25.08
390.3	47.08
390.428	33.08
390.557	24.08
390.685	30.08
390.813	67.08
390.942	49.08
391.07	41.08
391.198	38.08
391.327	36.08
391.455	16.08
391.583	44.08
391.712	34.08
391.84	33.08
391.968	23.08
392.096	23.08
392.225	18.08
392.353	33.08
392.481	27.08
392.609	48.08
392.738	30.08
392.866	54.08
392.994	16.08
393.122	53.08
393.251	17.08
393.379	23.08
393.507	14.08
393.635	30.08
393.764	47.08
393.892	39.08
394.02	25.08
394.148	20.08
394.276	49.08
394.404	57.08
394.533	34.08
394.661	41.08
394.789	47.08
394.917	59.08
395.045	37.08
395.173	9.08
395.302	18.08
395.43	40.08
395.558	46.08
395.686	45.08
395.814	26.08
395.942	35.08
396.07	34.08
396.198	29.08
396.326	43.08
396.454	53.08
396.582	50.08
396.711	33.08
396.839	25.08
396.967	40.08
397.095	34.08
397.223	45.08
397.351	67.08
397.479	52.08
397.607	58.08
397.735	58.08
397.863	75.08
397.991	59.08
398.119	38.08
398.247	52.08
398.375	62.08
398.503	50.08
398.631	59.08
398.759	62.08
398.887	69.08
399.015	46.08
399.143	62.08
399.271	78.08
399.399	78.08
399.526	98.08
399.654	114.08
399.782	70.08
399.91	103.08
400.038	103.08
400.166	102.08
400.294	104.08
400.422	108.08
400.55	145.08
400.678	127.08
400.805	129.08
400.933	134.08
401.061	121.08
401.189	119.08
401.317	149.08
401.445	99.08
401.573	78.08
401.7	64.08
401.828	53.08
401.956	44.08
402.084	37.08
402.212	32.08
402.34	35.08
402.467	37.08
402.595	50.08
402.723	36.08
402.851	65.08
402.978	84.08
403.106	77.08
403.234	84.08
403.362	126.08
403.489	134.08
403.617	170.08
403.745	225.08
403.873	284.08
404	575.08
404.128	1489.08
404.256	3959.08
404.384	5157.08
404.511	5512.08
404.639	7272.08
404.767	11573.08
404.894	14752.08
405.022	4981.08
405.15	1307.08
405.277	437.08
405.405	271.08
405.533	147.08
405.66	118.08
405.788	63.08
405.916	85.08
406.043	79.08
406.171	69.08
406.299	77.08
406.426	72.08
406.554	57.08
406.681	77.08
406.809	58.08
406.937	80.08
407.064	71.08
407.192	131.08
407.319	300.08
407.447	533.08
407.574	565.08
407.702	657.08
407.83	873.08
407.957	1654.08
408.085	981.08
408.212	299.08
408.34	103.08
408.467	55.08
408.595	65.08
408.722	58.08
408.85	58.08
408.977	26.08
409.105	44.08
409.232	43.08
409.36	29.08
409.487	27.08
409.615	41.08
409.742	41.08
409.87	39.08
409.997	55.08
410.125	36.08
410.252	54.08
410.379	30.08
410.507	47.08
410.634	45.08
410.762	52.08
410.889	47.08
411.017	32.08
411.144	42.08
411.271	26.08
411.399	39.08
411.526	38.08
411.653	45.08
411.781	56.08
411.908	46.08
412.036	41.08
412.163	63.08
412.29	58.08
412.418	48.08
412.545	44.08
412.672	37.08
412.8	60.08
412.927	28.08
413.054	69.08
413.182	50.08
413.309	55.08
413.436	25.08
413.564	29.08
413.691	32.08
413.818	64.08
413.945	33.08
414.073	36.08
414.2	51.08
414.327	59.08
414.454	46.08
414.582	34.08
414.709	28.08
414.836	33.08
414.963	39.08
415.091	48.08
415.218	52.08
415.345	29.08
415.472	41.08
415.6	18.08
415.727	39.08
415.854	29.08
415.981	25.08
416.108	37.08
416.236	22.08
416.363	49.08
416.49	49.08
416.617	50.08
416.744	43.08
416.871	32.08
416.998	31.08
417.126	38.08
417.253	14.08
417.38	31.08
417.507	50.08
417.634	37.08
417.761	44.08
417.888	40.08
418.015	22.08
418.143	42.08
418.27	63.08
418.397	31.08
418.524	50.08
418.651	26.08
418.778	41.08
418.905	72.08
419.032	50.08
419.159	64.08
419.286	72.08
419.413	43.08
419.54	44.08
419.667	38.08
419.794	41.08
419.921	73.08
420.048	49.08
420.175	62.08
420.302	38.08
420.429	62.08
420.556	53.08
420.683	58.08
420.81	78.08
420.937	71.08
421.064	97.08
421.191	60.08
421.318	67.08
421.445	90.08
421.572	61.08
421.699	57.08
421.826	66.08
421.953	51.08
422.08	50.08
422.207	19.08
422.334	21.08
422.461	34.08
422.588	23.08
422.714	38.08
422.841	47.08
422.968	50.08
423.095	31.08
423.222	30.08
423.349	38.08
423.476	48.08
423.603	13.08
423.729	23.08
423.856	30.08
423.983	38.08
424.11	29.08
424.237	38.08
424.364	27.08
424.491	32.08
424.617	1.08
424.744	3.08
424.871	31.08
424.998	33.08
425.125	41.08
425.251	34.08
425.378	11.08
425.505	43.08
425.632	37.08
425.758	17.08
425.885	21.08
426.012	30.08
426.139	47.08
426.266	33.08
426.392	32.08
426.519	44.08
426.646	14.08
426.772	39.08
426.899	30.08
427.026	21.08
427.153	41.08
427.279	49.08
427.406	19.08
427.533	13.08
427.659	43.08
427.786	37.08
427.913	41.08
428.039	34.08
428.166	34.08
428.293	15.08
428.419	37.08
428.546	34.08
428.673	25.08
428.799	29.08
428.926	39.08
429.053	47.08
429.179	44.08
429.306	40.08
429.433	42.08
429.559	37.08
429.686	19.08
429.812	29.08
429.939	22.08
430.066	33.08
430.192	28.08
430.319	26.08
430.445	30.08
430.572	26.08
430.699	31.08
430.825	33.08
430.952	56.08
431.078	45.08
431.205	44.08
431.331	46.08
431.458	44.08
431.584	59.08
431.711	32.08
431.837	47.08
431.964	28.08
432.09	13.08
432.217	3.08
432.343	30.08
432.47	49.08
432.596	30.08
432.723	28.08
432.849	26.08
432.976	29.08
433.102	45.08
433.229	40.08
433.355	61.08
433.482	84.08
433.608	119.08
433.735	104.08
433.861	120.08
433.987	167.08
434.114	192.08
434.24	165.08
434.367	226.08
434.493	218.08
434.62	304.08
434.746	394.08
434.872	649.08
434.999	845.08
435.125	1750.08
435.252	5534.08
435.378	13425.08
435.504	15242.08
435.631	15455.08
435.757	15692.08
435.883	15692.08
436.01	15692.08
436.136	15692.08
436.262	15692.08
436.389	3521.08
436.515	2551.08
436.641	853.08
436.768	665.08
436.894	421.08
437.02	405.08
437.147	296.08
437.273	281.08
437.399	227.08
437.526	258.08
437.652	184.08
437.778	214.08
437.904	135.08
438.031	157.08
438.157	153.08
438.283	159.08
438.409	123.08
438.536	140.08
438.662	150.08
438.788	142.08
438.914	111.08
439.041	111.08
439.167	119.08
439.293	93.08
439.419	104.08
439.546	108.08
439.672	90.08
439.798	82.08
439.924	103.08
440.05	102.08
440.177	100.08
440.303	95.08
440.429	78.08
440.555	79.08
440.681	65.08
440.807	93.08
440.934	63.08
441.06	70.08
441.186	53.08
441.312	70.08
441.438	75.08
441.564	84.08
441.69	80.08
441.816	69.08
441.943	63.08
442.069	70.08
442.195	68.08
442.321	78.08
442.447	36.08
442.573	56.08
442.699	49.08
442.825	45.08
442.951	62.08
443.077	80.08
443.203	73.08
443.33	44.08
443.456	35.08
443.582	66.08
443.708	41.08
443.834	61.08
443.96	54.08
444.086	70.08
444.212	79.08
444.338	66.08
444.464	55.08
444.59	69.08
444.716	33.08
444.842	40.08
444.968	52.08
445.094	59.08
445.22	48.08
445.346	46.08
445.472	30.08
445.598	37.08
445.724	40.08
445.85	39.08
445.976	53.08
446.102	69.08
446.228	49.08
446.354	42.08
446.48	44.08
446.605	32.08
446.731	35.08
446.857	43.08
446.983	44.08
447.109	31.08
447.235	14.08
447.361	29.08
447.487	62.08
447.613	44.08
447.739	23.08
447.865	34.08
447.99	47.08
448.116	44.08
448.242	47.08
448.368	35.08
448.494	34.08
448.62	45.08
448.746	47.08
448.872	35.08
448.997	43.08
449.123	41.08
449.249	45.08
449.375	45.08
449.501	32.08
449.627	43.08
449.752	43.08
449.878	23.08
450.004	26.08
450.13	38.08
450.256	39.08
450.381	37.08
450.507	36.08
450.633	22.08
450.759	48.08
450.884	53.08
451.01	36.08
451.136	33.08
451.262	23.08
451.388	50.08
451.513	25.08
451.639	39.08
451.765	45.08
451.89	40.08
452.016	30.08
452.142	35.08
452.268	29.08
452.393	34.08
452.519	19.08
452.645	25.08
452.771	43.08
452.896	14.08
453.022	20.08
453.148	45.08
453.273	23.08
453.399	34.08
453.525	7.08
453.65	31.08
453.776	33.08
453.902	49.08
454.027	37.08
454.153	41.08
454.279	45.08
454.404	26.08
454.53	32.08
454.656	49.08
454.781	45.08
454.907	31.08
455.032	21.08
455.158	48.08
455.284	57.08
455.409	47.08
455.535	37.08
455.66	43.08
455.786	37.08
455.912	29.08
456.037	26.08
456.163	36.08
456.288	50.08
456.414	21.08
456.539	41.08
456.665	17.08
456.791	40.08
456.916	39.08
457.042	39.08
457.167	19.08
457.293	34.08
457.418	40.08
457.544	42.08
457.669	41.08
457.795	35.08
457.92	31.08
458.046	35.08
458.171	43.08
458.297	37.08
458.422	35.08
458.548	29.08
458.673	45.08
458.799	34.08
458.924	30.08
459.05	21.08
459.175	22.08
459.301	35.08
459.426	44.08
459.552	50.08
459.677	29.08
459.803	47.08
459.928	39.08
460.053	19.08
460.179	29.08
460.304	40.08
460.43	15.08
460.555	39.08
460.681	48.08
460.806	29.08
460.931	35.08
461.057	38.08
461.182	23.08
461.308	47.08
461.433	46.08
461.558	23.08
461.684	45.08
461.809	41.08
461.934	27.08
462.06	28.08
462.185	38.08
462.311	18.08
462.436	38.08
462.561	34.08
462.687	23.08
462.812	33.08
462.937	19.08
463.063	34.08
463.188	20.08
463.313	33.08
463.439	25.08
463.564	21.08
463.689	32.08
463.814	45.08
463.94	44.08
464.065	39.08
464.19	41.08
464.316	13.08
464.441	18.08
464.566	23.08
464.692	36.08
464.817	32.08
464.942	19.08
465.067	9.08
465.193	26.08
465.318	39.08
465.443	28.08
465.568	28.08
465.694	26.08
465.819	43.08
465.944	34.08
466.069	41.08
466.194	45.08
466.32	40.08
466.445	39.08
466.57	29.08
466.695	42.08
466.82	40.08
466.946	45.08
467.071	33.08
467.196	45.08
467.321	58.08
467.446	26.08
467.572	41.08
467.697	32.08
467.822	52.08
467.947	53.08
468.072	45.08
468.197	31.08
468.323	33.08
468.448	40.08
468.573	31.08
468.698	38.08
468.823	37.08
468.948	41.08
469.073	46.08
469.198	59.08
469.324	71.08
469.449	42.08
469.574	57.08
469.699	71.08
469.824	66.08
469.949	50.08
470.074	63.08
470.199	58.08
470.324	47.08
470.449	44.08
470.574	37.08
470.7	39.08
470.825	40.08
470.95	57.08
471.075	36.08
471.2	63.08
471.325	55.08
471.45	45.08
471.575	35.08
471.7	22.08
471.825	13.08
471.95	27.08
472.075	32.08
472.2	50.08
472.325	42.08
472.45	39.08
472.575	48.08
472.7	42.08
472.825	55.08
472.95	59.08
473.075	41.08
473.2	28.08
473.325	53.08
473.45	54.08
473.575	28.08
473.7	49.08
473.825	23.08
473.95	10.08
474.075	21.08
474.2	22.08
474.325	37.08
474.45	54.08
474.574	34.08
474.699	48.08
474.824	35.08
474.949	17.08
475.074	13.08
475.199	24.08
475.324	39.08
475.449	31.08
475.574	36.08
475.699	30.08
475.824	17.08
475.949	22.08
476.073	16.08
476.198	19.08
476.323	34.08
476.448	24.08
476.573	26.08
476.698	42.08
476.823	26.08
476.947	44.08
477.072	29.08
477.197	38.08
477.322	23.08
477.447	19.08
477.572	15.08
477.697	27.08
477.821	42.08
477.946	41.08
478.071	35.08
478.196	40.08
478.321	27.08
478.445	41.08
478.57	25.08
478.695	33.08
478.82	32.08
478.945	24.08
479.069	28.08
479.194	32.08
479.319	41.08
479.444	29.08
479.569	29.08
479.693	26.08
479.818	10.08
479.943	37.08
480.068	35.08
480.192	46.08
480.317	29.08
480.442	38.08
480.567	17.08
480.691	14.08
480.816	35.08
480.941	29.08
481.066	17.08
481.19	39.08
481.315	29.08
481.44	30.08
481.564	16.08
481.689	19.08
481.814	28.08
481.938	19.08
482.063	17.08
482.188	23.08
482.313	34.08
482.437	7.08
482.562	8.08
482.687	21.08
482.811	26.08
482.936	34.08
483.061	25.08
483.185	27.08
483.31	46.08
483.435	39.08
483.559	35.08
483.684	17.08
483.808	44.08
483.933	21.08
484.058	26.08
484.182	31.08
484.307	41.08
484.432	34.08
484.556	47.08
484.681	26.08
484.805	34.08
484.93	51.08
485.055	35.08
485.179	64.08
485.304	38.08
485.428	32.08
485.553	19.08
485.678	26.08
485.802	36.08
485.927	53.08
486.051	41.08
486.176	62.08
486.3	33.08
486.425	30.08
486.549	34.08
486.674	27.08
486.799	30.08
486.923	10.08
487.048	24.08
487.172	41.08
487.297	39.08
487.421	40.08
487.546	35.08
487.67	38.08
487.795	11.08
487.919	33.08
488.044	25.08
488.168	34.08
488.293	17.08
488.417	25.08
488.542	26.08
488.666	46.08
488.791	43.08
488.915	49.08
489.04	44.08
489.164	33.08
489.289	46.08
489.413	24.08
489.538	31.08
489.662	39.08
489.786	42.08
489.911	31.08
490.035	14.08
490.16	21.08
490.284	19.08
490.409	32.08
490.533	27.08
490.658	51.08
490.782	51.08
490.906	55.08
491.031	123.08
491.155	147.08
491.28	138.08
491.404	167.08
491.528	265.08
491.653	172.08
491.777	75.08
491.902	38.08
492.026	39.08
492.15	27.08
492.275	44.08
492.399	31.08
492.524	34.08
492.648	45.08
492.772	42.08
492.897	59.08
493.021	27.08
493.145	37.08
493.27	36.08
493.394	43.08
493.518	24.08
493.643	17.08
493.767	24.08
493.891	21.08
494.016	20.08
494.14	29.08
494.264	39.08
494.389	41.08
494.513	27.08
494.637	28.08
494.762	35.08
494.886	34.08
495.01	25.08
495.134	19.08
495.259	44.08
495.383	27.08
495.507	31.08
495.632	46.08
495.756	67.08
495.88	39.08
496.004	29.08
496.129	13.08
496.253	29.08
496.377	36.08
496.501	48.08
496.626	23.08
496.75	41.08
496.874	44.08
496.998	27.08
497.123	24.08
497.247	32.08
497.371	24.08
497.495	27.08
497.62	33.08
497.744	28.08
497.868	7.08
497.992	24.08
498.116	22.08
498.241	33.08
498.365	10.08
498.489	36.08
498.613	33.08
498.737	13.08
498.862	34.08
498.986	18.08
499.11	32.08
499.234	24.08
499.358	15.08
499.482	41.08
499.607	31.08
499.731	44.08
499.855	39.08
499.979	30.08
500.103	35.08
500.227	30.08
500.351	34.08
500.476	9.08
500.6	25.08
500.724	39.08
500.848	22.08
500.972	29.08
501.096	36.08
501.22	43.08
501.344	14.08
501.469	17.08
501.593	25.08
501.717	29.08
501.841	28.08
501.965	14.08
502.089	25.08
502.213	29.08
502.337	20.08
502.461	34.08
502.585	11.08
502.709	33.08
502.834	5.08
502.958	24.08
503.082	24.08
503.206	14.08
503.33	36.08
503.454	43.08
503.578	45.08
503.702	39.08
503.826	33.08
503.95	47.08
504.074	25.08
504.198	41.08
504.322	40.08
504.446	33.08
504.57	37.08
504.694	44.08
504.818	43.08
504.942	40.08
505.066	32.08
505.19	40.08
505.314	22.08
505.438	40.08
505.562	39.08
505.686	37.08
505.81	34.08
505.934	37.08
506.058	24.08
506.182	31.08
506.306	42.08
506.43	36.08
506.554	31.08
506.678	25.08
506.802	22.08
506.926	43.08
507.05	36.08
507.174	50.08
507.298	36.08
507.422	40.08
507.546	38.08
507.67	50.08
507.794	33.08
507.918	42.08
508.042	36.08
508.165	19.08
508.289	13.08
508.413	25.08
508.537	23.08
508.661	40.08
508.785	33.08
508.909	39.08
509.033	34.08
509.157	44.08
509.281	32.08
509.405	34.08
509.528	63.08
509.652	31.08
509.776	47.08
509.9	39.08
510.024	40.08
510.148	56.08
510.272	45.08
510.396	48.08
510.519	36.08
510.643	39.08
510.767	30.08
510.891	61.08
511.015	56.08
511.139	41.08
511.263	67.08
511.386	41.08
511.51	53.08
511.634	47.08
511.758	37.08
511.882	47.08
512.006	52.08
512.129	66.08
512.253	95.08
512.377	98.08
512.501	102.08
512.625	93.08
512.748	82.08
512.872	76.08
512.996	51.08
513.12	65.08
513.244	45.08
513.367	74.08
513.491	70.08
513.615	96.08
513.739	70.08
513.862	94.08
513.986	100.08
514.11	114.08
514.234	86.08
514.358	121.08
514.481	125.08
514.605	113.08
514.729	128.08
514.853	134.08
514.976	107.08
515.1	92.08
515.224	120.08
515.348	93.08
515.471	69.08
515.595	111.08
515.719	122.08
515.842	230.08
515.966	308.08
516.09	310.08
516.214	301.08
516.337	335.08
516.461	224.08
516.585	81.08
516.708	53.08
516.832	33.08
516.956	44.08
517.08	34.08
517.203	27.08
517.327	37.08
517.451	44.08
517.574	58.08
517.698	14.08
517.822	10.08
517.945	33.08
518.069	30.08
518.193	43.08
518.316	33.08
518.44	27.08
518.564	9.08
518.687	24.08
518.811	22.08
518.935	52.08
519.058	31.08
519.182	22.08
519.306	19.08
519.429	26.08
519.553	54.08
519.676	36.08
519.8	32.08
519.924	33.08
520.047	51.08
520.171	34.08
520.294	16.08
520.418	16.08
520.542	16.08
520.665	49.08
520.789	44.08
520.913	27.08
521.036	5.08
521.16	21.08
521.283	25.08
521.407	22.08
521.53	27.08
521.654	8.08
521.778	40.08
521.901	30.08
522.025	41.08
522.148	17.08
522.272	29.08
522.395	29.08
522.519	41.08
522.643	12.08
522.766	22.08
522.89	17.08
523.013	41.08
523.137	11.08
523.26	16.08
523.384	37.08
523.507	29.08
523.631	26.08
523.754	20.08
523.878	29.08
524.002	23.08
524.125	27.08
524.249	19.08
524.372	38.08
524.496	34.08
524.619	21.08
524.743	14.08
524.866	11.08
524.99	25.08
525.113	22.08
525.237	25.08
525.36	31.08
525.484	28.08
525.607	26.08
525.731	21.08
525.854	21.08
525.978	43.08
526.101	13.08
526.224	25.08
526.348	26.08
526.471	21.08
526.595	33.08
526.718	27.08
526.842	22.08
526.965	19.08
527.089	20.08
527.212	20.08
527.336	30.08
527.459	42.08
527.582	24.08
527.706	33.08
527.829	21.08
527.953	19.08
528.076	13.08
528.2	16.08
528.323	38.08
528.446	53.08
528.57	21.08
528.693	21.08
528.817	13.08
528.94	27.08
529.064	50.08
529.187	26.08
529.31	20.08
529.434	18.08
529.557	10.08
529.68	4.08
529.804	15.08
529.927	29.08
530.051	39.08
530.174	15.08
530.297	19.08
530.421	31.08
530.544	32.08
530.668	25.08
530.791	19.08
530.914	37.08
531.038	16.08
531.161	27.08
531.284	22.08
531.408	24.08
531.531	13.08
531.654	16.08
531.778	25.08
531.901	4.08
532.024	31.08
532.148	9.08
532.271	36.08
532.394	27.08
532.518	40.08
532.641	29.08
532.764	23.08
532.888	35.08
533.011	0.08
533.134	20.08
533.258	32.08
533.381	17.08
533.504	22.08
533.628	19.08
533.751	39.08
533.874	34.08
533.997	24.08
534.121	25.08
534.244	26.08
534.367	11.08
534.491	25.08
534.614	22.08
534.737	29.08
534.86	27.08
534.984	18.08
535.107	22.08
535.23	26.08
535.354	29.08
535.477	21.08
535.6	32.08
535.723	27.08
535.847	22.08
535.97	16.08
536.093	29.08
536.216	18.08
536.34	23.08
536.463	22.08
536.586	33.08
536.709	13.08
536.833	41.08
536.956	41.08
537.079	18.08
537.202	24.08
537.325	14.08
537.449	15.08
537.572	41.08
537.695	32.08
537.818	39.08
537.941	21.08
538.065	24.08
538.188	14.08
538.311	45.08
538.434	29.08
538.558	15.08
538.681	27.08
538.804	27.08
538.927	27.08
539.05	25.08
539.173	13.08
539.297	11.08
539.42	23.08
539.543	31.08
539.666	37.08
539.789	43.08
539.913	29.08
540.036	26.08
540.159	47.08
540.282	33.08
540.405	33.08
540.528	18.08
540.651	55.08
540.775	38.08
540.898	39.08
541.021	32.08
541.144	43.08
541.267	22.08
541.39	38.08
541.513	65.08
541.637	37.08
541.76	39.08
541.883	42.08
542.006	56.08
542.129	47.08
542.252	23.08
542.375	52.08
542.498	46.08
542.622	49.08
542.745	53.08
542.868	66.08
542.991	57.08
543.114	81.08
543.237	69.08
543.36	71.08
543.483	52.08
543.606	83.08
543.73	81.08
543.853	89.08
543.976	93.08
544.099	123.08
544.222	128.08
544.345	153.08
544.468	183.08
544.591	222.08
544.714	274.08
544.837	358.08
544.96	459.08
545.083	666.08
545.206	1112.08
545.329	2488.08
545.453	11014.08
545.576	15275.08
545.699	15692.08
545.822	15692.08
545.945	15692.08
546.068	15692.08
546.191	15692.08
546.314	15692.08
546.437	15692.08
546.56	15692.08
546.683	15692.08
546.806	15692.08
546.929	15692.08
547.052	15692.08
547.175	15692.08
547.298	15692.08
547.421	15692.08
547.544	15692.08
547.667	3863.08
547.79	4132.08
547.913	1319.08
548.036	994.08
548.159	667.08
548.282	666.08
548.405	514.08
548.528	508.08
548.651	418.08
548.774	416.08
548.897	349.08
549.02	373.08
549.143	318.08
549.266	317.08
549.389	287.08
549.512	258.08
549.635	273.08
549.758	280.08
549.881	225.08
550.004	227.08
550.127	214.08
550.25	189.08
550.373	178.08
550.496	204.08
550.619	197.08
550.742	183.08
550.865	157.08
550.988	179.08
551.111	151.08
551.234	158.08
551.356	138.08
551.479	125.08
551.602	130.08
551.725	131.08
551.848	135.08
551.971	148.08
552.094	140.08
552.217	126.08
552.34	122.08
552.463	98.08
552.586	106.08
552.709	110.08
552.832	113.08
552.955	121.08
553.077	108.08
553.2	110.08
553.323	97.08
553.446	118.08
553.569	104.08
553.692	129.08
553.815	96.08
553.938	127.08
554.061	111.08
554.184	97.08
554.306	86.08
554.429	88.08
554.552	78.08
554.675	77.08
554.798	88.08
554.921	97.08
555.044	89.08
555.167	84.08
555.29	84.08
555.412	77.08
555.535	95.08
555.658	76.08
555.781	72.08
555.904	105.08
556.027	78.08
556.15	84.08
556.272	89.08
556.395	91.08
556.518	66.08
556.641	97.08
556.764	63.08
556.887	73.08
557.01	89.08
557.132	84.08
557.255	62.08
557.378	91.08
557.501	93.08
557.624	75.08
557.747	61.08
557.869	86.08
557.992	82.08
558.115	111.08
558.238	90.08
558.361	108.08
558.483	120.08
558.606	88.08
558.729	51.08
558.852	78.08
558.975	81.08
559.098	75.08
559.22	58.08
559.343	50.08
559.466	49.08
559.589	48.08
559.712	64.08
559.834	43.08
559.957	63.08
560.08	37.08
560.203	78.08
560.325	60.08
560.448	73.08
560.571	69.08
560.694	63.08
560.817	75.08
560.939	81.08
561.062	84.08
561.185	79.08
561.308	60.08
561.43	64.08
561.553	71.08
561.676	58.08
561.799	67.08
561.921	55.08
562.044	75.08
562.167	71.08
562.29	74.08
562.413	68.08
562.535	68.08
562.658	36.08
562.781	48.08
562.903	78.08
563.026	111.08
563.149	139.08
563.272	145.08
563.394	126.08
563.517	91.08
563.64	78.08
563.763	41.08
563.885	59.08
564.008	66.08
564.131	64.08
564.254	41.08
564.376	46.08
564.499	23.08
564.622	63.08
564.744	60.08
564.867	45.08
564.99	38.08
565.113	42.08
565.235	54.08
565.358	44.08
565.481	37.08
565.603	46.08
565.726	43.08
565.849	50.08
565.971	66.08
566.094	38.08
566.217	47.08
566.34	31.08
566.462	33.08
566.585	55.08
566.708	51.08
566.83	45.08
566.953	56.08
567.076	43.08
567.198	43.08
567.321	50.08
567.444	43.08
567.566	34.08
567.689	39.08
567.812	31.08
567.934	34.08
568.057	49.08
568.18	53.08
568.302	22.08
568.425	34.08
568.548	19.08
568.67	20.08
568.793	41.08
568.916	40.08
569.038	35.08
569.161	42.08
569.283	53.08
569.406	56.08
569.529	29.08
569.651	24.08
569.774	32.08
569.897	28.08
570.019	46.08
570.142	57.08
570.265	45.08
570.387	47.08
570.51	38.08
570.632	45.08
570.755	33.08
570.878	38.08
571	42.08
571.123	30.08
571.246	41.08
571.368	37.08
571.491	32.08
571.613	23.08
571.736	19.08
571.859	52.08
571.981	23.08
572.104	26.08
572.226	38.08
572.349	32.08
572.472	43.08
572.594	45.08
572.717	35.08
572.839	35.08
572.962	38.08
573.085	40.08
573.207	24.08
573.33	43.08
573.452	32.08
573.575	56.08
573.697	47.08
573.82	41.08
573.943	30.08
574.065	43.08
574.188	48.08
574.31	77.08
574.433	45.08
574.555	66.08
574.678	38.08
574.801	40.08
574.923	33.08
575.046	35.08
575.168	47.08
575.291	40.08
575.413	41.08
575.536	24.08
575.659	49.08
575.781	59.08
575.904	57.08
576.026	81.08
576.149	84.08
576.271	130.08
576.394	190.08
576.516	545.08
576.639	3726.08
576.761	10249.08
576.884	8897.08
577.007	8766.08
577.129	8127.08
577.252	3799.08
577.374	1329.08
577.497	544.08
577.619	297.08
577.742	175.08
577.864	157.08
577.987	150.08
578.109	161.08
578.232	133.08
578.354	157.08
578.477	203.08
578.599	407.08
578.722	2041.08
578.844	9195.08
578.967	9965.08
579.089	8882.08
579.212	9198.08
579.334	5320.08
579.457	1966.08
579.579	751.08
579.702	351.08
579.824	216.08
579.947	134.08
580.069	112.08
580.192	90.08
580.314	99.08
580.437	74.08
580.559	101.08
580.682	73.08
580.804	85.08
580.927	80.08
581.049	70.08
581.172	69.08
581.294	57.08
581.417	76.08
581.539	73.08
581.662	59.08
581.784	56.08
581.907	39.08
582.029	69.08
582.152	49.08
582.274	54.08
582.396	54.08
582.519	44.08
582.641	21.08
582.764	30.08
582.886	57.08
583.009	36.08
583.131	31.08
583.254	42.08
583.376	60.08
583.499	42.08
583.621	39.08
583.743	51.08
583.866	31.08
583.988	48.08
584.111	51.08
584.233	43.08
584.356	65.08
584.478	35.08
584.601	5.08
584.723	28.08
584.845	39.08
584.968	15.08
585.09	24.08
585.213	42.08
585.335	19.08
585.458	30.08
585.58	37.08
585.702	47.08
585.825	59.08
585.947	36.08
586.07	18.08
586.192	26.08
586.315	46.08
586.437	26.08
586.559	28.08
586.682	31.08
586.804	41.08
586.927	37.08
587.049	38.08
587.171	30.08
587.294	31.08
587.416	66.08
587.539	39.08
587.661	31.08
587.783	24.08
587.906	20.08
588.028	29.08
588.151	35.08
588.273	55.08
588.395	29.08
588.518	47.08
588.64	30.08
588.763	39.08
588.885	40.08
589.007	50.08
589.13	26.08
589.252	24.08
589.375	53.08
589.497	36.08
589.619	38.08
589.742	43.08
589.864	44.08
589.986	32.08
590.109	21.08
590.231	32.08
590.354	42.08
590.476	32.08
590.598	23.08
590.721	37.08
590.843	41.08
590.965	33.08
591.088	34.08
591.21	37.08
591.332	30.08
591.455	14.08
591.577	5.08
591.7	24.08
591.822	31.08
591.944	32.08
592.067	25.08
592.189	19.08
592.311	49.08
592.434	30.08
592.556	35.08
592.678	43.08
592.801	46.08
592.923	26.08
593.045	40.08
593.168	21.08
593.29	43.08
593.412	39.08
593.535	22.08
593.657	41.08
593.779	34.08
593.902	23.08
594.024	28.08
594.146	47.08
594.269	27.08
594.391	22.08
594.513	21.08
594.636	29.08
594.758	8.08
594.88	42.08
595.003	32.08
595.125	30.08
595.247	34.08
595.37	43.08
595.492	34.08
595.614	53.08
595.737	34.08
595.859	33.08
595.981	41.08
596.104	23.08
596.226	24.08
596.348	37.08
596.471	33.08
596.593	33.08
596.715	17.08
596.838	26.08
596.96	13.08
597.082	31.08
597.204	33.08
597.327	54.08
597.449	39.08
597.571	19.08
597.694	26.08
597.816	33.08
597.938	41.08
598.061	31.08
598.183	27.08
598.305	34.08
598.427	39.08
598.55	26.08
598.672	39.08
598.794	26.08
598.917	40.08
599.039	30.08
599.161	23.08
599.283	31.08
599.406	43.08
599.528	43.08
599.65	55.08
599.773	32.08
599.895	55.08
600.017	37.08
600.139	11.08
600.262	25.08
600.384	24.08
600.506	33.08
600.628	51.08
600.751	54.08
600.873	35.08
600.995	32.08
601.118	40.08
601.24	30.08
601.362	44.08
601.484	25.08
601.607	25.08
601.729	22.08
601.851	24.08
601.973	13.08
602.096	23.08
602.218	42.08
602.34	44.08
602.462	28.08
602.585	39.08
602.707	14.08
602.829	37.08
602.951	29.08
603.074	20.08
603.196	30.08
603.318	25.08
603.44	36.08
603.563	29.08
603.685	17.08
603.807	27.08
603.929	34.08
604.052	50.08
604.174	43.08
604.296	39.08
604.418	43.08
604.541	35.08
604.663	35.08
604.785	31.08
604.907	29.08
605.03	22.08
605.152	65.08
605.274	18.08
605.396	29.08
605.519	26.08
605.641	33.08
605.763	20.08
605.885	21.08
606.008	28.08
606.13	45.08
606.252	29.08
606.374	17.08
606.496	-0.92
606.619	31.08
606.741	15.08
606.863	54.08
606.985	48.08
607.108	26.08
607.23	22.08
607.352	18.08
607.474	24.08
607.596	48.08
607.719	15.08
607.841	32.08
607.963	25.08
608.085	17.08
608.207	31.08
608.33	38.08
608.452	25.08
608.574	22.08
608.696	31.08
608.819	34.08
608.941	25.08
609.063	25.08
609.185	22.08
609.307	25.08
609.43	42.08
609.552	40.08
609.674	21.08
609.796	43.08
609.918	39.08
610.041	14.08
610.163	35.08
610.285	29.08
610.407	35.08
610.529	29.08
610.652	38.08
610.774	38.08
610.896	38.08
611.018	30.08
611.14	28.08
611.263	26.08
611.385	19.08
611.507	37.08
611.629	25.08
611.751	29.08
611.873	48.08
611.996	34.08
612.118	26.08
612.24	34.08
612.362	40.08
612.484	56.08
612.607	60.08
612.729	54.08
612.851	43.08
612.973	18.08
613.095	17.08
613.218	48.08
613.34	35.08
613.462	22.08
613.584	17.08
613.706	14.08
613.828	37.08
613.951	39.08
614.073	30.08
614.195	13.08
614.317	44.08
614.439	29.08
614.561	33.08
614.684	35.08
614.806	34.08
614.928	38.08
615.05	39.08
615.172	47.08
615.294	34.08
615.417	21.08
615.539	37.08
615.661	24.08
615.783	37.08
615.905	20.08
616.027	29.08
616.15	38.08
616.272	29.08
616.394	22.08
616.516	30.08
616.638	37.08
616.76	37.08
616.883	28.08
617.005	14.08
617.127	6.08
617.249	29.08
617.371	33.08
617.493	32.08
617.615	49.08
617.738	35.08
617.86	39.08
617.982	29.08
618.104	40.08
618.226	18.08
618.348	23.08
618.471	43.08
618.593	27.08
618.715	36.08
618.837	37.08
618.959	34.08
619.081	39.08
619.203	40.08
619.326	24.08
619.448	20.08
619.57	47.08
619.692	27.08
619.814	42.08
619.936	41.08
620.058	42.08
620.181	40.08
620.303	21.08
620.425	27.08
620.547	18.08
620.669	29.08
620.791	22.08
620.913	19.08
621.036	30.08
621.158	22.08
621.28	44.08
621.402	21.08
621.524	23.08
621.646	26.08
621.768	7.08
621.891	13.08
622.013	23.08
622.135	2.08
622.257	6.08
622.379	17.08
622.501	14.08
622.623	17.08
622.745	15.08
622.868	26.08
622.99	17.08
623.112	25.08
623.234	26.08
623.356	33.08
623.478	11.08
623.6	31.08
623.722	17.08
623.845	16.08
623.967	40.08
624.089	35.08
624.211	29.08
624.333	22.08
624.455	41.08
624.577	17.08
624.699	22.08
624.822	34.08
624.944	2.08
625.066	21.08
625.188	20.08
625.31	35.08
625.432	45.08
625.554	35.08
625.676	45.08
625.799	39.08
625.921	43.08
626.043	38.08
626.165	38.08
626.287	6.08
626.409	26.08
626.531	19.08
626.653	25.08
626.775	31.08
626.898	35.08
627.02	47.08
627.142	61.08
627.264	29.08
627.386	21.08
627.508	54.08
627.63	41.08
627.752	39.08
627.874	39.08
627.997	46.08
628.119	35.08
628.241	41.08
628.363	48.08
628.485	26.08
628.607	31.08
628.729	18.08
628.851	18.08
628.973	34.08
629.096	25.08
629.218	14.08
629.34	26.08
629.462	17.08
629.584	15.08
629.706	27.08
629.828	32.08
629.95	36.08
630.072	33.08
630.195	24.08
630.317	23.08
630.439	21.08
630.561	22.08
630.683	28.08
630.805	37.08
630.927	24.08
631.049	26.08
631.171	11.08
631.293	30.08
631.416	29.08
631.538	27.08
631.66	26.08
631.782	41.08
631.904	41.08
632.026	8.08
632.148	19.08
632.27	27.08
632.392	41.08
632.514	33.08
632.637	21.08
632.759	3.08
632.881	13.08
633.003	21.08
633.125	23.08
633.247	19.08
633.369	13.08
633.491	26.08
633.613	34.08
633.735	16.08
633.858	17.08
633.98	27.08
634.102	12.08
634.224	38.08
634.346	31.08
634.468	24.08
634.59	19.08
634.712	24.08
634.834	17.08
634.956	23.08
635.078	5.08
635.201	10.08
635.323	27.08
635.445	20.08
635.567	22.08
635.689	27.08
635.811	17.08
635.933	17.08
636.055	34.08
636.177	17.08
636.299	21.08
636.421	8.08
636.544	24.08
636.666	38.08
636.788	13.08
636.91	30.08
637.032	13.08
637.154	29.08
637.276	49.08
637.398	30.08
637.52	42.08
637.642	21.08
637.764	19.08
637.887	25.08
638.009	30.08
638.131	30.08
638.253	28.08
638.375	43.08
638.497	21.08
638.619	5.08
638.741	26.08
638.863	7.08
638.985	17.08
639.107	29.08
639.23	37.08
639.352	31.08
639.474	29.08
639.596	23.08
639.718	22.08
639.84	20.08
639.962	27.08
640.084	47.08
640.206	50.08
640.328	7.08
640.45	18.08
640.573	24.08
640.695	20.08
640.817	16.08
640.939	29.08
641.061	22.08
641.183	20.08
641.305	24.08
641.427	20.08
641.549	22.08
641.671	28.08
641.793	26.08
641.915	25.08
642.038	35.08
642.16	31.08
642.282	29.08
642.404	18.08
642.526	24.08
642.648	25.08
642.77	8.08
642.892	13.08
643.014	35.08
643.136	29.08
643.258	25.08
643.381	25.08
643.503	38.08
643.625	15.08
643.747	6.08
643.869	34.08
643.991	29.08
644.113	32.08
644.235	25.08
644.357	16.08
644.479	38.08
644.601	10.08
644.723	22.08
644.846	24.08
644.968	24.08
645.09	18.08
645.212	6.08
645.334	29.08
645.456	27.08
645.578	31.08
645.7	33.08
645.822	27.08
645.944	34.08
646.066	34.08
646.188	15.08
646.311	30.08
646.433	2.08
646.555	53.08
646.677	26.08
646.799	29.08
646.921	26.08
647.043	36.08
647.165	17.08
647.287	1.08
647.409	14.08
647.531	35.08
647.654	14.08
647.776	33.08
647.898	32.08
648.02	29.08
648.142	14.08
648.264	17.08
648.386	27.08
648.508	14.08
648.63	30.08
648.752	42.08
648.874	31.08
648.997	17.08
649.119	45.08
649.241	22.08
649.363	37.08
649.485	29.08
649.607	20.08
649.729	-4.92
649.851	23.08
649.973	19.08
650.095	16.08
650.217	29.08
650.34	15.08
650.462	29.08
650.584	32.08
650.706	23.08
650.828	33.08
650.95	22.08
651.072	31.08
651.194	14.08
651.316	9.08
651.438	39.08
651.56	13.08
651.683	1.08
651.805	28.08
651.927	31.08
652.049	22.08
652.171	6.08
652.293	13.08
652.415	13.08
652.537	16.08
652.659	9.08
652.781	25.08
652.903	8.08
653.026	34.08
653.148	37.08
653.27	42.08
653.392	29.08
653.514	18.08
653.636	2.08
653.758	17.08
653.88	13.08
654.002	26.08
654.124	30.08
654.247	29.08
654.369	41.08
654.491	8.08
654.613	19.08
654.735	19.08
654.857	33.08
654.979	20.08
655.101	33.08
655.223	50.08
655.345	21.08
655.468	25.08
655.59	32.08
655.712	27.08
655.834	18.08
655.956	41.08
656.078	23.08
656.2	17.08
656.322	13.08
656.444	4.08
656.566	32.08
656.689	25.08
656.811	22.08
656.933	23.08
657.055	-2.92
657.177	7.08
657.299	1.08
657.421	9.08
657.543	26.08
657.665	18.08
657.787	18.08
657.91	10.08
658.032	23.08
658.154	9.08
658.276	28.08
658.398	3.08
658.52	17.08
658.642	22.08
658.764	22.08
658.886	3.08
659.009	18.08
659.131	39.08
659.253	43.08
659.375	17.08
659.497	16.08
659.619	18.08
659.741	7.08
659.863	13.08
659.985	7.08
660.108	52.08
660.23	14.08
660.352	29.08
660.474	16.08
660.596	29.08
660.718	22.08
660.84	17.08
660.962	33.08
661.084	14.08
661.207	3.08
661.329	16.08
661.451	7.08
661.573	20.08
661.695	42.08
661.817	38.08
661.939	33.08
662.061	30.08
662.184	13.08
662.306	11.08
662.428	15.08
662.55	27.08
662.672	13.08
662.794	18.08
662.916	17.08
663.038	17.08
663.161	39.08
663.283	31.08
663.405	39.08
663.527	15.08
663.649	37.08
663.771	26.08
663.893	23.08
664.015	21.08
664.138	23.08
664.26	27.08
664.382	16.08
664.504	-0.92
664.626	6.08
664.748	23.08
664.87	5.08
664.992	36.08
665.115	23.08
665.237	20.08
665.359	17.08
665.481	13.08
665.603	16.08
665.725	-6.92
665.847	3.08
665.97	14.08
666.092	30.08
666.214	26.08
666.336	10.08
666.458	14.08
666.58	17.08
666.702	19.08
666.825	7.08
666.947	17.08
667.069	14.08
667.191	11.08
667.313	28.08
667.435	12.08
667.557	-15.92
667.68	7.08
667.802	15.08
667.924	15.08
668.046	29.08
668.168	28.08
668.29	38.08
668.412	18.08
668.535	35.08
668.657	-0.92
668.779	11.08
668.901	28.08
669.023	30.08
669.145	29.08
669.267	16.08
669.39	20.08
669.512	19.08
669.634	13.08
669.756	12.08
669.878	24.08
670	28.08
670.123	23.08
670.245	54.08
670.367	33.08
670.489	33.08
670.611	23.08
670.733	20.08
670.856	13.08
670.978	29.08
671.1	27.08
671.222	18.08
671.344	11.08
671.466	15.08
671.589	7.08
671.711	-2.92
671.833	-9.92
671.955	30.08
672.077	30.08
672.199	44.08
672.322	27.08
672.444	0.08
672.566	22.08
672.688	16.08
672.81	29.08
672.932	18.08
673.055	8.08
673.177	3.08
673.299	15.08
673.421	2.08
673.543	18.08
673.665	33.08
673.788	40.08
673.91	14.08
674.032	1.08
674.154	21.08
674.276	29.08
674.399	6.08
674.521	18.08
674.643	26.08
674.765	27.08
674.887	33.08
675.009	21.08
675.132	2.08
675.254	20.08
675.376	20.08
675.498	0.08
675.62	39.08
675.743	29.08
675.865	22.08
675.987	2.08
676.109	25.08
676.231	22.08
676.354	16.08
676.476	4.08
676.598	14.08
676.72	35.08
676.842	29.08
676.965	34.08
677.087	25.08
677.209	25.08
677.331	33.08
677.453	28.08
677.576	29.08
677.698	23.08
677.82	25.08
677.942	11.08
678.064	18.08
678.187	10.08
678.309	9.08
678.431	9.08
678.553	7.08
678.675	30.08
678.798	34.08
678.92	25.08
679.042	26.08
679.164	18.08
679.286	14.08
679.409	14.08
679.531	7.08
679.653	7.08
679.775	1.08
679.898	14.08
680.02	14.08
680.142	14.08
680.264	25.08
680.386	-6.92
680.509	23.08
680.631	19.08
680.753	13.08
680.875	3.08
680.998	29.08
681.12	9.08
681.242	25.08
681.364	13.08
681.486	12.08
681.609	21.08
681.731	4.08
681.853	16.08
681.975	0.08
682.098	23.08
682.22	39.08
682.342	24.08
682.464	41.08
682.587	15.08
682.709	20.08
682.831	2.08
682.953	4.08
683.076	22.08
683.198	30.08
683.32	44.08
683.442	23.08
683.565	13.08
683.687	15.08
683.809	14.08
683.931	-0.92
684.054	34.08
684.176	26.08
684.298	38.08
684.42	20.08
684.543	15.08
684.665	26.08
684.787	13.08
684.909	14.08
685.032	38.08
685.154	9.08
685.276	17.08
685.398	11.08
685.521	10.08
685.643	23.08
685.765	38.08
685.887	33.08
686.01	19.08
686.132	23.08
686.254	13.08
686.377	21.08
686.499	21.08
686.621	33.08
686.743	28.08
686.866	29.08
686.988	43.08
687.11	26.08
687.232	8.08
687.355	-6.92
687.477	11.08
687.599	20.08
687.722	1.08
687.844	18.08
687.966	23.08
688.088	30.08
688.211	49.08
688.333	19.08
688.455	13.08
688.578	32.08
688.7	17.08
688.822	18.08
688.944	1.08
689.067	49.08
689.189	9.08
689.311	11.08
689.434	5.08
689.556	18.08
689.678	9.08
689.801	3.08
689.923	29.08
690.045	30.08
690.167	21.08
690.29	29.08
690.412	25.08
690.534	31.08
690.657	1.08
690.779	7.08
690.901	23.08
691.024	26.08
691.146	21.08
691.268	23.08
691.391	30.08
691.513	21.08
691.635	18.08
691.758	33.08
691.88	27.08
692.002	15.08
692.125	11.08
692.247	28.08
692.369	4.08
692.492	15.08
692.614	8.08
692.736	21.08
692.859	10.08
692.981	14.08
693.103	14.08
693.226	24.08
693.348	44.08
693.47	21.08
693.593	36.08
693.715	35.08
693.837	57.08
693.96	33.08
694.082	7.08
694.204	14.08
694.327	18.08
694.449	-1.92
694.571	17.08
694.694	23.08
694.816	17.08
694.938	-0.92
695.061	17.08
695.183	28.08
695.305	17.08
695.428	29.08
695.55	-1.92
695.672	31.08
695.795	31.08
695.917	27.08
696.04	27.08
696.162	34.08
696.284	18.08
696.407	19.08
696.529	16.08
696.651	33.08
696.774	18.08
696.896	23.08
697.019	11.08
697.141	30.08
697.263	-4.92
697.386	24.08
697.508	18.08
697.63	23.08
697.753	31.08
697.875	17.08
697.998	23.08
698.12	22.08
698.242	25.08
698.365	12.08
698.487	16.08
698.61	30.08
698.732	13.08
698.854	4.08
698.977	1.08
699.099	15.08
699.221	14.08
699.344	24.08
699.466	15.08
699.589	20.08
699.711	10.08
699.834	27.08
699.956	25.08
700.078	31.08
700.201	21.08
700.323	49.08
700.446	17.08
700.568	0.08
700.69	17.08
700.813	35.08
700.935	36.08
701.058	14.08
701.18	14.08
701.302	9.08
701.425	19.08
701.547	18.08
701.67	15.08
701.792	30.08
701.915	10.08
702.037	-2.92
702.159	19.08
702.282	21.08
702.404	31.08
702.527	26.08
702.649	53.08
702.772	30.08
702.894	24.08
703.017	26.08
703.139	27.08
703.261	32.08
703.384	27.08
703.506	14.08
703.629	18.08
703.751	36.08
703.874	40.08
703.996	10.08
704.119	27.08
704.241	11.08
704.364	-0.92
704.486	24.08
704.608	31.08
704.731	21.08
704.853	5.08
704.976	13.08
705.098	22.08
705.221	3.08
705.343	3.08
705.466	21.08
705.588	27.08
705.711	19.08
705.833	18.08
705.956	21.08
706.078	25.08
706.201	30.08
706.323	16.08
706.446	-1.92
