Data from LowRes_mercury_15_20_11_07_2024_HR4C61881__28__15-23-35-071.txt Node

Date: Thu Nov 07 15:23:35 EST 2024
User: crc00042
Spectrometer: HR4C6188
Trigger mode: 4
Integration Time (sec): 1.000000E-1
Scans to average: 1
Electric dark correction enabled: true
Nonlinearity correction enabled: false
Boxcar width: 0
XAxis mode: Wavelengths
Number of Pixels in Spectrum: 3648
>>>>>Begin Spectral Data<<<<<
245.66	-80.31
245.797	-80.31
245.934	-80.31
246.071	-71.31
246.208	-4.31
246.344	-16.31
246.481	6.69
246.618	-22.31
246.755	-3.31
246.892	3.69
247.029	-8.31
247.165	-17.31
247.302	24.69
247.439	-4.31
247.576	14.69
247.713	-13.31
247.849	31.69
247.986	3.69
248.123	-15.31
248.26	12.69
248.396	8.69
248.533	0.69
248.67	5.69
248.806	15.69
248.943	-16.31
249.08	-6.31
249.216	-11.31
249.353	-15.31
249.49	5.69
249.626	-2.31
249.763	-7.31
249.9	-16.31
250.036	-15.31
250.173	-8.31
250.309	12.69
250.446	4.69
250.582	-12.31
250.719	-2.31
250.856	-1.31
250.992	2.69
251.129	17.69
251.265	-9.31
251.402	14.69
251.538	8.69
251.675	2.69
251.811	0.69
251.948	5.69
252.084	-10.31
252.221	9.69
252.357	-8.31
252.493	8.69
252.63	-8.31
252.766	12.69
252.903	-5.31
253.039	-0.31
253.175	-1.31
253.312	-1.31
253.448	-1.31
253.585	-6.31
253.721	5.69
253.857	7.69
253.994	22.69
254.13	-2.31
254.266	-4.31
254.403	4.69
254.539	10.69
254.675	6.69
254.811	2.69
254.948	-7.31
255.084	-5.31
255.22	9.69
255.356	-8.31
255.493	6.69
255.629	2.69
255.765	-11.31
255.901	12.69
256.037	12.69
256.174	6.69
256.31	-9.31
256.446	-11.31
256.582	-6.31
256.718	14.69
256.854	8.69
256.991	4.69
257.127	7.69
257.263	-13.31
257.399	16.69
257.535	-6.31
257.671	-25.31
257.807	-6.31
257.943	-24.31
258.079	-7.31
258.215	-0.31
258.351	20.69
258.487	-3.31
258.623	30.69
258.759	4.69
258.895	1.69
259.031	0.69
259.167	-0.31
259.303	8.69
259.439	-2.31
259.575	9.69
259.711	4.69
259.847	-5.31
259.983	9.69
260.119	9.69
260.255	-6.31
260.391	14.69
260.527	8.69
260.663	22.69
260.799	9.69
260.934	-7.31
261.07	12.69
261.206	-14.31
261.342	-14.31
261.478	9.69
261.614	16.69
261.749	9.69
261.885	-9.31
262.021	-3.31
262.157	8.69
262.293	-0.31
262.428	-7.31
262.564	1.69
262.7	15.69
262.836	9.69
262.971	10.69
263.107	-2.31
263.243	22.69
263.378	-0.31
263.514	-8.31
263.65	-0.31
263.785	-6.31
263.921	-16.31
264.057	-6.31
264.192	-1.31
264.328	13.69
264.464	-3.31
264.599	15.69
264.735	25.69
264.871	5.69
265.006	0.69
265.142	-11.31
265.277	8.69
265.413	18.69
265.548	14.69
265.684	22.69
265.819	-12.31
265.955	-15.31
266.091	-5.31
266.226	-11.31
266.362	-6.31
266.497	15.69
266.633	5.69
266.768	4.69
266.903	4.69
267.039	9.69
267.174	27.69
267.31	6.69
267.445	-1.31
267.581	-14.31
267.716	-1.31
267.851	10.69
267.987	-2.31
268.122	-3.31
268.258	5.69
268.393	-17.31
268.528	-7.31
268.664	-0.31
268.799	-8.31
268.934	7.69
269.07	16.69
269.205	13.69
269.34	29.69
269.476	11.69
269.611	4.69
269.746	15.69
269.881	-8.31
270.017	-3.31
270.152	5.69
270.287	16.69
270.422	16.69
270.558	-6.31
270.693	20.69
270.828	10.69
270.963	0.69
271.098	-4.31
271.234	-3.31
271.369	9.69
271.504	-0.31
271.639	-12.31
271.774	4.69
271.909	12.69
272.045	-18.31
272.18	-6.31
272.315	-8.31
272.45	25.69
272.585	-3.31
272.72	3.69
272.855	-0.31
272.99	25.69
273.125	4.69
273.26	-9.31
273.395	-14.31
273.53	-3.31
273.665	5.69
273.8	33.69
273.935	15.69
274.07	7.69
274.205	6.69
274.34	6.69
274.475	-12.31
274.61	8.69
274.745	-2.31
274.88	26.69
275.015	13.69
275.15	-4.31
275.285	23.69
275.42	-11.31
275.555	18.69
275.69	2.69
275.825	-5.31
275.959	10.69
276.094	3.69
276.229	11.69
276.364	-17.31
276.499	-5.31
276.634	5.69
276.768	-9.31
276.903	-2.31
277.038	9.69
277.173	14.69
277.308	-0.31
277.442	0.69
277.577	-12.31
277.712	10.69
277.847	14.69
277.981	17.69
278.116	-22.31
278.251	-3.31
278.386	4.69
278.52	4.69
278.655	-8.31
278.79	-0.31
278.924	-11.31
279.059	14.69
279.194	-8.31
279.328	25.69
279.463	13.69
279.598	34.69
279.732	-2.31
279.867	0.69
280.001	5.69
280.136	-5.31
280.271	12.69
280.405	12.69
280.54	3.69
280.674	7.69
280.809	27.69
280.943	27.69
281.078	13.69
281.213	26.69
281.347	9.69
281.482	11.69
281.616	7.69
281.751	11.69
281.885	-20.31
282.02	-2.31
282.154	17.69
282.288	-16.31
282.423	-10.31
282.557	-5.31
282.692	13.69
282.826	2.69
282.961	20.69
283.095	-9.31
283.229	5.69
283.364	-21.31
283.498	-9.31
283.633	-8.31
283.767	-17.31
283.901	-24.31
284.036	-1.31
284.17	-0.31
284.304	-0.31
284.439	5.69
284.573	1.69
284.707	21.69
284.842	6.69
284.976	-9.31
285.11	-15.31
285.244	6.69
285.379	35.69
285.513	-18.31
285.647	19.69
285.781	2.69
285.916	1.69
286.05	-4.31
286.184	24.69
286.318	12.69
286.453	-15.31
286.587	-29.31
286.721	-1.31
286.855	-8.31
286.989	0.69
287.123	2.69
287.258	7.69
287.392	2.69
287.526	12.69
287.66	-9.31
287.794	-5.31
287.928	-6.31
288.062	11.69
288.196	-2.31
288.33	4.69
288.464	9.69
288.598	23.69
288.733	-8.31
288.867	24.69
289.001	-0.31
289.135	4.69
289.269	-4.31
289.403	-9.31
289.537	5.69
289.671	10.69
289.805	-11.31
289.939	7.69
290.073	7.69
290.207	4.69
290.34	-16.31
290.474	25.69
290.608	1.69
290.742	-4.31
290.876	-0.31
291.01	-1.31
291.144	20.69
291.278	17.69
291.412	12.69
291.546	0.69
291.679	-3.31
291.813	1.69
291.947	-3.31
292.081	-18.31
292.215	-4.31
292.349	12.69
292.482	15.69
292.616	2.69
292.75	5.69
292.884	13.69
293.018	-4.31
293.151	-15.31
293.285	-0.31
293.419	-9.31
293.553	-1.31
293.686	7.69
293.82	2.69
293.954	10.69
294.088	10.69
294.221	-17.31
294.355	-9.31
294.489	5.69
294.622	-4.31
294.756	6.69
294.89	11.69
295.023	9.69
295.157	13.69
295.291	10.69
295.424	15.69
295.558	5.69
295.691	-8.31
295.825	-3.31
295.959	-12.31
296.092	-5.31
296.226	6.69
296.359	-3.31
296.493	13.69
296.627	5.69
296.76	3.69
296.894	-9.31
297.027	-5.31
297.161	-12.31
297.294	-6.31
297.428	5.69
297.561	9.69
297.695	9.69
297.828	-10.31
297.962	4.69
298.095	2.69
298.229	-5.31
298.362	2.69
298.495	-11.31
298.629	-18.31
298.762	-0.31
298.896	-7.31
299.029	-17.31
299.162	4.69
299.296	11.69
299.429	-3.31
299.563	14.69
299.696	2.69
299.829	-2.31
299.963	-10.31
300.096	2.69
300.229	11.69
300.363	-7.31
300.496	-10.31
300.629	0.69
300.763	-10.31
300.896	4.69
301.029	11.69
301.162	8.69
301.296	-18.31
301.429	11.69
301.562	-13.31
301.695	3.69
301.829	-4.31
301.962	2.69
302.095	5.69
302.228	-4.31
302.362	16.69
302.495	-4.31
302.628	15.69
302.761	-11.31
302.894	-4.31
303.027	17.69
303.161	-17.31
303.294	-14.31
303.427	26.69
303.56	16.69
303.693	11.69
303.826	-3.31
303.959	-11.31
304.092	13.69
304.225	-1.31
304.359	8.69
304.492	17.69
304.625	-11.31
304.758	7.69
304.891	-8.31
305.024	-1.31
305.157	9.69
305.29	5.69
305.423	-0.31
305.556	-5.31
305.689	20.69
305.822	15.69
305.955	6.69
306.088	-0.31
306.221	-12.31
306.354	-13.31
306.487	-9.31
306.62	-15.31
306.752	-12.31
306.885	8.69
307.018	-4.31
307.151	-3.31
307.284	4.69
307.417	-21.31
307.55	3.69
307.683	-3.31
307.816	10.69
307.948	6.69
308.081	14.69
308.214	18.69
308.347	1.69
308.48	3.69
308.613	-16.31
308.745	15.69
308.878	-11.31
309.011	0.69
309.144	12.69
309.277	8.69
309.409	31.69
309.542	5.69
309.675	10.69
309.808	-9.31
309.94	8.69
310.073	-9.31
310.206	2.69
310.339	2.69
310.471	-19.31
310.604	10.69
310.737	-11.31
310.869	-1.31
311.002	9.69
311.135	-3.31
311.267	-5.31
311.4	10.69
311.533	40.69
311.665	-16.31
311.798	-5.31
311.93	21.69
312.063	16.69
312.196	40.69
312.328	76.69
312.461	46.69
312.593	21.69
312.726	60.69
312.859	77.69
312.991	169.69
313.124	36.69
313.256	9.69
313.389	7.69
313.521	-12.31
313.654	-4.31
313.786	-12.31
313.919	-14.31
314.051	-0.31
314.184	19.69
314.316	-9.31
314.449	-19.31
314.581	-4.31
314.714	5.69
314.846	15.69
314.978	-1.31
315.111	2.69
315.243	-10.31
315.376	15.69
315.508	8.69
315.641	6.69
315.773	16.69
315.905	-12.31
316.038	-7.31
316.17	-0.31
316.302	-2.31
316.435	-5.31
316.567	-10.31
316.699	21.69
316.832	3.69
316.964	19.69
317.096	-8.31
317.229	-11.31
317.361	-19.31
317.493	-16.31
317.625	-24.31
317.758	20.69
317.89	-2.31
318.022	-6.31
318.155	-8.31
318.287	4.69
318.419	15.69
318.551	12.69
318.683	2.69
318.816	0.69
318.948	-3.31
319.08	-4.31
319.212	2.69
319.344	-19.31
319.477	17.69
319.609	12.69
319.741	8.69
319.873	-20.31
320.005	15.69
320.137	3.69
320.269	10.69
320.401	6.69
320.534	-1.31
320.666	-12.31
320.798	-25.31
320.93	-15.31
321.062	-21.31
321.194	-13.31
321.326	7.69
321.458	16.69
321.59	1.69
321.722	-5.31
321.854	-10.31
321.986	10.69
322.118	-10.31
322.25	-22.31
322.382	-3.31
322.514	4.69
322.646	-17.31
322.778	26.69
322.91	12.69
323.042	20.69
323.174	-13.31
323.306	-8.31
323.438	-19.31
323.57	1.69
323.702	-9.31
323.834	-17.31
323.966	-20.31
324.097	-2.31
324.229	0.69
324.361	12.69
324.493	3.69
324.625	-9.31
324.757	10.69
324.889	-8.31
325.021	1.69
325.152	16.69
325.284	19.69
325.416	4.69
325.548	14.69
325.68	1.69
325.811	11.69
325.943	12.69
326.075	-3.31
326.207	-2.31
326.339	20.69
326.47	-10.31
326.602	7.69
326.734	4.69
326.866	8.69
326.997	-5.31
327.129	-0.31
327.261	-14.31
327.392	-3.31
327.524	-3.31
327.656	2.69
327.787	13.69
327.919	11.69
328.051	6.69
328.182	8.69
328.314	4.69
328.446	-5.31
328.577	20.69
328.709	18.69
328.841	5.69
328.972	-1.31
329.104	-5.31
329.235	8.69
329.367	-10.31
329.499	6.69
329.63	3.69
329.762	-0.31
329.893	12.69
330.025	-9.31
330.156	-29.31
330.288	5.69
330.419	21.69
330.551	7.69
330.683	28.69
330.814	-0.31
330.946	19.69
331.077	-3.31
331.208	-6.31
331.34	-17.31
331.471	-10.31
331.603	-4.31
331.734	-12.31
331.866	7.69
331.997	-1.31
332.129	10.69
332.26	0.69
332.392	-4.31
332.523	-2.31
332.654	-5.31
332.786	1.69
332.917	-6.31
333.048	22.69
333.18	7.69
333.311	9.69
333.443	8.69
333.574	-4.31
333.705	29.69
333.837	38.69
333.968	119.69
334.099	243.69
334.231	214.69
334.362	59.69
334.493	26.69
334.624	26.69
334.756	23.69
334.887	4.69
335.018	1.69
335.15	16.69
335.281	18.69
335.412	26.69
335.543	8.69
335.675	-3.31
335.806	-9.31
335.937	0.69
336.068	-3.31
336.199	23.69
336.331	-0.31
336.462	6.69
336.593	1.69
336.724	-3.31
336.855	21.69
336.986	26.69
337.118	18.69
337.249	12.69
337.38	6.69
337.511	18.69
337.642	0.69
337.773	4.69
337.904	16.69
338.035	6.69
338.166	3.69
338.298	8.69
338.429	-23.31
338.56	22.69
338.691	19.69
338.822	0.69
338.953	5.69
339.084	15.69
339.215	6.69
339.346	0.69
339.477	18.69
339.608	11.69
339.739	2.69
339.87	-0.31
340.001	1.69
340.132	24.69
340.263	-11.31
340.394	10.69
340.525	26.69
340.656	2.69
340.787	-9.31
340.918	20.69
341.049	11.69
341.179	3.69
341.31	18.69
341.441	8.69
341.572	19.69
341.703	11.69
341.834	1.69
341.965	18.69
342.096	3.69
342.227	14.69
342.357	2.69
342.488	-6.31
342.619	31.69
342.75	15.69
342.881	-2.31
343.012	26.69
343.142	40.69
343.273	15.69
343.404	31.69
343.535	39.69
343.666	30.69
343.796	16.69
343.927	30.69
344.058	38.69
344.189	30.69
344.319	30.69
344.45	35.69
344.581	29.69
344.712	3.69
344.842	20.69
344.973	14.69
345.104	35.69
345.234	32.69
345.365	12.69
345.496	29.69
345.626	17.69
345.757	34.69
345.888	13.69
346.018	38.69
346.149	19.69
346.28	49.69
346.41	18.69
346.541	38.69
346.672	20.69
346.802	32.69
346.933	26.69
347.063	30.69
347.194	10.69
347.325	9.69
347.455	47.69
347.586	48.69
347.716	10.69
347.847	29.69
347.977	45.69
348.108	21.69
348.238	24.69
348.369	21.69
348.499	42.69
348.63	53.69
348.76	40.69
348.891	46.69
349.021	58.69
349.152	43.69
349.282	60.69
349.413	35.69
349.543	55.69
349.674	27.69
349.804	36.69
349.935	35.69
350.065	42.69
350.196	26.69
350.326	33.69
350.456	19.69
350.587	28.69
350.717	21.69
350.848	10.69
350.978	35.69
351.108	6.69
351.239	34.69
351.369	16.69
351.499	18.69
351.63	9.69
351.76	26.69
351.89	23.69
352.021	13.69
352.151	20.69
352.281	9.69
352.412	20.69
352.542	29.69
352.672	17.69
352.803	4.69
352.933	21.69
353.063	18.69
353.193	12.69
353.324	12.69
353.454	36.69
353.584	37.69
353.714	28.69
353.845	23.69
353.975	0.69
354.105	11.69
354.235	21.69
354.365	11.69
354.496	14.69
354.626	23.69
354.756	40.69
354.886	11.69
355.016	18.69
355.146	5.69
355.277	22.69
355.407	21.69
355.537	31.69
355.667	16.69
355.797	22.69
355.927	5.69
356.057	16.69
356.187	17.69
356.318	10.69
356.448	31.69
356.578	24.69
356.708	40.69
356.838	34.69
356.968	39.69
357.098	23.69
357.228	29.69
357.358	33.69
357.488	22.69
357.618	50.69
357.748	44.69
357.878	30.69
358.008	28.69
358.138	27.69
358.268	30.69
358.398	36.69
358.528	-12.31
358.658	26.69
358.788	39.69
358.918	42.69
359.048	30.69
359.178	26.69
359.308	37.69
359.438	54.69
359.568	47.69
359.698	27.69
359.827	17.69
359.957	16.69
360.087	15.69
360.217	22.69
360.347	32.69
360.477	43.69
360.607	11.69
360.737	21.69
360.866	12.69
360.996	4.69
361.126	22.69
361.256	35.69
361.386	45.69
361.516	37.69
361.645	22.69
361.775	29.69
361.905	29.69
362.035	42.69
362.165	24.69
362.294	43.69
362.424	45.69
362.554	53.69
362.684	44.69
362.813	50.69
362.943	59.69
363.073	58.69
363.203	55.69
363.332	72.69
363.462	72.69
363.592	101.69
363.721	141.69
363.851	159.69
363.981	192.69
364.111	242.69
364.24	314.69
364.37	484.69
364.5	871.69
364.629	1825.69
364.759	3899.69
364.888	6322.69
365.018	9557.69
365.148	14851.69
365.277	13124.69
365.407	4836.69
365.537	3120.69
365.666	4094.69
365.796	1816.69
365.925	798.69
366.055	738.69
366.184	1062.69
366.314	1432.69
366.444	2513.69
366.573	2151.69
366.703	662.69
366.832	211.69
366.962	127.69
367.091	95.69
367.221	86.69
367.35	53.69
367.48	80.69
367.609	62.69
367.739	59.69
367.868	47.69
367.998	53.69
368.127	44.69
368.257	47.69
368.386	41.69
368.516	30.69
368.645	29.69
368.775	45.69
368.904	31.69
369.033	41.69
369.163	31.69
369.292	45.69
369.422	32.69
369.551	42.69
369.68	47.69
369.81	51.69
369.939	31.69
370.069	47.69
370.198	46.69
370.327	28.69
370.457	43.69
370.586	55.69
370.715	35.69
370.845	32.69
370.974	30.69
371.103	51.69
371.233	55.69
371.362	52.69
371.491	30.69
371.621	56.69
371.75	67.69
371.879	32.69
372.008	43.69
372.138	50.69
372.267	66.69
372.396	54.69
372.525	27.69
372.655	41.69
372.784	26.69
372.913	43.69
373.042	34.69
373.172	33.69
373.301	18.69
373.43	13.69
373.559	27.69
373.688	30.69
373.818	28.69
373.947	49.69
374.076	24.69
374.205	26.69
374.334	18.69
374.463	-5.31
374.593	36.69
374.722	37.69
374.851	21.69
374.98	22.69
375.109	12.69
375.238	35.69
375.367	55.69
375.496	13.69
375.625	-0.31
375.755	20.69
375.884	12.69
376.013	32.69
376.142	-0.31
376.271	27.69
376.4	15.69
376.529	24.69
376.658	42.69
376.787	19.69
376.916	16.69
377.045	20.69
377.174	24.69
377.303	20.69
377.432	32.69
377.561	35.69
377.69	15.69
377.819	45.69
377.948	9.69
378.077	12.69
378.206	8.69
378.335	20.69
378.464	3.69
378.593	25.69
378.722	4.69
378.851	10.69
378.98	25.69
379.108	15.69
379.237	2.69
379.366	19.69
379.495	36.69
379.624	28.69
379.753	9.69
379.882	6.69
380.011	-1.31
380.14	2.69
380.268	-3.31
380.397	14.69
380.526	35.69
380.655	22.69
380.784	-10.31
380.913	14.69
381.041	4.69
381.17	-6.31
381.299	16.69
381.428	13.69
381.557	28.69
381.685	14.69
381.814	14.69
381.943	7.69
382.072	4.69
382.2	6.69
382.329	11.69
382.458	5.69
382.587	30.69
382.715	28.69
382.844	19.69
382.973	5.69
383.102	2.69
383.23	8.69
383.359	0.69
383.488	21.69
383.616	14.69
383.745	2.69
383.874	21.69
384.003	12.69
384.131	15.69
384.26	11.69
384.389	23.69
384.517	-2.31
384.646	-7.31
384.774	4.69
384.903	26.69
385.032	26.69
385.16	36.69
385.289	27.69
385.418	21.69
385.546	18.69
385.675	31.69
385.803	23.69
385.932	13.69
386.06	4.69
386.189	17.69
386.318	12.69
386.446	11.69
386.575	24.69
386.703	14.69
386.832	-1.31
386.96	17.69
387.089	10.69
387.217	14.69
387.346	9.69
387.474	19.69
387.603	23.69
387.731	27.69
387.86	23.69
387.988	24.69
388.117	16.69
388.245	11.69
388.374	18.69
388.502	24.69
388.631	14.69
388.759	11.69
388.888	22.69
389.016	6.69
389.144	4.69
389.273	23.69
389.401	1.69
389.53	17.69
389.658	28.69
389.786	7.69
389.915	3.69
390.043	20.69
390.172	32.69
390.3	47.69
390.428	43.69
390.557	30.69
390.685	31.69
390.813	44.69
390.942	36.69
391.07	24.69
391.198	-0.31
391.327	5.69
391.455	11.69
391.583	39.69
391.712	32.69
391.84	26.69
391.968	12.69
392.096	23.69
392.225	21.69
392.353	38.69
392.481	24.69
392.609	19.69
392.738	16.69
392.866	22.69
392.994	17.69
393.122	45.69
393.251	15.69
393.379	20.69
393.507	-4.31
393.635	18.69
393.764	38.69
393.892	27.69
394.02	24.69
394.148	19.69
394.276	28.69
394.404	38.69
394.533	21.69
394.661	25.69
394.789	34.69
394.917	35.69
395.045	6.69
395.173	12.69
395.302	13.69
395.43	31.69
395.558	35.69
395.686	26.69
395.814	26.69
395.942	13.69
396.07	24.69
396.198	25.69
396.326	21.69
396.454	45.69
396.582	46.69
396.711	11.69
396.839	31.69
396.967	32.69
397.095	25.69
397.223	35.69
397.351	57.69
397.479	29.69
397.607	18.69
397.735	42.69
397.863	47.69
397.991	38.69
398.119	27.69
398.247	47.69
398.375	52.69
398.503	50.69
398.631	64.69
398.759	61.69
398.887	33.69
399.015	60.69
399.143	73.69
399.271	68.69
399.399	73.69
399.526	72.69
399.654	98.69
399.782	64.69
399.91	109.69
400.038	103.69
400.166	85.69
400.294	107.69
400.422	73.69
400.55	110.69
400.678	112.69
400.805	109.69
400.933	104.69
401.061	126.69
401.189	121.69
401.317	148.69
401.445	98.69
401.573	84.69
401.7	51.69
401.828	37.69
401.956	37.69
402.084	34.69
402.212	22.69
402.34	30.69
402.467	37.69
402.595	35.69
402.723	34.69
402.851	53.69
402.978	55.69
403.106	81.69
403.234	62.69
403.362	98.69
403.489	129.69
403.617	147.69
403.745	204.69
403.873	278.69
404	563.69
404.128	1466.69
404.256	3932.69
404.384	5192.69
404.511	5528.69
404.639	7264.69
404.767	11570.69
404.894	14677.69
405.022	4936.69
405.15	1323.69
405.277	433.69
405.405	249.69
405.533	132.69
405.66	108.69
405.788	66.69
405.916	64.69
406.043	33.69
406.171	54.69
406.299	64.69
406.426	82.69
406.554	52.69
406.681	59.69
406.809	43.69
406.937	54.69
407.064	71.69
407.192	115.69
407.319	264.69
407.447	530.69
407.574	550.69
407.702	633.69
407.83	826.69
407.957	1608.69
408.085	942.69
408.212	289.69
408.34	95.69
408.467	73.69
408.595	45.69
408.722	48.69
408.85	60.69
408.977	40.69
409.105	31.69
409.232	25.69
409.36	30.69
409.487	22.69
409.615	27.69
409.742	32.69
409.87	20.69
409.997	36.69
410.125	41.69
410.252	42.69
410.379	6.69
410.507	30.69
410.634	16.69
410.762	17.69
410.889	45.69
411.017	39.69
411.144	25.69
411.271	13.69
411.399	35.69
411.526	23.69
411.653	37.69
411.781	30.69
411.908	32.69
412.036	16.69
412.163	45.69
412.29	33.69
412.418	29.69
412.545	30.69
412.672	37.69
412.8	32.69
412.927	22.69
413.054	36.69
413.182	11.69
413.309	20.69
413.436	7.69
413.564	10.69
413.691	27.69
413.818	27.69
413.945	7.69
414.073	26.69
414.2	40.69
414.327	29.69
414.454	28.69
414.582	42.69
414.709	15.69
414.836	20.69
414.963	26.69
415.091	38.69
415.218	13.69
415.345	28.69
415.472	7.69
415.6	35.69
415.727	27.69
415.854	32.69
415.981	24.69
416.108	29.69
416.236	8.69
416.363	33.69
416.49	29.69
416.617	12.69
416.744	31.69
416.871	32.69
416.998	10.69
417.126	32.69
417.253	23.69
417.38	17.69
417.507	9.69
417.634	32.69
417.761	29.69
417.888	32.69
418.015	18.69
418.143	32.69
418.27	52.69
418.397	19.69
418.524	42.69
418.651	-3.31
418.778	21.69
418.905	55.69
419.032	35.69
419.159	44.69
419.286	62.69
419.413	48.69
419.54	39.69
419.667	25.69
419.794	27.69
419.921	69.69
420.048	43.69
420.175	46.69
420.302	40.69
420.429	52.69
420.556	52.69
420.683	29.69
420.81	47.69
420.937	65.69
421.064	80.69
421.191	50.69
421.318	64.69
421.445	80.69
421.572	59.69
421.699	48.69
421.826	52.69
421.953	46.69
422.08	39.69
422.207	18.69
422.334	6.69
422.461	20.69
422.588	9.69
422.714	43.69
422.841	38.69
422.968	45.69
423.095	15.69
423.222	16.69
423.349	22.69
423.476	45.69
423.603	31.69
423.729	13.69
423.856	1.69
423.983	24.69
424.11	16.69
424.237	25.69
424.364	26.69
424.491	22.69
424.617	-0.31
424.744	15.69
424.871	14.69
424.998	21.69
425.125	12.69
425.251	15.69
425.378	2.69
425.505	26.69
425.632	11.69
425.758	2.69
425.885	22.69
426.012	20.69
426.139	35.69
426.266	19.69
426.392	34.69
426.519	24.69
426.646	30.69
426.772	30.69
426.899	30.69
427.026	15.69
427.153	28.69
427.279	42.69
427.406	32.69
427.533	24.69
427.659	24.69
427.786	14.69
427.913	49.69
428.039	25.69
428.166	24.69
428.293	10.69
428.419	34.69
428.546	18.69
428.673	11.69
428.799	0.69
428.926	22.69
429.053	61.69
429.179	37.69
429.306	39.69
429.433	34.69
429.559	44.69
429.686	8.69
429.812	18.69
429.939	26.69
430.066	27.69
430.192	18.69
430.319	31.69
430.445	31.69
430.572	21.69
430.699	0.69
430.825	27.69
430.952	60.69
431.078	39.69
431.205	38.69
431.331	20.69
431.458	33.69
431.584	29.69
431.711	14.69
431.837	30.69
431.964	7.69
432.09	31.69
432.217	16.69
432.343	19.69
432.47	37.69
432.596	24.69
432.723	19.69
432.849	32.69
432.976	43.69
433.102	26.69
433.229	30.69
433.355	78.69
433.482	80.69
433.608	106.69
433.735	110.69
433.861	107.69
433.987	161.69
434.114	187.69
434.24	171.69
434.367	222.69
434.493	212.69
434.62	282.69
434.746	389.69
434.872	619.69
434.999	840.69
435.125	1773.69
435.252	5660.69
435.378	13516.69
435.504	15235.69
435.631	15469.69
435.757	15681.69
435.883	15681.69
436.01	15681.69
436.136	15681.69
436.262	15681.69
436.389	3530.69
436.515	2477.69
436.641	863.69
436.768	628.69
436.894	405.69
437.02	386.69
437.147	296.69
437.273	281.69
437.399	211.69
437.526	260.69
437.652	183.69
437.778	182.69
437.904	142.69
438.031	171.69
438.157	134.69
438.283	155.69
438.409	131.69
438.536	120.69
438.662	143.69
438.788	123.69
438.914	111.69
439.041	117.69
439.167	119.69
439.293	116.69
439.419	88.69
439.546	102.69
439.672	78.69
439.798	76.69
439.924	58.69
440.05	84.69
440.177	91.69
440.303	77.69
440.429	48.69
440.555	67.69
440.681	64.69
440.807	81.69
440.934	67.69
441.06	59.69
441.186	39.69
441.312	53.69
441.438	60.69
441.564	73.69
441.69	73.69
441.816	68.69
441.943	53.69
442.069	65.69
442.195	48.69
442.321	57.69
442.447	44.69
442.573	58.69
442.699	44.69
442.825	41.69
442.951	46.69
443.077	54.69
443.203	58.69
443.33	42.69
443.456	37.69
443.582	42.69
443.708	46.69
443.834	72.69
443.96	32.69
444.086	46.69
444.212	47.69
444.338	57.69
444.464	65.69
444.59	68.69
444.716	57.69
444.842	67.69
444.968	30.69
445.094	34.69
445.22	42.69
445.346	38.69
445.472	64.69
445.598	47.69
445.724	19.69
445.85	22.69
445.976	39.69
446.102	33.69
446.228	47.69
446.354	37.69
446.48	24.69
446.605	32.69
446.731	40.69
446.857	29.69
446.983	30.69
447.109	25.69
447.235	27.69
447.361	22.69
447.487	27.69
447.613	38.69
447.739	36.69
447.865	29.69
447.99	42.69
448.116	26.69
448.242	30.69
448.368	35.69
448.494	23.69
448.62	35.69
448.746	25.69
448.872	24.69
448.997	20.69
449.123	27.69
449.249	16.69
449.375	41.69
449.501	19.69
449.627	30.69
449.752	29.69
449.878	7.69
450.004	25.69
450.13	15.69
450.256	0.69
450.381	45.69
450.507	14.69
450.633	18.69
450.759	48.69
450.884	27.69
451.01	46.69
451.136	27.69
451.262	38.69
451.388	25.69
451.513	13.69
451.639	33.69
451.765	43.69
451.89	35.69
452.016	27.69
452.142	36.69
452.268	31.69
452.393	22.69
452.519	1.69
452.645	20.69
452.771	33.69
452.896	33.69
453.022	12.69
453.148	33.69
453.273	35.69
453.399	24.69
453.525	9.69
453.65	21.69
453.776	39.69
453.902	43.69
454.027	34.69
454.153	27.69
454.279	55.69
454.404	30.69
454.53	20.69
454.656	43.69
454.781	34.69
454.907	14.69
455.032	24.69
455.158	30.69
455.284	55.69
455.409	37.69
455.535	41.69
455.66	26.69
455.786	30.69
455.912	31.69
456.037	12.69
456.163	34.69
456.288	28.69
456.414	6.69
456.539	-2.31
456.665	38.69
456.791	25.69
456.916	24.69
457.042	44.69
457.167	8.69
457.293	29.69
457.418	19.69
457.544	10.69
457.669	27.69
457.795	24.69
457.92	10.69
458.046	29.69
458.171	30.69
458.297	1.69
458.422	16.69
458.548	11.69
458.673	22.69
458.799	17.69
458.924	6.69
459.05	12.69
459.175	14.69
459.301	20.69
459.426	48.69
459.552	24.69
459.677	21.69
459.803	39.69
459.928	33.69
460.053	25.69
460.179	29.69
460.304	40.69
460.43	16.69
460.555	21.69
460.681	20.69
460.806	36.69
460.931	20.69
461.057	29.69
461.182	30.69
461.308	30.69
461.433	32.69
461.558	16.69
461.684	21.69
461.809	19.69
461.934	22.69
462.06	60.69
462.185	24.69
462.311	15.69
462.436	33.69
462.561	28.69
462.687	20.69
462.812	22.69
462.937	25.69
463.063	19.69
463.188	12.69
463.313	24.69
463.439	27.69
463.564	11.69
463.689	18.69
463.814	25.69
463.94	29.69
464.065	29.69
464.19	25.69
464.316	4.69
464.441	15.69
464.566	25.69
464.692	29.69
464.817	36.69
464.942	19.69
465.067	18.69
465.193	7.69
465.318	8.69
465.443	19.69
465.568	32.69
465.694	11.69
465.819	36.69
465.944	32.69
466.069	27.69
466.194	24.69
466.32	21.69
466.445	28.69
466.57	-1.31
466.695	15.69
466.82	35.69
466.946	46.69
467.071	33.69
467.196	18.69
467.321	29.69
467.446	13.69
467.572	22.69
467.697	28.69
467.822	26.69
467.947	38.69
468.072	28.69
468.197	17.69
468.323	30.69
468.448	14.69
468.573	2.69
468.698	14.69
468.823	27.69
468.948	38.69
469.073	52.69
469.198	30.69
469.324	52.69
469.449	18.69
469.574	47.69
469.699	46.69
469.824	34.69
469.949	39.69
470.074	25.69
470.199	53.69
470.324	38.69
470.449	38.69
470.574	33.69
470.7	32.69
470.825	46.69
470.95	45.69
471.075	34.69
471.2	48.69
471.325	50.69
471.45	50.69
471.575	22.69
471.7	35.69
471.825	23.69
471.95	29.69
472.075	23.69
472.2	28.69
472.325	23.69
472.45	17.69
472.575	23.69
472.7	43.69
472.825	42.69
472.95	31.69
473.075	24.69
473.2	33.69
473.325	27.69
473.45	49.69
473.575	51.69
473.7	51.69
473.825	20.69
473.95	35.69
474.075	29.69
474.2	12.69
474.325	6.69
474.45	30.69
474.574	26.69
474.699	23.69
474.824	12.69
474.949	5.69
475.074	6.69
475.199	28.69
475.324	28.69
475.449	-1.31
475.574	27.69
475.699	17.69
475.824	18.69
475.949	15.69
476.073	1.69
476.198	11.69
476.323	22.69
476.448	27.69
476.573	11.69
476.698	19.69
476.823	16.69
476.947	24.69
477.072	31.69
477.197	24.69
477.322	4.69
477.447	33.69
477.572	24.69
477.697	13.69
477.821	24.69
477.946	36.69
478.071	18.69
478.196	14.69
478.321	23.69
478.445	24.69
478.57	-3.31
478.695	4.69
478.82	25.69
478.945	22.69
479.069	-14.31
479.194	23.69
479.319	21.69
479.444	22.69
479.569	22.69
479.693	22.69
479.818	18.69
479.943	20.69
480.068	6.69
480.192	24.69
480.317	25.69
480.442	23.69
480.567	12.69
480.691	10.69
480.816	21.69
480.941	12.69
481.066	11.69
481.19	8.69
481.315	21.69
481.44	2.69
481.564	3.69
481.689	24.69
481.814	20.69
481.938	13.69
482.063	9.69
482.188	21.69
482.313	29.69
482.437	3.69
482.562	14.69
482.687	14.69
482.811	12.69
482.936	18.69
483.061	11.69
483.185	2.69
483.31	24.69
483.435	19.69
483.559	22.69
483.684	24.69
483.808	34.69
483.933	36.69
484.058	36.69
484.182	8.69
484.307	14.69
484.432	3.69
484.556	20.69
484.681	3.69
484.805	23.69
484.93	18.69
485.055	19.69
485.179	38.69
485.304	30.69
485.428	12.69
485.553	17.69
485.678	33.69
485.802	21.69
485.927	30.69
486.051	39.69
486.176	-8.31
486.3	15.69
486.425	12.69
486.549	28.69
486.674	30.69
486.799	35.69
486.923	8.69
487.048	8.69
487.172	-0.31
487.297	21.69
487.421	32.69
487.546	25.69
487.67	13.69
487.795	15.69
487.919	-4.31
488.044	30.69
488.168	18.69
488.293	39.69
488.417	14.69
488.542	11.69
488.666	17.69
488.791	10.69
488.915	20.69
489.04	36.69
489.164	24.69
489.289	19.69
489.413	22.69
489.538	23.69
489.662	40.69
489.786	19.69
489.911	31.69
490.035	16.69
490.16	30.69
490.284	18.69
490.409	-3.31
490.533	16.69
490.658	37.69
490.782	39.69
490.906	34.69
491.031	103.69
491.155	130.69
491.28	131.69
491.404	150.69
491.528	263.69
491.653	153.69
491.777	73.69
491.902	8.69
492.026	16.69
492.15	20.69
492.275	24.69
492.399	40.69
492.524	15.69
492.648	21.69
492.772	14.69
492.897	36.69
493.021	18.69
493.145	29.69
493.27	31.69
493.394	14.69
493.518	-9.31
493.643	9.69
493.767	20.69
493.891	-9.31
494.016	11.69
494.14	18.69
494.264	35.69
494.389	22.69
494.513	23.69
494.637	12.69
494.762	24.69
494.886	30.69
495.01	7.69
495.134	-6.31
495.259	14.69
495.383	28.69
495.507	14.69
495.632	35.69
495.756	48.69
495.88	35.69
496.004	32.69
496.129	18.69
496.253	18.69
496.377	22.69
496.501	43.69
496.626	9.69
496.75	30.69
496.874	31.69
496.998	11.69
497.123	47.69
497.247	30.69
497.371	5.69
497.495	28.69
497.62	25.69
497.744	9.69
497.868	17.69
497.992	18.69
498.116	4.69
498.241	19.69
498.365	22.69
498.489	10.69
498.613	35.69
498.737	3.69
498.862	12.69
498.986	7.69
499.11	9.69
499.234	21.69
499.358	-12.31
499.482	17.69
499.607	22.69
499.731	34.69
499.855	33.69
499.979	38.69
500.103	41.69
500.227	48.69
500.351	37.69
500.476	19.69
500.6	26.69
500.724	10.69
500.848	11.69
500.972	37.69
501.096	15.69
501.22	31.69
501.344	22.69
501.469	5.69
501.593	11.69
501.717	28.69
501.841	10.69
501.965	15.69
502.089	31.69
502.213	16.69
502.337	14.69
502.461	23.69
502.585	27.69
502.709	36.69
502.834	17.69
502.958	22.69
503.082	22.69
503.206	19.69
503.33	31.69
503.454	18.69
503.578	43.69
503.702	25.69
503.826	21.69
503.95	28.69
504.074	11.69
504.198	26.69
504.322	14.69
504.446	23.69
504.57	7.69
504.694	32.69
504.818	22.69
504.942	36.69
505.066	28.69
505.19	8.69
505.314	29.69
505.438	20.69
505.562	5.69
505.686	30.69
505.81	15.69
505.934	17.69
506.058	18.69
506.182	9.69
506.306	31.69
506.43	20.69
506.554	8.69
506.678	12.69
506.802	21.69
506.926	21.69
507.05	28.69
507.174	26.69
507.298	20.69
507.422	17.69
507.546	16.69
507.67	32.69
507.794	6.69
507.918	15.69
508.042	6.69
508.165	3.69
508.289	15.69
508.413	22.69
508.537	28.69
508.661	18.69
508.785	32.69
508.909	23.69
509.033	25.69
509.157	33.69
509.281	35.69
509.405	24.69
509.528	32.69
509.652	32.69
509.776	14.69
509.9	28.69
510.024	45.69
510.148	39.69
510.272	24.69
510.396	38.69
510.519	25.69
510.643	30.69
510.767	33.69
510.891	32.69
511.015	21.69
511.139	49.69
511.263	52.69
511.386	42.69
511.51	54.69
511.634	37.69
511.758	38.69
511.882	30.69
512.006	52.69
512.129	67.69
512.253	86.69
512.377	72.69
512.501	75.69
512.625	76.69
512.748	95.69
512.872	71.69
512.996	46.69
513.12	47.69
513.244	51.69
513.367	57.69
513.491	66.69
513.615	52.69
513.739	53.69
513.862	65.69
513.986	73.69
514.11	94.69
514.234	86.69
514.358	87.69
514.481	110.69
514.605	105.69
514.729	125.69
514.853	108.69
514.976	87.69
515.1	91.69
515.224	97.69
515.348	95.69
515.471	84.69
515.595	103.69
515.719	126.69
515.842	231.69
515.966	274.69
516.09	298.69
516.214	285.69
516.337	338.69
516.461	206.69
516.585	77.69
516.708	40.69
516.832	38.69
516.956	32.69
517.08	26.69
517.203	2.69
517.327	-1.31
517.451	29.69
517.574	26.69
517.698	7.69
517.822	10.69
517.945	20.69
518.069	14.69
518.193	57.69
518.316	12.69
518.44	25.69
518.564	5.69
518.687	1.69
518.811	1.69
518.935	36.69
519.058	8.69
519.182	10.69
519.306	23.69
519.429	19.69
519.553	51.69
519.676	32.69
519.8	23.69
519.924	2.69
520.047	13.69
520.171	-6.31
520.294	10.69
520.418	17.69
520.542	25.69
520.665	34.69
520.789	8.69
520.913	6.69
521.036	-7.31
521.16	-7.31
521.283	14.69
521.407	16.69
521.53	30.69
521.654	0.69
521.778	18.69
521.901	5.69
522.025	14.69
522.148	14.69
522.272	24.69
522.395	17.69
522.519	28.69
522.643	11.69
522.766	-8.31
522.89	-3.31
523.013	13.69
523.137	9.69
523.26	14.69
523.384	8.69
523.507	9.69
523.631	3.69
523.754	10.69
523.878	-1.31
524.002	0.69
524.125	19.69
524.249	-1.31
524.372	22.69
524.496	18.69
524.619	14.69
524.743	4.69
524.866	11.69
524.99	19.69
525.113	2.69
525.237	23.69
525.36	22.69
525.484	21.69
525.607	-15.31
525.731	-1.31
525.854	11.69
525.978	29.69
526.101	16.69
526.224	19.69
526.348	15.69
526.471	25.69
526.595	24.69
526.718	18.69
526.842	9.69
526.965	21.69
527.089	20.69
527.212	12.69
527.336	4.69
527.459	-1.31
527.582	31.69
527.706	20.69
527.829	13.69
527.953	9.69
528.076	-0.31
528.2	4.69
528.323	34.69
528.446	35.69
528.57	26.69
528.693	38.69
528.817	3.69
528.94	21.69
529.064	31.69
529.187	13.69
529.31	25.69
529.434	18.69
529.557	-2.31
529.68	-9.31
529.804	9.69
529.927	19.69
530.051	3.69
530.174	24.69
530.297	15.69
530.421	13.69
530.544	18.69
530.668	30.69
530.791	5.69
530.914	30.69
531.038	13.69
531.161	13.69
531.284	25.69
531.408	9.69
531.531	7.69
531.654	-1.31
531.778	10.69
531.901	-7.31
532.024	21.69
532.148	20.69
532.271	27.69
532.394	31.69
532.518	34.69
532.641	14.69
532.764	33.69
532.888	24.69
533.011	6.69
533.134	16.69
533.258	12.69
533.381	15.69
533.504	21.69
533.628	10.69
533.751	16.69
533.874	6.69
533.997	10.69
534.121	19.69
534.244	11.69
534.367	13.69
534.491	8.69
534.614	18.69
534.737	20.69
534.86	12.69
534.984	-2.31
535.107	14.69
535.23	9.69
535.354	19.69
535.477	-0.31
535.6	14.69
535.723	22.69
535.847	23.69
535.97	11.69
536.093	14.69
536.216	11.69
536.34	11.69
536.463	10.69
536.586	22.69
536.709	32.69
536.833	17.69
536.956	16.69
537.079	19.69
537.202	37.69
537.325	6.69
537.449	10.69
537.572	22.69
537.695	14.69
537.818	24.69
537.941	15.69
538.065	15.69
538.188	2.69
538.311	36.69
538.434	35.69
538.558	22.69
538.681	18.69
538.804	12.69
538.927	31.69
539.05	16.69
539.173	18.69
539.297	16.69
539.42	14.69
539.543	25.69
539.666	33.69
539.789	47.69
539.913	18.69
540.036	15.69
540.159	32.69
540.282	15.69
540.405	12.69
540.528	26.69
540.651	18.69
540.775	18.69
540.898	33.69
541.021	26.69
541.144	46.69
541.267	28.69
541.39	24.69
541.513	38.69
541.637	18.69
541.76	22.69
541.883	25.69
542.006	24.69
542.129	45.69
542.252	23.69
542.375	37.69
542.498	35.69
542.622	56.69
542.745	40.69
542.868	19.69
542.991	37.69
543.114	43.69
543.237	60.69
543.36	66.69
543.483	50.69
543.606	52.69
543.73	86.69
543.853	72.69
543.976	80.69
544.099	120.69
544.222	109.69
544.345	119.69
544.468	176.69
544.591	217.69
544.714	280.69
544.837	331.69
544.96	441.69
545.083	638.69
545.206	1096.69
545.329	2487.69
545.453	11067.69
545.576	15270.69
545.699	15681.69
545.822	15681.69
545.945	15681.69
546.068	15681.69
546.191	15681.69
546.314	15681.69
546.437	15681.69
546.56	15681.69
546.683	15681.69
546.806	15681.69
546.929	15681.69
547.052	15681.69
547.175	15681.69
547.298	15681.69
547.421	15681.69
547.544	15681.69
547.667	3794.69
547.79	3357.69
547.913	1197.69
548.036	924.69
548.159	652.69
548.282	626.69
548.405	487.69
548.528	506.69
548.651	404.69
548.774	387.69
548.897	355.69
549.02	373.69
549.143	303.69
549.266	267.69
549.389	275.69
549.512	251.69
549.635	261.69
549.758	265.69
549.881	244.69
550.004	216.69
550.127	180.69
550.25	182.69
550.373	154.69
550.496	181.69
550.619	157.69
550.742	148.69
550.865	142.69
550.988	168.69
551.111	146.69
551.234	140.69
551.356	125.69
551.479	115.69
551.602	130.69
551.725	138.69
551.848	147.69
551.971	147.69
552.094	111.69
552.217	121.69
552.34	121.69
552.463	91.69
552.586	117.69
552.709	100.69
552.832	104.69
552.955	90.69
553.077	93.69
553.2	109.69
553.323	87.69
553.446	100.69
553.569	94.69
553.692	103.69
553.815	79.69
553.938	102.69
554.061	104.69
554.184	89.69
554.306	85.69
554.429	83.69
554.552	81.69
554.675	67.69
554.798	99.69
554.921	82.69
555.044	83.69
555.167	77.69
555.29	61.69
555.412	74.69
555.535	76.69
555.658	75.69
555.781	78.69
555.904	78.69
556.027	83.69
556.15	73.69
556.272	64.69
556.395	100.69
556.518	84.69
556.641	62.69
556.764	68.69
556.887	88.69
557.01	66.69
557.132	42.69
557.255	62.69
557.378	74.69
557.501	45.69
557.624	58.69
557.747	70.69
557.869	72.69
557.992	84.69
558.115	98.69
558.238	84.69
558.361	80.69
558.483	94.69
558.606	67.69
558.729	18.69
558.852	60.69
558.975	66.69
559.098	55.69
559.22	43.69
559.343	42.69
559.466	47.69
559.589	62.69
559.712	64.69
559.834	64.69
559.957	43.69
560.08	38.69
560.203	68.69
560.325	55.69
560.448	77.69
560.571	64.69
560.694	48.69
560.817	62.69
560.939	67.69
561.062	57.69
561.185	64.69
561.308	62.69
561.43	53.69
561.553	43.69
561.676	55.69
561.799	69.69
561.921	43.69
562.044	42.69
562.167	39.69
562.29	76.69
562.413	57.69
562.535	54.69
562.658	50.69
562.781	45.69
562.903	58.69
563.026	73.69
563.149	131.69
563.272	120.69
563.394	114.69
563.517	107.69
563.64	54.69
563.763	48.69
563.885	39.69
564.008	48.69
564.131	39.69
564.254	24.69
564.376	40.69
564.499	20.69
564.622	26.69
564.744	40.69
564.867	47.69
564.99	46.69
565.113	37.69
565.235	36.69
565.358	27.69
565.481	30.69
565.603	29.69
565.726	25.69
565.849	39.69
565.971	37.69
566.094	37.69
566.217	36.69
566.34	30.69
566.462	26.69
566.585	30.69
566.708	52.69
566.83	52.69
566.953	67.69
567.076	25.69
567.198	43.69
567.321	25.69
567.444	40.69
567.566	46.69
567.689	24.69
567.812	11.69
567.934	22.69
568.057	38.69
568.18	40.69
568.302	31.69
568.425	28.69
568.548	35.69
568.67	38.69
568.793	29.69
568.916	28.69
569.038	21.69
569.161	23.69
569.283	45.69
569.406	42.69
569.529	24.69
569.651	18.69
569.774	32.69
569.897	18.69
570.019	28.69
570.142	51.69
570.265	43.69
570.387	22.69
570.51	44.69
570.632	55.69
570.755	25.69
570.878	22.69
571	23.69
571.123	26.69
571.246	38.69
571.368	19.69
571.491	12.69
571.613	9.69
571.736	20.69
571.859	46.69
571.981	19.69
572.104	36.69
572.226	45.69
572.349	28.69
572.472	36.69
572.594	18.69
572.717	36.69
572.839	21.69
572.962	32.69
573.085	36.69
573.207	32.69
573.33	35.69
573.452	55.69
573.575	27.69
573.697	30.69
573.82	36.69
573.943	18.69
574.065	17.69
574.188	18.69
574.31	41.69
574.433	43.69
574.555	51.69
574.678	26.69
574.801	38.69
574.923	40.69
575.046	44.69
575.168	18.69
575.291	39.69
575.413	33.69
575.536	40.69
575.659	67.69
575.781	39.69
575.904	60.69
576.026	72.69
576.149	88.69
576.271	108.69
576.394	190.69
576.516	530.69
576.639	3668.69
576.761	10187.69
576.884	8907.69
577.007	8787.69
577.129	8083.69
577.252	3786.69
577.374	1314.69
577.497	539.69
577.619	274.69
577.742	174.69
577.864	165.69
577.987	117.69
578.109	132.69
578.232	129.69
578.354	139.69
578.477	192.69
578.599	390.69
578.722	1947.69
578.844	9192.69
578.967	9848.69
579.089	8860.69
579.212	9163.69
579.334	5324.69
579.457	1922.69
579.579	687.69
579.702	330.69
579.824	204.69
579.947	135.69
580.069	99.69
580.192	78.69
580.314	82.69
580.437	74.69
580.559	95.69
580.682	69.69
580.804	56.69
580.927	65.69
581.049	62.69
581.172	47.69
581.294	40.69
581.417	64.69
581.539	33.69
581.662	53.69
581.784	57.69
581.907	54.69
582.029	34.69
582.152	40.69
582.274	41.69
582.396	52.69
582.519	24.69
582.641	23.69
582.764	42.69
582.886	42.69
583.009	30.69
583.131	47.69
583.254	26.69
583.376	33.69
583.499	41.69
583.621	47.69
583.743	41.69
583.866	35.69
583.988	49.69
584.111	43.69
584.233	27.69
584.356	42.69
584.478	36.69
584.601	9.69
584.723	18.69
584.845	45.69
584.968	12.69
585.09	20.69
585.213	35.69
585.335	11.69
585.458	18.69
585.58	26.69
585.702	39.69
585.825	45.69
585.947	25.69
586.07	23.69
586.192	32.69
586.315	50.69
586.437	29.69
586.559	34.69
586.682	12.69
586.804	29.69
586.927	33.69
587.049	28.69
587.171	33.69
587.294	16.69
587.416	30.69
587.539	16.69
587.661	16.69
587.783	22.69
587.906	18.69
588.028	24.69
588.151	12.69
588.273	33.69
588.395	20.69
588.518	31.69
588.64	21.69
588.763	46.69
588.885	40.69
589.007	32.69
589.13	15.69
589.252	-2.31
589.375	21.69
589.497	21.69
589.619	31.69
589.742	26.69
589.864	42.69
589.986	22.69
590.109	26.69
590.231	22.69
590.354	36.69
590.476	13.69
590.598	7.69
590.721	12.69
590.843	30.69
590.965	22.69
591.088	29.69
591.21	8.69
591.332	34.69
591.455	12.69
591.577	13.69
591.7	23.69
591.822	18.69
591.944	32.69
592.067	11.69
592.189	15.69
592.311	41.69
592.434	16.69
592.556	27.69
592.678	22.69
592.801	10.69
592.923	19.69
593.045	15.69
593.168	27.69
593.29	27.69
593.412	32.69
593.535	21.69
593.657	19.69
593.779	22.69
593.902	33.69
594.024	18.69
594.146	18.69
594.269	37.69
594.391	18.69
594.513	37.69
594.636	19.69
594.758	13.69
594.88	34.69
595.003	27.69
595.125	13.69
595.247	20.69
595.37	16.69
595.492	6.69
595.614	20.69
595.737	35.69
595.859	18.69
595.981	12.69
596.104	29.69
596.226	12.69
596.348	30.69
596.471	12.69
596.593	2.69
596.715	24.69
596.838	26.69
596.96	8.69
597.082	13.69
597.204	21.69
597.327	5.69
597.449	4.69
597.571	21.69
597.694	25.69
597.816	24.69
597.938	10.69
598.061	21.69
598.183	18.69
598.305	29.69
598.427	22.69
598.55	14.69
598.672	19.69
598.794	40.69
598.917	32.69
599.039	34.69
599.161	28.69
599.283	34.69
599.406	38.69
599.528	29.69
599.65	42.69
599.773	20.69
599.895	42.69
600.017	40.69
600.139	28.69
600.262	10.69
600.384	26.69
600.506	9.69
600.628	18.69
600.751	18.69
600.873	14.69
600.995	21.69
601.118	33.69
601.24	7.69
601.362	29.69
601.484	31.69
601.607	25.69
601.729	27.69
601.851	11.69
601.973	7.69
602.096	17.69
602.218	38.69
602.34	55.69
602.462	38.69
602.585	10.69
602.707	6.69
602.829	25.69
602.951	27.69
603.074	-6.31
603.196	29.69
603.318	12.69
603.44	37.69
603.563	8.69
603.685	9.69
603.807	19.69
603.929	15.69
604.052	30.69
604.174	43.69
604.296	10.69
604.418	28.69
604.541	39.69
604.663	28.69
604.785	-0.31
604.907	7.69
605.03	22.69
605.152	53.69
605.274	20.69
605.396	28.69
605.519	18.69
605.641	18.69
605.763	12.69
605.885	9.69
606.008	27.69
606.13	16.69
606.252	29.69
606.374	6.69
606.496	11.69
606.619	18.69
606.741	14.69
606.863	44.69
606.985	40.69
607.108	21.69
607.23	-3.31
607.352	20.69
607.474	18.69
607.596	12.69
607.719	13.69
607.841	14.69
607.963	12.69
608.085	2.69
608.207	14.69
608.33	26.69
608.452	8.69
608.574	22.69
608.696	13.69
608.819	20.69
608.941	40.69
609.063	19.69
609.185	7.69
609.307	15.69
609.43	48.69
609.552	24.69
609.674	-2.31
609.796	26.69
609.918	27.69
610.041	6.69
610.163	34.69
610.285	20.69
610.407	24.69
610.529	14.69
610.652	18.69
610.774	24.69
610.896	15.69
611.018	14.69
611.14	4.69
611.263	24.69
611.385	19.69
611.507	36.69
611.629	18.69
611.751	29.69
611.873	31.69
611.996	18.69
612.118	31.69
612.24	18.69
612.362	24.69
612.484	26.69
612.607	40.69
612.729	36.69
612.851	27.69
612.973	14.69
613.095	9.69
613.218	7.69
613.34	31.69
613.462	9.69
613.584	7.69
613.706	5.69
613.828	39.69
613.951	19.69
614.073	17.69
614.195	14.69
614.317	45.69
614.439	24.69
614.561	26.69
614.684	17.69
614.806	23.69
614.928	29.69
615.05	24.69
615.172	20.69
615.294	26.69
615.417	9.69
615.539	18.69
615.661	19.69
615.783	36.69
615.905	8.69
616.027	21.69
616.15	18.69
616.272	10.69
616.394	18.69
616.516	21.69
616.638	22.69
616.76	20.69
616.883	23.69
617.005	4.69
617.127	20.69
617.249	29.69
617.371	30.69
617.493	34.69
617.615	29.69
617.738	33.69
617.86	30.69
617.982	32.69
618.104	29.69
618.226	8.69
618.348	-0.31
618.471	23.69
618.593	28.69
618.715	-2.31
618.837	22.69
618.959	7.69
619.081	32.69
619.203	36.69
619.326	28.69
619.448	33.69
619.57	33.69
619.692	31.69
619.814	42.69
619.936	49.69
620.058	15.69
620.181	7.69
620.303	19.69
620.425	5.69
620.547	-1.31
620.669	13.69
620.791	0.69
620.913	6.69
621.036	16.69
621.158	24.69
621.28	36.69
621.402	6.69
621.524	24.69
621.646	24.69
621.768	13.69
621.891	4.69
622.013	13.69
622.135	19.69
622.257	-3.31
622.379	18.69
622.501	6.69
622.623	23.69
622.745	8.69
622.868	21.69
622.99	6.69
623.112	23.69
623.234	17.69
623.356	11.69
623.478	4.69
623.6	22.69
623.722	23.69
623.845	18.69
623.967	16.69
624.089	22.69
624.211	12.69
624.333	11.69
624.455	32.69
624.577	14.69
624.699	21.69
624.822	13.69
624.944	14.69
625.066	8.69
625.188	-5.31
625.31	16.69
625.432	35.69
625.554	17.69
625.676	35.69
625.799	6.69
625.921	24.69
626.043	22.69
626.165	16.69
626.287	-3.31
626.409	13.69
626.531	27.69
626.653	27.69
626.775	22.69
626.898	22.69
627.02	14.69
627.142	22.69
627.264	27.69
627.386	13.69
627.508	23.69
627.63	26.69
627.752	7.69
627.874	16.69
627.997	18.69
628.119	24.69
628.241	50.69
628.363	19.69
628.485	22.69
628.607	11.69
628.729	4.69
628.851	-1.31
628.973	16.69
629.096	6.69
629.218	6.69
629.34	19.69
629.462	3.69
629.584	-3.31
629.706	17.69
629.828	30.69
629.95	16.69
630.072	4.69
630.195	14.69
630.317	18.69
630.439	18.69
630.561	21.69
630.683	11.69
630.805	9.69
630.927	5.69
631.049	12.69
631.171	19.69
631.293	26.69
631.416	7.69
631.538	13.69
631.66	15.69
631.782	27.69
631.904	35.69
632.026	21.69
632.148	29.69
632.27	22.69
632.392	14.69
632.514	10.69
632.637	7.69
632.759	11.69
632.881	14.69
633.003	12.69
633.125	10.69
633.247	12.69
633.369	7.69
633.491	9.69
633.613	24.69
633.735	-1.31
633.858	25.69
633.98	13.69
634.102	4.69
634.224	10.69
634.346	10.69
634.468	6.69
634.59	21.69
634.712	2.69
634.834	11.69
634.956	10.69
635.078	-7.31
635.201	-4.31
635.323	16.69
635.445	-11.31
635.567	-7.31
635.689	21.69
635.811	17.69
635.933	22.69
636.055	6.69
636.177	6.69
636.299	35.69
636.421	14.69
636.544	-7.31
636.666	10.69
636.788	24.69
636.91	10.69
637.032	18.69
637.154	11.69
637.276	19.69
637.398	29.69
637.52	21.69
637.642	19.69
637.764	29.69
637.887	8.69
638.009	17.69
638.131	6.69
638.253	3.69
638.375	29.69
638.497	12.69
638.619	3.69
638.741	19.69
638.863	2.69
638.985	2.69
639.107	15.69
639.23	8.69
639.352	22.69
639.474	-0.31
639.596	-1.31
639.718	2.69
639.84	10.69
639.962	22.69
640.084	11.69
640.206	23.69
640.328	12.69
640.45	9.69
640.573	6.69
640.695	2.69
640.817	10.69
640.939	23.69
641.061	8.69
641.183	11.69
641.305	2.69
641.427	0.69
641.549	4.69
641.671	7.69
641.793	-3.31
641.915	-3.31
642.038	-2.31
642.16	15.69
642.282	16.69
642.404	17.69
642.526	16.69
642.648	-7.31
642.77	16.69
642.892	23.69
643.014	15.69
643.136	22.69
643.258	17.69
643.381	45.69
643.503	26.69
643.625	13.69
643.747	-12.31
643.869	8.69
643.991	24.69
644.113	20.69
644.235	30.69
644.357	13.69
644.479	26.69
644.601	8.69
644.723	12.69
644.846	15.69
644.968	6.69
645.09	15.69
645.212	19.69
645.334	16.69
645.456	43.69
645.578	18.69
645.7	14.69
645.822	10.69
645.944	14.69
646.066	16.69
646.188	13.69
646.311	15.69
646.433	9.69
646.555	18.69
646.677	20.69
646.799	8.69
646.921	7.69
647.043	10.69
647.165	-2.31
647.287	16.69
647.409	-3.31
647.531	19.69
647.654	-4.31
647.776	25.69
647.898	19.69
648.02	-9.31
648.142	12.69
648.264	0.69
648.386	4.69
648.508	2.69
648.63	-0.31
648.752	6.69
648.874	-2.31
648.997	11.69
649.119	34.69
649.241	10.69
649.363	16.69
649.485	2.69
649.607	23.69
649.729	2.69
649.851	15.69
649.973	20.69
650.095	21.69
650.217	3.69
650.34	-1.31
650.462	6.69
650.584	23.69
650.706	16.69
650.828	16.69
650.95	4.69
651.072	18.69
651.194	8.69
651.316	15.69
651.438	14.69
651.56	10.69
651.683	12.69
651.805	17.69
651.927	-3.31
652.049	12.69
652.171	-1.31
652.293	23.69
652.415	6.69
652.537	3.69
652.659	9.69
652.781	18.69
652.903	13.69
653.026	27.69
653.148	11.69
653.27	20.69
653.392	34.69
653.514	12.69
653.636	7.69
653.758	19.69
653.88	13.69
654.002	7.69
654.124	16.69
654.247	5.69
654.369	33.69
654.491	16.69
654.613	12.69
654.735	11.69
654.857	2.69
654.979	20.69
655.101	19.69
655.223	44.69
655.345	14.69
655.468	6.69
655.59	3.69
655.712	28.69
655.834	-5.31
655.956	10.69
656.078	2.69
656.2	7.69
656.322	2.69
656.444	-6.31
656.566	19.69
656.689	1.69
656.811	6.69
656.933	13.69
657.055	0.69
657.177	3.69
657.299	1.69
657.421	-3.31
657.543	6.69
657.665	9.69
657.787	4.69
657.91	6.69
658.032	-4.31
658.154	11.69
658.276	19.69
658.398	-1.31
658.52	13.69
658.642	20.69
658.764	24.69
658.886	-12.31
659.009	7.69
659.131	20.69
659.253	12.69
659.375	4.69
659.497	18.69
659.619	13.69
659.741	10.69
659.863	11.69
659.985	-9.31
660.108	-5.31
660.23	-1.31
660.352	8.69
660.474	7.69
660.596	20.69
660.718	18.69
660.84	0.69
660.962	18.69
661.084	4.69
661.207	8.69
661.329	18.69
661.451	12.69
661.573	-1.31
661.695	16.69
661.817	7.69
661.939	31.69
662.061	31.69
662.184	6.69
662.306	-0.31
662.428	2.69
662.55	23.69
662.672	13.69
662.794	23.69
662.916	22.69
663.038	8.69
663.161	24.69
663.283	19.69
663.405	19.69
663.527	19.69
663.649	17.69
663.771	7.69
663.893	3.69
664.015	5.69
664.138	-11.31
664.26	14.69
664.382	15.69
664.504	3.69
664.626	-9.31
664.748	-3.31
664.87	-6.31
664.992	6.69
665.115	10.69
665.237	2.69
665.359	13.69
665.481	30.69
665.603	14.69
665.725	5.69
665.847	-15.31
665.97	10.69
666.092	12.69
666.214	25.69
666.336	7.69
666.458	18.69
666.58	21.69
666.702	4.69
666.825	-6.31
666.947	0.69
667.069	4.69
667.191	2.69
667.313	6.69
667.435	0.69
667.557	-8.31
667.68	-6.31
667.802	-13.31
667.924	2.69
668.046	7.69
668.168	0.69
668.29	-3.31
668.412	14.69
668.535	19.69
668.657	18.69
668.779	-11.31
668.901	10.69
669.023	10.69
669.145	13.69
669.267	16.69
669.39	11.69
669.512	12.69
669.634	9.69
669.756	10.69
669.878	22.69
670	23.69
670.123	6.69
670.245	27.69
670.367	47.69
670.489	1.69
670.611	11.69
670.733	4.69
670.856	13.69
670.978	24.69
671.1	20.69
671.222	8.69
671.344	-1.31
671.466	0.69
671.589	13.69
671.711	7.69
671.833	-2.31
671.955	18.69
672.077	10.69
672.199	27.69
672.322	25.69
672.444	17.69
672.566	18.69
672.688	8.69
672.81	3.69
672.932	19.69
673.055	4.69
673.177	-0.31
673.299	9.69
673.421	16.69
673.543	-3.31
673.665	34.69
673.788	27.69
673.91	19.69
674.032	-10.31
674.154	9.69
674.276	12.69
674.399	-1.31
674.521	0.69
674.643	13.69
674.765	-9.31
674.887	15.69
675.009	6.69
675.132	3.69
675.254	-5.31
675.376	17.69
675.498	10.69
675.62	21.69
675.743	11.69
675.865	12.69
675.987	-2.31
676.109	5.69
676.231	20.69
676.354	28.69
676.476	8.69
676.598	12.69
676.72	15.69
676.842	11.69
676.965	-5.31
677.087	10.69
677.209	20.69
677.331	15.69
677.453	12.69
677.576	14.69
677.698	20.69
677.82	3.69
677.942	3.69
678.064	14.69
678.187	26.69
678.309	-1.31
678.431	-1.31
678.553	-6.31
678.675	8.69
678.798	13.69
678.92	11.69
679.042	0.69
679.164	-9.31
679.286	22.69
679.409	-10.31
679.531	0.69
679.653	2.69
679.775	-3.31
679.898	3.69
680.02	4.69
680.142	-7.31
680.264	4.69
680.386	-13.31
680.509	3.69
680.631	4.69
680.753	-1.31
680.875	-14.31
680.998	-1.31
681.12	3.69
681.242	20.69
681.364	-13.31
681.486	-2.31
681.609	8.69
681.731	-1.31
681.853	5.69
681.975	3.69
682.098	24.69
682.22	34.69
682.342	3.69
682.464	15.69
682.587	-3.31
682.709	11.69
682.831	-11.31
682.953	-5.31
683.076	2.69
683.198	31.69
683.32	13.69
683.442	3.69
683.565	12.69
683.687	18.69
683.809	-4.31
683.931	-1.31
684.054	10.69
684.176	11.69
684.298	20.69
684.42	7.69
684.543	12.69
684.665	7.69
684.787	7.69
684.909	11.69
685.032	8.69
685.154	-13.31
685.276	-3.31
685.398	8.69
685.521	-3.31
685.643	8.69
685.765	15.69
685.887	10.69
686.01	12.69
686.132	7.69
686.254	12.69
686.377	0.69
686.499	11.69
686.621	23.69
686.743	22.69
686.866	16.69
686.988	36.69
687.11	18.69
687.232	-3.31
687.355	3.69
687.477	8.69
687.599	27.69
687.722	14.69
687.844	-1.31
687.966	13.69
688.088	4.69
688.211	35.69
688.333	8.69
688.455	22.69
688.578	22.69
688.7	11.69
688.822	-0.31
688.944	-8.31
689.067	34.69
689.189	-3.31
689.311	-6.31
689.434	3.69
689.556	4.69
689.678	7.69
689.801	2.69
689.923	14.69
690.045	18.69
690.167	23.69
690.29	0.69
690.412	3.69
690.534	14.69
690.657	8.69
690.779	2.69
690.901	19.69
691.024	-1.31
691.146	18.69
691.268	-3.31
691.391	10.69
691.513	25.69
691.635	31.69
691.758	38.69
691.88	19.69
692.002	-0.31
692.125	-1.31
692.247	16.69
692.369	-2.31
692.492	-6.31
692.614	7.69
692.736	-6.31
692.859	3.69
692.981	12.69
693.103	4.69
693.226	6.69
693.348	28.69
693.47	7.69
693.593	34.69
693.715	39.69
693.837	38.69
693.96	20.69
694.082	13.69
694.204	13.69
694.327	12.69
694.449	-8.31
694.571	19.69
694.694	17.69
694.816	6.69
694.938	-4.31
695.061	14.69
695.183	8.69
695.305	6.69
695.428	27.69
695.55	-2.31
695.672	1.69
695.795	6.69
695.917	23.69
696.04	7.69
696.162	-0.31
696.284	2.69
696.407	7.69
696.529	19.69
696.651	30.69
696.774	-6.31
696.896	33.69
697.019	12.69
697.141	10.69
697.263	11.69
697.386	15.69
697.508	20.69
697.63	21.69
697.753	21.69
697.875	10.69
697.998	-2.31
698.12	14.69
698.242	-5.31
698.365	12.69
698.487	10.69
698.61	19.69
698.732	34.69
698.854	33.69
698.977	17.69
699.099	26.69
699.221	16.69
699.344	8.69
699.466	23.69
699.589	14.69
699.711	4.69
699.834	4.69
699.956	5.69
700.078	13.69
700.201	11.69
700.323	15.69
700.446	2.69
700.568	-4.31
700.69	7.69
700.813	20.69
700.935	7.69
701.058	-0.31
701.18	14.69
701.302	11.69
701.425	12.69
701.547	14.69
701.67	-5.31
701.792	-2.31
701.915	2.69
702.037	-9.31
702.159	-2.31
702.282	12.69
702.404	2.69
702.527	6.69
702.649	19.69
702.772	12.69
702.894	8.69
703.017	16.69
703.139	20.69
703.261	34.69
703.384	20.69
703.506	-1.31
703.629	6.69
703.751	18.69
703.874	14.69
703.996	7.69
704.119	-5.31
704.241	6.69
704.364	-5.31
704.486	-3.31
704.608	17.69
704.731	10.69
704.853	26.69
704.976	3.69
705.098	-2.31
705.221	2.69
705.343	7.69
705.466	6.69
705.588	19.69
705.711	-9.31
705.833	24.69
705.956	2.69
706.078	10.69
706.201	6.69
706.323	5.69
706.446	-0.31
