Data from LowRes_mercury_15_20_11_07_2024_HR4C61881__100__15-23-42-270.txt Node

Date: Thu Nov 07 15:23:42 EST 2024
User: crc00042
Spectrometer: HR4C6188
Trigger mode: 4
Integration Time (sec): 1.000000E-1
Scans to average: 1
Electric dark correction enabled: true
Nonlinearity correction enabled: false
Boxcar width: 0
XAxis mode: Wavelengths
Number of Pixels in Spectrum: 3648
>>>>>Begin Spectral Data<<<<<
245.66	-82.62
245.797	-82.62
245.934	-82.62
246.071	-51.62
246.208	18.38
246.344	8.38
246.481	-7.62
246.618	-13.62
246.755	3.38
246.892	-0.62
247.029	-5.62
247.165	-8.62
247.302	13.38
247.439	-5.62
247.576	21.38
247.713	-9.62
247.849	16.38
247.986	-11.62
248.123	-3.62
248.26	9.38
248.396	-2.62
248.533	8.38
248.67	7.38
248.806	8.38
248.943	-21.62
249.08	0.38
249.216	16.38
249.353	-11.62
249.49	8.38
249.626	12.38
249.763	-4.62
249.9	-27.62
250.036	-13.62
250.173	20.38
250.309	0.38
250.446	8.38
250.582	10.38
250.719	-15.62
250.856	18.38
250.992	8.38
251.129	5.38
251.265	-13.62
251.402	0.38
251.538	-9.62
251.675	-15.62
251.811	12.38
251.948	18.38
252.084	-2.62
252.221	2.38
252.357	-11.62
252.493	28.38
252.63	5.38
252.766	8.38
252.903	8.38
253.039	6.38
253.175	-1.62
253.312	22.38
253.448	-0.62
253.585	-6.62
253.721	5.38
253.857	-11.62
253.994	9.38
254.13	0.38
254.266	12.38
254.403	10.38
254.539	7.38
254.675	13.38
254.811	21.38
254.948	29.38
255.084	-11.62
255.22	-16.62
255.356	13.38
255.493	18.38
255.629	7.38
255.765	-5.62
255.901	3.38
256.037	-2.62
256.174	14.38
256.31	-2.62
256.446	-2.62
256.582	0.38
256.718	18.38
256.854	35.38
256.991	9.38
257.127	24.38
257.263	-13.62
257.399	-2.62
257.535	7.38
257.671	-8.62
257.807	-15.62
257.943	2.38
258.079	2.38
258.215	0.38
258.351	19.38
258.487	0.38
258.623	19.38
258.759	0.38
258.895	11.38
259.031	12.38
259.167	1.38
259.303	11.38
259.439	6.38
259.575	9.38
259.711	20.38
259.847	8.38
259.983	3.38
260.119	-14.62
260.255	9.38
260.391	4.38
260.527	11.38
260.663	14.38
260.799	13.38
260.934	12.38
261.07	-0.62
261.206	5.38
261.342	-8.62
261.478	-1.62
261.614	11.38
261.749	11.38
261.885	15.38
262.021	3.38
262.157	7.38
262.293	-3.62
262.428	-4.62
262.564	-2.62
262.7	4.38
262.836	10.38
262.971	13.38
263.107	10.38
263.243	10.38
263.378	14.38
263.514	3.38
263.65	5.38
263.785	-7.62
263.921	-0.62
264.057	19.38
264.192	1.38
264.328	5.38
264.464	1.38
264.599	13.38
264.735	18.38
264.871	-4.62
265.006	9.38
265.142	11.38
265.277	15.38
265.413	12.38
265.548	32.38
265.684	20.38
265.819	-10.62
265.955	-9.62
266.091	-13.62
266.226	-15.62
266.362	-18.62
266.497	3.38
266.633	-4.62
266.768	4.38
266.903	7.38
267.039	18.38
267.174	26.38
267.31	8.38
267.445	15.38
267.581	-4.62
267.716	6.38
267.851	8.38
267.987	16.38
268.122	15.38
268.258	2.38
268.393	-13.62
268.528	15.38
268.664	9.38
268.799	-8.62
268.934	-5.62
269.07	-7.62
269.205	12.38
269.34	25.38
269.476	9.38
269.611	-9.62
269.746	11.38
269.881	9.38
270.017	31.38
270.152	20.38
270.287	7.38
270.422	35.38
270.558	0.38
270.693	11.38
270.828	7.38
270.963	3.38
271.098	-1.62
271.234	-16.62
271.369	1.38
271.504	17.38
271.639	-17.62
271.774	9.38
271.909	0.38
272.045	-19.62
272.18	10.38
272.315	12.38
272.45	23.38
272.585	-20.62
272.72	9.38
272.855	7.38
272.99	13.38
273.125	-11.62
273.26	-13.62
273.395	4.38
273.53	-3.62
273.665	25.38
273.8	24.38
273.935	15.38
274.07	5.38
274.205	-2.62
274.34	-7.62
274.475	-0.62
274.61	22.38
274.745	9.38
274.88	9.38
275.015	-5.62
275.15	8.38
275.285	6.38
275.42	20.38
275.555	11.38
275.69	0.38
275.825	-6.62
275.959	15.38
276.094	-6.62
276.229	-5.62
276.364	9.38
276.499	-2.62
276.634	-4.62
276.768	0.38
276.903	1.38
277.038	28.38
277.173	22.38
277.308	-1.62
277.442	-11.62
277.577	-17.62
277.712	2.38
277.847	-2.62
277.981	9.38
278.116	-2.62
278.251	20.38
278.386	24.38
278.52	0.38
278.655	8.38
278.79	9.38
278.924	19.38
279.059	34.38
279.194	-20.62
279.328	31.38
279.463	4.38
279.598	33.38
279.732	25.38
279.867	26.38
280.001	16.38
280.136	13.38
280.271	0.38
280.405	12.38
280.54	1.38
280.674	-13.62
280.809	5.38
280.943	6.38
281.078	20.38
281.213	11.38
281.347	19.38
281.482	16.38
281.616	4.38
281.751	10.38
281.885	-15.62
282.02	-0.62
282.154	22.38
282.288	-13.62
282.423	-7.62
282.557	-7.62
282.692	10.38
282.826	-3.62
282.961	1.38
283.095	10.38
283.229	-13.62
283.364	-2.62
283.498	8.38
283.633	2.38
283.767	20.38
283.901	-3.62
284.036	-8.62
284.17	9.38
284.304	-4.62
284.439	9.38
284.573	19.38
284.707	21.38
284.842	-17.62
284.976	0.38
285.11	5.38
285.244	11.38
285.379	42.38
285.513	-12.62
285.647	4.38
285.781	-11.62
285.916	22.38
286.05	16.38
286.184	19.38
286.318	25.38
286.453	-9.62
286.587	-4.62
286.721	2.38
286.855	-0.62
286.989	28.38
287.123	13.38
287.258	1.38
287.392	11.38
287.526	3.38
287.66	17.38
287.794	-0.62
287.928	11.38
288.062	17.38
288.196	-3.62
288.33	4.38
288.464	30.38
288.598	11.38
288.733	14.38
288.867	13.38
289.001	-0.62
289.135	-13.62
289.269	-0.62
289.403	10.38
289.537	20.38
289.671	16.38
289.805	-8.62
289.939	4.38
290.073	9.38
290.207	18.38
290.34	1.38
290.474	33.38
290.608	12.38
290.742	-13.62
290.876	-13.62
291.01	-0.62
291.144	19.38
291.278	13.38
291.412	12.38
291.546	7.38
291.679	23.38
291.813	4.38
291.947	23.38
292.081	23.38
292.215	5.38
292.349	13.38
292.482	12.38
292.616	8.38
292.75	11.38
292.884	17.38
293.018	11.38
293.151	-4.62
293.285	3.38
293.419	-2.62
293.553	-10.62
293.686	-15.62
293.82	-5.62
293.954	15.38
294.088	4.38
294.221	10.38
294.355	-11.62
294.489	19.38
294.622	-2.62
294.756	3.38
294.89	5.38
295.023	3.38
295.157	29.38
295.291	14.38
295.424	22.38
295.558	14.38
295.691	15.38
295.825	22.38
295.959	15.38
296.092	-2.62
296.226	4.38
296.359	-4.62
296.493	7.38
296.627	2.38
296.76	19.38
296.894	12.38
297.027	11.38
297.161	-4.62
297.294	-7.62
297.428	6.38
297.561	35.38
297.695	-7.62
297.828	-3.62
297.962	-1.62
298.095	-1.62
298.229	20.38
298.362	8.38
298.495	-17.62
298.629	-8.62
298.762	4.38
298.896	0.38
299.029	5.38
299.162	10.38
299.296	1.38
299.429	1.38
299.563	0.38
299.696	23.38
299.829	22.38
299.963	36.38
300.096	10.38
300.229	12.38
300.363	11.38
300.496	16.38
300.629	-13.62
300.763	4.38
300.896	-14.62
301.029	4.38
301.162	2.38
301.296	-1.62
301.429	7.38
301.562	-5.62
301.695	10.38
301.829	10.38
301.962	14.38
302.095	16.38
302.228	-0.62
302.362	-0.62
302.495	3.38
302.628	7.38
302.761	1.38
302.894	2.38
303.027	17.38
303.161	-3.62
303.294	-5.62
303.427	27.38
303.56	13.38
303.693	12.38
303.826	36.38
303.959	17.38
304.092	-1.62
304.225	2.38
304.359	15.38
304.492	10.38
304.625	24.38
304.758	20.38
304.891	-18.62
305.024	3.38
305.157	10.38
305.29	3.38
305.423	-0.62
305.556	10.38
305.689	28.38
305.822	-5.62
305.955	-8.62
306.088	13.38
306.221	27.38
306.354	-6.62
306.487	10.38
306.62	18.38
306.752	16.38
306.885	11.38
307.018	18.38
307.151	14.38
307.284	16.38
307.417	4.38
307.55	3.38
307.683	-12.62
307.816	0.38
307.948	21.38
308.081	20.38
308.214	11.38
308.347	22.38
308.48	3.38
308.613	-4.62
308.745	15.38
308.878	10.38
309.011	-1.62
309.144	26.38
309.277	6.38
309.409	15.38
309.542	-10.62
309.675	4.38
309.808	-0.62
309.94	12.38
310.073	3.38
310.206	-2.62
310.339	23.38
310.471	-0.62
310.604	30.38
310.737	1.38
310.869	5.38
311.002	10.38
311.135	-2.62
311.267	-13.62
311.4	-9.62
311.533	16.38
311.665	25.38
311.798	-0.62
311.93	20.38
312.063	29.38
312.196	50.38
312.328	96.38
312.461	66.38
312.593	28.38
312.726	72.38
312.859	102.38
312.991	181.38
313.124	49.38
313.256	19.38
313.389	13.38
313.521	-5.62
313.654	-2.62
313.786	-7.62
313.919	10.38
314.051	-0.62
314.184	9.38
314.316	18.38
314.449	-9.62
314.581	-4.62
314.714	8.38
314.846	12.38
314.978	-16.62
315.111	2.38
315.243	3.38
315.376	8.38
315.508	-1.62
315.641	-3.62
315.773	14.38
315.905	8.38
316.038	13.38
316.17	9.38
316.302	10.38
316.435	1.38
316.567	-1.62
316.699	7.38
316.832	-9.62
316.964	-12.62
317.096	-26.62
317.229	-1.62
317.361	-1.62
317.493	1.38
317.625	-6.62
317.758	0.38
317.89	19.38
318.022	-6.62
318.155	-1.62
318.287	1.38
318.419	19.38
318.551	25.38
318.683	0.38
318.816	-3.62
318.948	-25.62
319.08	-18.62
319.212	-11.62
319.344	28.38
319.477	0.38
319.609	16.38
319.741	29.38
319.873	15.38
320.005	0.38
320.137	4.38
320.269	14.38
320.401	17.38
320.534	15.38
320.666	-13.62
320.798	-12.62
320.93	3.38
321.062	-5.62
321.194	7.38
321.326	14.38
321.458	-4.62
321.59	16.38
321.722	-9.62
321.854	9.38
321.986	1.38
322.118	-0.62
322.25	4.38
322.382	29.38
322.514	-5.62
322.646	6.38
322.778	26.38
322.91	4.38
323.042	2.38
323.174	14.38
323.306	-12.62
323.438	-14.62
323.57	-1.62
323.702	-13.62
323.834	14.38
323.966	13.38
324.097	-0.62
324.229	18.38
324.361	12.38
324.493	29.38
324.625	13.38
324.757	19.38
324.889	-3.62
325.021	8.38
325.152	26.38
325.284	20.38
325.416	0.38
325.548	11.38
325.68	-3.62
325.811	27.38
325.943	26.38
326.075	-7.62
326.207	21.38
326.339	17.38
326.47	3.38
326.602	20.38
326.734	9.38
326.866	-1.62
326.997	-5.62
327.129	-5.62
327.261	9.38
327.392	1.38
327.524	9.38
327.656	-0.62
327.787	18.38
327.919	6.38
328.051	26.38
328.182	31.38
328.314	27.38
328.446	0.38
328.577	2.38
328.709	16.38
328.841	3.38
328.972	2.38
329.104	1.38
329.235	4.38
329.367	10.38
329.499	17.38
329.63	14.38
329.762	11.38
329.893	15.38
330.025	-3.62
330.156	-12.62
330.288	21.38
330.419	12.38
330.551	20.38
330.683	0.38
330.814	-4.62
330.946	20.38
331.077	3.38
331.208	10.38
331.34	-1.62
331.471	-13.62
331.603	-7.62
331.734	-15.62
331.866	-2.62
331.997	6.38
332.129	-0.62
332.26	0.38
332.392	13.38
332.523	18.38
332.654	5.38
332.786	7.38
332.917	-13.62
333.048	17.38
333.18	23.38
333.311	0.38
333.443	-1.62
333.574	1.38
333.705	48.38
333.837	37.38
333.968	96.38
334.099	234.38
334.231	203.38
334.362	51.38
334.493	35.38
334.624	28.38
334.756	20.38
334.887	11.38
335.018	15.38
335.15	22.38
335.281	7.38
335.412	33.38
335.543	0.38
335.675	17.38
335.806	8.38
335.937	15.38
336.068	25.38
336.199	38.38
336.331	11.38
336.462	14.38
336.593	11.38
336.724	6.38
336.855	8.38
336.986	6.38
337.118	10.38
337.249	7.38
337.38	12.38
337.511	11.38
337.642	11.38
337.773	18.38
337.904	1.38
338.035	11.38
338.166	18.38
338.298	2.38
338.429	17.38
338.56	22.38
338.691	28.38
338.822	11.38
338.953	23.38
339.084	40.38
339.215	10.38
339.346	29.38
339.477	9.38
339.608	6.38
339.739	15.38
339.87	20.38
340.001	13.38
340.132	40.38
340.263	28.38
340.394	22.38
340.525	29.38
340.656	4.38
340.787	23.38
340.918	38.38
341.049	22.38
341.179	18.38
341.31	11.38
341.441	16.38
341.572	12.38
341.703	12.38
341.834	17.38
341.965	31.38
342.096	12.38
342.227	27.38
342.357	20.38
342.488	13.38
342.619	19.38
342.75	-2.62
342.881	11.38
343.012	36.38
343.142	42.38
343.273	6.38
343.404	22.38
343.535	37.38
343.666	40.38
343.796	18.38
343.927	18.38
344.058	28.38
344.189	30.38
344.319	34.38
344.45	16.38
344.581	44.38
344.712	27.38
344.842	30.38
344.973	16.38
345.104	43.38
345.234	53.38
345.365	20.38
345.496	33.38
345.626	35.38
345.757	33.38
345.888	24.38
346.018	28.38
346.149	20.38
346.28	40.38
346.41	26.38
346.541	35.38
346.672	12.38
346.802	24.38
346.933	27.38
347.063	40.38
347.194	26.38
347.325	33.38
347.455	46.38
347.586	45.38
347.716	14.38
347.847	52.38
347.977	41.38
348.108	48.38
348.238	39.38
348.369	32.38
348.499	45.38
348.63	42.38
348.76	53.38
348.891	69.38
349.021	74.38
349.152	76.38
349.282	66.38
349.413	34.38
349.543	58.38
349.674	19.38
349.804	46.38
349.935	28.38
350.065	31.38
350.196	33.38
350.326	44.38
350.456	19.38
350.587	43.38
350.717	28.38
350.848	50.38
350.978	32.38
351.108	22.38
351.239	40.38
351.369	25.38
351.499	12.38
351.63	31.38
351.76	18.38
351.89	20.38
352.021	23.38
352.151	1.38
352.281	17.38
352.412	41.38
352.542	19.38
352.672	29.38
352.803	0.38
352.933	22.38
353.063	21.38
353.193	16.38
353.324	10.38
353.454	23.38
353.584	27.38
353.714	17.38
353.845	13.38
353.975	4.38
354.105	30.38
354.235	33.38
354.365	34.38
354.496	40.38
354.626	43.38
354.756	38.38
354.886	31.38
355.016	42.38
355.146	24.38
355.277	33.38
355.407	14.38
355.537	26.38
355.667	24.38
355.797	19.38
355.927	13.38
356.057	28.38
356.187	29.38
356.318	26.38
356.448	33.38
356.578	37.38
356.708	36.38
356.838	38.38
356.968	35.38
357.098	26.38
357.228	40.38
357.358	23.38
357.488	39.38
357.618	58.38
357.748	51.38
357.878	20.38
358.008	37.38
358.138	21.38
358.268	13.38
358.398	47.38
358.528	16.38
358.658	35.38
358.788	32.38
358.918	37.38
359.048	16.38
359.178	42.38
359.308	24.38
359.438	59.38
359.568	55.38
359.698	49.38
359.827	32.38
359.957	24.38
360.087	23.38
360.217	20.38
360.347	50.38
360.477	53.38
360.607	22.38
360.737	45.38
360.866	19.38
360.996	42.38
361.126	16.38
361.256	54.38
361.386	45.38
361.516	34.38
361.645	32.38
361.775	48.38
361.905	29.38
362.035	43.38
362.165	31.38
362.294	63.38
362.424	57.38
362.554	53.38
362.684	51.38
362.813	52.38
362.943	56.38
363.073	49.38
363.203	72.38
363.332	70.38
363.462	63.38
363.592	114.38
363.721	118.38
363.851	160.38
363.981	201.38
364.111	255.38
364.24	316.38
364.37	484.38
364.5	863.38
364.629	1792.38
364.759	3879.38
364.888	6178.38
365.018	9312.38
365.148	14791.38
365.277	12954.38
365.407	4727.38
365.537	3092.38
365.666	4021.38
365.796	1826.38
365.925	802.38
366.055	762.38
366.184	1037.38
366.314	1396.38
366.444	2450.38
366.573	2086.38
366.703	646.38
366.832	211.38
366.962	104.38
367.091	96.38
367.221	87.38
367.35	74.38
367.48	105.38
367.609	58.38
367.739	61.38
367.868	19.38
367.998	42.38
368.127	46.38
368.257	62.38
368.386	61.38
368.516	53.38
368.645	35.38
368.775	34.38
368.904	35.38
369.033	43.38
369.163	45.38
369.292	54.38
369.422	52.38
369.551	63.38
369.68	55.38
369.81	56.38
369.939	30.38
370.069	48.38
370.198	31.38
370.327	24.38
370.457	34.38
370.586	49.38
370.715	23.38
370.845	31.38
370.974	36.38
371.103	74.38
371.233	55.38
371.362	55.38
371.491	41.38
371.621	62.38
371.75	51.38
371.879	46.38
372.008	46.38
372.138	58.38
372.267	56.38
372.396	35.38
372.525	33.38
372.655	20.38
372.784	15.38
372.913	43.38
373.042	42.38
373.172	37.38
373.301	11.38
373.43	14.38
373.559	13.38
373.688	23.38
373.818	42.38
373.947	23.38
374.076	24.38
374.205	33.38
374.334	7.38
374.463	11.38
374.593	13.38
374.722	43.38
374.851	36.38
374.98	28.38
375.109	17.38
375.238	23.38
375.367	32.38
375.496	-10.62
375.625	6.38
375.755	30.38
375.884	44.38
376.013	32.38
376.142	0.38
376.271	17.38
376.4	14.38
376.529	33.38
376.658	45.38
376.787	20.38
376.916	19.38
377.045	29.38
377.174	19.38
377.303	31.38
377.432	62.38
377.561	26.38
377.69	37.38
377.819	21.38
377.948	18.38
378.077	16.38
378.206	12.38
378.335	14.38
378.464	28.38
378.593	31.38
378.722	2.38
378.851	31.38
378.98	24.38
379.108	20.38
379.237	8.38
379.366	20.38
379.495	29.38
379.624	24.38
379.753	24.38
379.882	18.38
380.011	32.38
380.14	12.38
380.268	28.38
380.397	18.38
380.526	31.38
380.655	16.38
380.784	5.38
380.913	16.38
381.041	10.38
381.17	14.38
381.299	28.38
381.428	44.38
381.557	10.38
381.685	11.38
381.814	33.38
381.943	27.38
382.072	15.38
382.2	23.38
382.329	23.38
382.458	16.38
382.587	19.38
382.715	28.38
382.844	35.38
382.973	26.38
383.102	12.38
383.23	10.38
383.359	12.38
383.488	32.38
383.616	28.38
383.745	10.38
383.874	17.38
384.003	21.38
384.131	16.38
384.26	14.38
384.389	27.38
384.517	17.38
384.646	2.38
384.774	14.38
384.903	45.38
385.032	32.38
385.16	24.38
385.289	24.38
385.418	14.38
385.546	16.38
385.675	29.38
385.803	43.38
385.932	12.38
386.06	13.38
386.189	15.38
386.318	-1.62
386.446	17.38
386.575	35.38
386.703	23.38
386.832	2.38
386.96	6.38
387.089	24.38
387.217	29.38
387.346	10.38
387.474	20.38
387.603	39.38
387.731	28.38
387.86	33.38
387.988	41.38
388.117	54.38
388.245	15.38
388.374	-0.62
388.502	40.38
388.631	22.38
388.759	16.38
388.888	27.38
389.016	14.38
389.144	30.38
389.273	22.38
389.401	7.38
389.53	4.38
389.658	29.38
389.786	13.38
389.915	18.38
390.043	11.38
390.172	24.38
390.3	40.38
390.428	36.38
390.557	37.38
390.685	44.38
390.813	46.38
390.942	49.38
391.07	15.38
391.198	15.38
391.327	18.38
391.455	29.38
391.583	47.38
391.712	23.38
391.84	21.38
391.968	27.38
392.096	14.38
392.225	16.38
392.353	27.38
392.481	23.38
392.609	29.38
392.738	26.38
392.866	19.38
392.994	14.38
393.122	33.38
393.251	21.38
393.379	23.38
393.507	9.38
393.635	21.38
393.764	29.38
393.892	33.38
394.02	28.38
394.148	28.38
394.276	38.38
394.404	66.38
394.533	13.38
394.661	22.38
394.789	42.38
394.917	38.38
395.045	14.38
395.173	23.38
395.302	24.38
395.43	42.38
395.558	29.38
395.686	32.38
395.814	41.38
395.942	23.38
396.07	35.38
396.198	28.38
396.326	50.38
396.454	49.38
396.582	46.38
396.711	45.38
396.839	35.38
396.967	32.38
397.095	36.38
397.223	45.38
397.351	68.38
397.479	57.38
397.607	29.38
397.735	42.38
397.863	53.38
397.991	35.38
398.119	18.38
398.247	56.38
398.375	54.38
398.503	45.38
398.631	35.38
398.759	70.38
398.887	71.38
399.015	50.38
399.143	33.38
399.271	57.38
399.399	88.38
399.526	74.38
399.654	92.38
399.782	65.38
399.91	98.38
400.038	100.38
400.166	83.38
400.294	77.38
400.422	64.38
400.55	87.38
400.678	119.38
400.805	117.38
400.933	108.38
401.061	116.38
401.189	110.38
401.317	119.38
401.445	103.38
401.573	85.38
401.7	64.38
401.828	61.38
401.956	53.38
402.084	44.38
402.212	53.38
402.34	44.38
402.467	25.38
402.595	57.38
402.723	54.38
402.851	78.38
402.978	48.38
403.106	68.38
403.234	79.38
403.362	124.38
403.489	124.38
403.617	146.38
403.745	201.38
403.873	278.38
404	572.38
404.128	1481.38
404.256	3916.38
404.384	5078.38
404.511	5415.38
404.639	7169.38
404.767	11466.38
404.894	14627.38
405.022	4918.38
405.15	1280.38
405.277	418.38
405.405	250.38
405.533	136.38
405.66	97.38
405.788	68.38
405.916	78.38
406.043	64.38
406.171	65.38
406.299	56.38
406.426	75.38
406.554	65.38
406.681	59.38
406.809	58.38
406.937	65.38
407.064	69.38
407.192	125.38
407.319	304.38
407.447	493.38
407.574	516.38
407.702	602.38
407.83	848.38
407.957	1600.38
408.085	928.38
408.212	276.38
408.34	90.38
408.467	68.38
408.595	51.38
408.722	50.38
408.85	48.38
408.977	38.38
409.105	29.38
409.232	62.38
409.36	27.38
409.487	33.38
409.615	33.38
409.742	25.38
409.87	15.38
409.997	34.38
410.125	39.38
410.252	37.38
410.379	31.38
410.507	40.38
410.634	41.38
410.762	18.38
410.889	42.38
411.017	45.38
411.144	42.38
411.271	34.38
411.399	41.38
411.526	30.38
411.653	35.38
411.781	53.38
411.908	39.38
412.036	16.38
412.163	34.38
412.29	43.38
412.418	25.38
412.545	35.38
412.672	28.38
412.8	71.38
412.927	43.38
413.054	56.38
413.182	31.38
413.309	7.38
413.436	20.38
413.564	31.38
413.691	35.38
413.818	37.38
413.945	11.38
414.073	38.38
414.2	39.38
414.327	35.38
414.454	54.38
414.582	37.38
414.709	19.38
414.836	20.38
414.963	34.38
415.091	52.38
415.218	41.38
415.345	43.38
415.472	31.38
415.6	34.38
415.727	11.38
415.854	15.38
415.981	26.38
416.108	35.38
416.236	42.38
416.363	40.38
416.49	34.38
416.617	36.38
416.744	42.38
416.871	46.38
416.998	36.38
417.126	33.38
417.253	26.38
417.38	37.38
417.507	33.38
417.634	37.38
417.761	36.38
417.888	31.38
418.015	41.38
418.143	50.38
418.27	68.38
418.397	33.38
418.524	33.38
418.651	37.38
418.778	47.38
418.905	53.38
419.032	49.38
419.159	43.38
419.286	60.38
419.413	50.38
419.54	51.38
419.667	37.38
419.794	35.38
419.921	38.38
420.048	47.38
420.175	39.38
420.302	56.38
420.429	58.38
420.556	37.38
420.683	37.38
420.81	51.38
420.937	64.38
421.064	97.38
421.191	58.38
421.318	91.38
421.445	81.38
421.572	56.38
421.699	70.38
421.826	62.38
421.953	42.38
422.08	29.38
422.207	15.38
422.334	28.38
422.461	40.38
422.588	18.38
422.714	43.38
422.841	42.38
422.968	46.38
423.095	24.38
423.222	12.38
423.349	42.38
423.476	23.38
423.603	16.38
423.729	6.38
423.856	17.38
423.983	24.38
424.11	16.38
424.237	16.38
424.364	26.38
424.491	29.38
424.617	16.38
424.744	20.38
424.871	34.38
424.998	7.38
425.125	13.38
425.251	15.38
425.378	3.38
425.505	12.38
425.632	23.38
425.758	21.38
425.885	10.38
426.012	31.38
426.139	30.38
426.266	16.38
426.392	40.38
426.519	39.38
426.646	26.38
426.772	26.38
426.899	23.38
427.026	29.38
427.153	26.38
427.279	35.38
427.406	22.38
427.533	21.38
427.659	4.38
427.786	18.38
427.913	29.38
428.039	34.38
428.166	14.38
428.293	21.38
428.419	32.38
428.546	29.38
428.673	20.38
428.799	23.38
428.926	17.38
429.053	26.38
429.179	35.38
429.306	29.38
429.433	36.38
429.559	44.38
429.686	-4.62
429.812	19.38
429.939	22.38
430.066	21.38
430.192	39.38
430.319	49.38
430.445	19.38
430.572	28.38
430.699	7.38
430.825	13.38
430.952	24.38
431.078	27.38
431.205	48.38
431.331	31.38
431.458	39.38
431.584	39.38
431.711	9.38
431.837	34.38
431.964	26.38
432.09	18.38
432.217	16.38
432.343	32.38
432.47	44.38
432.596	37.38
432.723	24.38
432.849	17.38
432.976	32.38
433.102	37.38
433.229	42.38
433.355	64.38
433.482	93.38
433.608	103.38
433.735	110.38
433.861	98.38
433.987	163.38
434.114	194.38
434.24	173.38
434.367	216.38
434.493	234.38
434.62	299.38
434.746	358.38
434.872	640.38
434.999	855.38
435.125	1758.38
435.252	5536.38
435.378	13371.38
435.504	15197.38
435.631	15419.38
435.757	15685.38
435.883	15685.38
436.01	15685.38
436.136	15685.38
436.262	15685.38
436.389	3473.38
436.515	2048.38
436.641	794.38
436.768	590.38
436.894	404.38
437.02	381.38
437.147	304.38
437.273	300.38
437.399	227.38
437.526	254.38
437.652	176.38
437.778	193.38
437.904	145.38
438.031	163.38
438.157	145.38
438.283	157.38
438.409	118.38
438.536	117.38
438.662	132.38
438.788	127.38
438.914	99.38
439.041	124.38
439.167	98.38
439.293	108.38
439.419	105.38
439.546	115.38
439.672	76.38
439.798	75.38
439.924	85.38
440.05	95.38
440.177	66.38
440.303	63.38
440.429	52.38
440.555	76.38
440.681	57.38
440.807	71.38
440.934	51.38
441.06	59.38
441.186	43.38
441.312	70.38
441.438	73.38
441.564	71.38
441.69	57.38
441.816	76.38
441.943	45.38
442.069	68.38
442.195	47.38
442.321	75.38
442.447	19.38
442.573	54.38
442.699	46.38
442.825	43.38
442.951	42.38
443.077	61.38
443.203	46.38
443.33	48.38
443.456	25.38
443.582	27.38
443.708	25.38
443.834	65.38
443.96	60.38
444.086	42.38
444.212	67.38
444.338	71.38
444.464	67.38
444.59	60.38
444.716	54.38
444.842	50.38
444.968	37.38
445.094	48.38
445.22	56.38
445.346	52.38
445.472	57.38
445.598	32.38
445.724	25.38
445.85	24.38
445.976	53.38
446.102	45.38
446.228	50.38
446.354	34.38
446.48	33.38
446.605	43.38
446.731	50.38
446.857	42.38
446.983	46.38
447.109	39.38
447.235	28.38
447.361	24.38
447.487	35.38
447.613	43.38
447.739	44.38
447.865	28.38
447.99	36.38
448.116	26.38
448.242	37.38
448.368	35.38
448.494	22.38
448.62	51.38
448.746	34.38
448.872	31.38
448.997	26.38
449.123	40.38
449.249	36.38
449.375	42.38
449.501	12.38
449.627	17.38
449.752	30.38
449.878	4.38
450.004	23.38
450.13	37.38
450.256	22.38
450.381	37.38
450.507	24.38
450.633	35.38
450.759	37.38
450.884	19.38
451.01	45.38
451.136	29.38
451.262	36.38
451.388	46.38
451.513	26.38
451.639	34.38
451.765	38.38
451.89	40.38
452.016	12.38
452.142	39.38
452.268	32.38
452.393	20.38
452.519	14.38
452.645	42.38
452.771	26.38
452.896	14.38
453.022	24.38
453.148	54.38
453.273	40.38
453.399	37.38
453.525	15.38
453.65	25.38
453.776	23.38
453.902	23.38
454.027	27.38
454.153	44.38
454.279	44.38
454.404	13.38
454.53	39.38
454.656	59.38
454.781	24.38
454.907	29.38
455.032	24.38
455.158	49.38
455.284	36.38
455.409	20.38
455.535	32.38
455.66	35.38
455.786	47.38
455.912	31.38
456.037	23.38
456.163	35.38
456.288	39.38
456.414	15.38
456.539	17.38
456.665	24.38
456.791	20.38
456.916	40.38
457.042	33.38
457.167	13.38
457.293	41.38
457.418	44.38
457.544	46.38
457.669	39.38
457.795	39.38
457.92	26.38
458.046	24.38
458.171	23.38
458.297	16.38
458.422	28.38
458.548	34.38
458.673	40.38
458.799	38.38
458.924	20.38
459.05	22.38
459.175	21.38
459.301	22.38
459.426	42.38
459.552	31.38
459.677	38.38
459.803	54.38
459.928	47.38
460.053	39.38
460.179	43.38
460.304	47.38
460.43	24.38
460.555	31.38
460.681	18.38
460.806	21.38
460.931	26.38
461.057	41.38
461.182	18.38
461.308	42.38
461.433	53.38
461.558	24.38
461.684	40.38
461.809	27.38
461.934	32.38
462.06	37.38
462.185	20.38
462.311	31.38
462.436	41.38
462.561	28.38
462.687	31.38
462.812	26.38
462.937	27.38
463.063	20.38
463.188	24.38
463.313	31.38
463.439	42.38
463.564	30.38
463.689	34.38
463.814	37.38
463.94	19.38
464.065	27.38
464.19	37.38
464.316	12.38
464.441	22.38
464.566	15.38
464.692	33.38
464.817	33.38
464.942	10.38
465.067	35.38
465.193	15.38
465.318	18.38
465.443	25.38
465.568	30.38
465.694	26.38
465.819	45.38
465.944	32.38
466.069	45.38
466.194	48.38
466.32	35.38
466.445	35.38
466.57	32.38
466.695	38.38
466.82	34.38
466.946	46.38
467.071	41.38
467.196	31.38
467.321	56.38
467.446	26.38
467.572	33.38
467.697	39.38
467.822	56.38
467.947	42.38
468.072	26.38
468.197	25.38
468.323	42.38
468.448	34.38
468.573	7.38
468.698	23.38
468.823	26.38
468.948	61.38
469.073	50.38
469.198	47.38
469.324	50.38
469.449	38.38
469.574	59.38
469.699	54.38
469.824	42.38
469.949	39.38
470.074	46.38
470.199	72.38
470.324	45.38
470.449	38.38
470.574	6.38
470.7	31.38
470.825	46.38
470.95	58.38
471.075	24.38
471.2	50.38
471.325	37.38
471.45	30.38
471.575	28.38
471.7	44.38
471.825	26.38
471.95	29.38
472.075	37.38
472.2	32.38
472.325	33.38
472.45	25.38
472.575	24.38
472.7	30.38
472.825	39.38
472.95	42.38
473.075	34.38
473.2	31.38
473.325	44.38
473.45	39.38
473.575	30.38
473.7	56.38
473.825	15.38
473.95	31.38
474.075	45.38
474.2	20.38
474.325	5.38
474.45	46.38
474.574	26.38
474.699	36.38
474.824	40.38
474.949	18.38
475.074	13.38
475.199	24.38
475.324	30.38
475.449	15.38
475.574	32.38
475.699	25.38
475.824	18.38
475.949	23.38
476.073	18.38
476.198	24.38
476.323	24.38
476.448	31.38
476.573	5.38
476.698	34.38
476.823	30.38
476.947	32.38
477.072	32.38
477.197	37.38
477.322	13.38
477.447	24.38
477.572	42.38
477.697	36.38
477.821	36.38
477.946	30.38
478.071	31.38
478.196	24.38
478.321	12.38
478.445	22.38
478.57	4.38
478.695	13.38
478.82	25.38
478.945	32.38
479.069	-2.62
479.194	15.38
479.319	42.38
479.444	32.38
479.569	23.38
479.693	37.38
479.818	45.38
479.943	47.38
480.068	28.38
480.192	36.38
480.317	23.38
480.442	27.38
480.567	24.38
480.691	21.38
480.816	33.38
480.941	33.38
481.066	19.38
481.19	30.38
481.315	22.38
481.44	19.38
481.564	16.38
481.689	20.38
481.814	22.38
481.938	20.38
482.063	-8.62
482.188	14.38
482.313	34.38
482.437	26.38
482.562	19.38
482.687	20.38
482.811	21.38
482.936	28.38
483.061	16.38
483.185	36.38
483.31	21.38
483.435	16.38
483.559	26.38
483.684	31.38
483.808	38.38
483.933	23.38
484.058	28.38
484.182	16.38
484.307	19.38
484.432	15.38
484.556	18.38
484.681	26.38
484.805	30.38
484.93	26.38
485.055	35.38
485.179	50.38
485.304	35.38
485.428	17.38
485.553	8.38
485.678	22.38
485.802	14.38
485.927	30.38
486.051	30.38
486.176	31.38
486.3	19.38
486.425	23.38
486.549	20.38
486.674	19.38
486.799	30.38
486.923	16.38
487.048	21.38
487.172	14.38
487.297	28.38
487.421	36.38
487.546	22.38
487.67	33.38
487.795	8.38
487.919	18.38
488.044	17.38
488.168	40.38
488.293	33.38
488.417	13.38
488.542	20.38
488.666	30.38
488.791	37.38
488.915	14.38
489.04	22.38
489.164	27.38
489.289	34.38
489.413	29.38
489.538	32.38
489.662	57.38
489.786	0.38
489.911	28.38
490.035	34.38
490.16	22.38
490.284	19.38
490.409	6.38
490.533	28.38
490.658	48.38
490.782	34.38
490.906	38.38
491.031	115.38
491.155	138.38
491.28	148.38
491.404	158.38
491.528	251.38
491.653	148.38
491.777	83.38
491.902	42.38
492.026	44.38
492.15	32.38
492.275	53.38
492.399	42.38
492.524	20.38
492.648	52.38
492.772	34.38
492.897	29.38
493.021	26.38
493.145	37.38
493.27	15.38
493.394	12.38
493.518	17.38
493.643	-3.62
493.767	31.38
493.891	25.38
494.016	13.38
494.14	20.38
494.264	14.38
494.389	37.38
494.513	27.38
494.637	6.38
494.762	25.38
494.886	58.38
495.01	18.38
495.134	35.38
495.259	48.38
495.383	18.38
495.507	25.38
495.632	30.38
495.756	56.38
495.88	23.38
496.004	24.38
496.129	27.38
496.253	39.38
496.377	18.38
496.501	47.38
496.626	28.38
496.75	34.38
496.874	25.38
496.998	15.38
497.123	45.38
497.247	39.38
497.371	21.38
497.495	26.38
497.62	23.38
497.744	24.38
497.868	-4.62
497.992	8.38
498.116	26.38
498.241	28.38
498.365	13.38
498.489	15.38
498.613	32.38
498.737	18.38
498.862	10.38
498.986	6.38
499.11	18.38
499.234	32.38
499.358	27.38
499.482	26.38
499.607	27.38
499.731	27.38
499.855	32.38
499.979	26.38
500.103	40.38
500.227	46.38
500.351	6.38
500.476	-0.62
500.6	26.38
500.724	37.38
500.848	27.38
500.972	38.38
501.096	22.38
501.22	41.38
501.344	1.38
501.469	14.38
501.593	3.38
501.717	24.38
501.841	38.38
501.965	29.38
502.089	16.38
502.213	34.38
502.337	25.38
502.461	7.38
502.585	15.38
502.709	30.38
502.834	26.38
502.958	32.38
503.082	37.38
503.206	44.38
503.33	28.38
503.454	51.38
503.578	44.38
503.702	44.38
503.826	28.38
503.95	40.38
504.074	32.38
504.198	10.38
504.322	9.38
504.446	4.38
504.57	26.38
504.694	24.38
504.818	22.38
504.942	41.38
505.066	14.38
505.19	27.38
505.314	25.38
505.438	28.38
505.562	24.38
505.686	20.38
505.81	26.38
505.934	33.38
506.058	23.38
506.182	32.38
506.306	26.38
506.43	21.38
506.554	25.38
506.678	15.38
506.802	-5.62
506.926	22.38
507.05	45.38
507.174	46.38
507.298	38.38
507.422	27.38
507.546	31.38
507.67	29.38
507.794	16.38
507.918	19.38
508.042	31.38
508.165	27.38
508.289	24.38
508.413	20.38
508.537	18.38
508.661	26.38
508.785	33.38
508.909	39.38
509.033	48.38
509.157	26.38
509.281	32.38
509.405	18.38
509.528	43.38
509.652	36.38
509.776	30.38
509.9	57.38
510.024	35.38
510.148	40.38
510.272	55.38
510.396	47.38
510.519	16.38
510.643	38.38
510.767	33.38
510.891	40.38
511.015	36.38
511.139	58.38
511.263	60.38
511.386	39.38
511.51	56.38
511.634	42.38
511.758	44.38
511.882	29.38
512.006	58.38
512.129	68.38
512.253	86.38
512.377	79.38
512.501	80.38
512.625	75.38
512.748	98.38
512.872	88.38
512.996	59.38
513.12	61.38
513.244	53.38
513.367	63.38
513.491	83.38
513.615	86.38
513.739	60.38
513.862	107.38
513.986	84.38
514.11	104.38
514.234	91.38
514.358	109.38
514.481	122.38
514.605	109.38
514.729	116.38
514.853	119.38
514.976	115.38
515.1	101.38
515.224	108.38
515.348	87.38
515.471	73.38
515.595	110.38
515.719	146.38
515.842	236.38
515.966	287.38
516.09	328.38
516.214	336.38
516.337	354.38
516.461	246.38
516.585	89.38
516.708	58.38
516.832	38.38
516.956	49.38
517.08	24.38
517.203	13.38
517.327	34.38
517.451	41.38
517.574	48.38
517.698	24.38
517.822	21.38
517.945	34.38
518.069	32.38
518.193	27.38
518.316	38.38
518.44	27.38
518.564	16.38
518.687	20.38
518.811	1.38
518.935	33.38
519.058	7.38
519.182	17.38
519.306	15.38
519.429	10.38
519.553	49.38
519.676	22.38
519.8	17.38
519.924	30.38
520.047	31.38
520.171	30.38
520.294	14.38
520.418	23.38
520.542	23.38
520.665	55.38
520.789	26.38
520.913	6.38
521.036	-6.62
521.16	2.38
521.283	7.38
521.407	14.38
521.53	16.38
521.654	16.38
521.778	17.38
521.901	19.38
522.025	24.38
522.148	5.38
522.272	20.38
522.395	13.38
522.519	43.38
522.643	22.38
522.766	15.38
522.89	27.38
523.013	10.38
523.137	14.38
523.26	13.38
523.384	24.38
523.507	10.38
523.631	15.38
523.754	-2.62
523.878	26.38
524.002	24.38
524.125	26.38
524.249	8.38
524.372	32.38
524.496	23.38
524.619	33.38
524.743	31.38
524.866	17.38
524.99	20.38
525.113	14.38
525.237	36.38
525.36	7.38
525.484	37.38
525.607	14.38
525.731	-8.62
525.854	20.38
525.978	39.38
526.101	19.38
526.224	12.38
526.348	8.38
526.471	10.38
526.595	11.38
526.718	0.38
526.842	25.38
526.965	35.38
527.089	18.38
527.212	25.38
527.336	20.38
527.459	29.38
527.582	25.38
527.706	14.38
527.829	21.38
527.953	32.38
528.076	23.38
528.2	14.38
528.323	32.38
528.446	14.38
528.57	18.38
528.693	24.38
528.817	2.38
528.94	22.38
529.064	34.38
529.187	23.38
529.31	20.38
529.434	23.38
529.557	18.38
529.68	18.38
529.804	34.38
529.927	15.38
530.051	16.38
530.174	16.38
530.297	21.38
530.421	26.38
530.544	24.38
530.668	18.38
530.791	26.38
530.914	25.38
531.038	16.38
531.161	13.38
531.284	35.38
531.408	22.38
531.531	15.38
531.654	18.38
531.778	8.38
531.901	3.38
532.024	19.38
532.148	8.38
532.271	37.38
532.394	24.38
532.518	30.38
532.641	24.38
532.764	20.38
532.888	16.38
533.011	-3.62
533.134	7.38
533.258	23.38
533.381	9.38
533.504	9.38
533.628	22.38
533.751	26.38
533.874	42.38
533.997	12.38
534.121	21.38
534.244	14.38
534.367	12.38
534.491	28.38
534.614	16.38
534.737	26.38
534.86	29.38
534.984	33.38
535.107	23.38
535.23	33.38
535.354	11.38
535.477	4.38
535.6	11.38
535.723	36.38
535.847	15.38
535.97	7.38
536.093	28.38
536.216	19.38
536.34	33.38
536.463	23.38
536.586	31.38
536.709	25.38
536.833	24.38
536.956	10.38
537.079	10.38
537.202	19.38
537.325	16.38
537.449	15.38
537.572	48.38
537.695	8.38
537.818	1.38
537.941	30.38
538.065	7.38
538.188	12.38
538.311	39.38
538.434	36.38
538.558	20.38
538.681	18.38
538.804	26.38
538.927	17.38
539.05	18.38
539.173	14.38
539.297	22.38
539.42	12.38
539.543	19.38
539.666	41.38
539.789	22.38
539.913	27.38
540.036	31.38
540.159	19.38
540.282	8.38
540.405	14.38
540.528	13.38
540.651	25.38
540.775	27.38
540.898	20.38
541.021	17.38
541.144	26.38
541.267	49.38
541.39	43.38
541.513	42.38
541.637	23.38
541.76	24.38
541.883	33.38
542.006	28.38
542.129	52.38
542.252	41.38
542.375	70.38
542.498	43.38
542.622	62.38
542.745	45.38
542.868	60.38
542.991	55.38
543.114	54.38
543.237	70.38
543.36	59.38
543.483	64.38
543.606	68.38
543.73	85.38
543.853	89.38
543.976	68.38
544.099	123.38
544.222	128.38
544.345	151.38
544.468	179.38
544.591	240.38
544.714	266.38
544.837	342.38
544.96	464.38
545.083	668.38
545.206	1076.38
545.329	2441.38
545.453	10937.38
545.576	15248.38
545.699	15685.38
545.822	15685.38
545.945	15685.38
546.068	15685.38
546.191	15685.38
546.314	15685.38
546.437	15685.38
546.56	15685.38
546.683	15685.38
546.806	15685.38
546.929	15685.38
547.052	15685.38
547.175	15685.38
547.298	15685.38
547.421	15685.38
547.544	15685.38
547.667	3538.38
547.79	2306.38
547.913	1012.38
548.036	869.38
548.159	612.38
548.282	622.38
548.405	497.38
548.528	485.38
548.651	415.38
548.774	421.38
548.897	343.38
549.02	366.38
549.143	311.38
549.266	302.38
549.389	263.38
549.512	254.38
549.635	252.38
549.758	268.38
549.881	211.38
550.004	221.38
550.127	197.38
550.25	205.38
550.373	172.38
550.496	184.38
550.619	159.38
550.742	170.38
550.865	147.38
550.988	150.38
551.111	161.38
551.234	171.38
551.356	117.38
551.479	128.38
551.602	128.38
551.725	142.38
551.848	151.38
551.971	158.38
552.094	126.38
552.217	126.38
552.34	107.38
552.463	109.38
552.586	114.38
552.709	105.38
552.832	127.38
552.955	106.38
553.077	109.38
553.2	113.38
553.323	95.38
553.446	105.38
553.569	90.38
553.692	100.38
553.815	115.38
553.938	121.38
554.061	111.38
554.184	82.38
554.306	73.38
554.429	86.38
554.552	97.38
554.675	74.38
554.798	76.38
554.921	83.38
555.044	68.38
555.167	70.38
555.29	63.38
555.412	83.38
555.535	83.38
555.658	60.38
555.781	62.38
555.904	68.38
556.027	95.38
556.15	94.38
556.272	75.38
556.395	87.38
556.518	75.38
556.641	65.38
556.764	70.38
556.887	85.38
557.01	74.38
557.132	68.38
557.255	50.38
557.378	77.38
557.501	55.38
557.624	61.38
557.747	75.38
557.869	87.38
557.992	100.38
558.115	89.38
558.238	93.38
558.361	110.38
558.483	104.38
558.606	79.38
558.729	40.38
558.852	72.38
558.975	67.38
559.098	58.38
559.22	46.38
559.343	50.38
559.466	57.38
559.589	65.38
559.712	40.38
559.834	52.38
559.957	42.38
560.08	57.38
560.203	64.38
560.325	78.38
560.448	57.38
560.571	49.38
560.694	55.38
560.817	82.38
560.939	69.38
561.062	60.38
561.185	55.38
561.308	56.38
561.43	74.38
561.553	44.38
561.676	71.38
561.799	79.38
561.921	65.38
562.044	55.38
562.167	44.38
562.29	83.38
562.413	66.38
562.535	63.38
562.658	59.38
562.781	63.38
562.903	74.38
563.026	87.38
563.149	150.38
563.272	133.38
563.394	116.38
563.517	93.38
563.64	71.38
563.763	56.38
563.885	39.38
564.008	56.38
564.131	42.38
564.254	32.38
564.376	12.38
564.499	15.38
564.622	38.38
564.744	53.38
564.867	35.38
564.99	47.38
565.113	31.38
565.235	28.38
565.358	42.38
565.481	24.38
565.603	35.38
565.726	34.38
565.849	60.38
565.971	51.38
566.094	42.38
566.217	32.38
566.34	37.38
566.462	45.38
566.585	66.38
566.708	65.38
566.83	43.38
566.953	60.38
567.076	26.38
567.198	52.38
567.321	23.38
567.444	40.38
567.566	46.38
567.689	37.38
567.812	30.38
567.934	40.38
568.057	36.38
568.18	45.38
568.302	40.38
568.425	32.38
568.548	35.38
568.67	46.38
568.793	46.38
568.916	63.38
569.038	40.38
569.161	29.38
569.283	35.38
569.406	29.38
569.529	40.38
569.651	15.38
569.774	29.38
569.897	31.38
570.019	31.38
570.142	41.38
570.265	35.38
570.387	55.38
570.51	41.38
570.632	43.38
570.755	44.38
570.878	50.38
571	50.38
571.123	32.38
571.246	36.38
571.368	31.38
571.491	32.38
571.613	22.38
571.736	28.38
571.859	17.38
571.981	23.38
572.104	20.38
572.226	32.38
572.349	22.38
572.472	22.38
572.594	31.38
572.717	37.38
572.839	27.38
572.962	39.38
573.085	32.38
573.207	25.38
573.33	22.38
573.452	33.38
573.575	30.38
573.697	51.38
573.82	38.38
573.943	17.38
574.065	40.38
574.188	42.38
574.31	47.38
574.433	43.38
574.555	43.38
574.678	50.38
574.801	59.38
574.923	16.38
575.046	23.38
575.168	30.38
575.291	47.38
575.413	46.38
575.536	38.38
575.659	63.38
575.781	55.38
575.904	64.38
576.026	75.38
576.149	76.38
576.271	129.38
576.394	204.38
576.516	526.38
576.639	3674.38
576.761	10079.38
576.884	8792.38
577.007	8806.38
577.129	7994.38
577.252	3706.38
577.374	1307.38
577.497	529.38
577.619	270.38
577.742	182.38
577.864	166.38
577.987	132.38
578.109	142.38
578.232	109.38
578.354	158.38
578.477	193.38
578.599	375.38
578.722	2013.38
578.844	9148.38
578.967	9867.38
579.089	8695.38
579.212	9083.38
579.334	5220.38
579.457	1894.38
579.579	700.38
579.702	330.38
579.824	207.38
579.947	119.38
580.069	92.38
580.192	79.38
580.314	87.38
580.437	72.38
580.559	104.38
580.682	78.38
580.804	63.38
580.927	60.38
581.049	65.38
581.172	45.38
581.294	61.38
581.417	60.38
581.539	40.38
581.662	31.38
581.784	66.38
581.907	45.38
582.029	49.38
582.152	40.38
582.274	50.38
582.396	42.38
582.519	61.38
582.641	40.38
582.764	33.38
582.886	42.38
583.009	42.38
583.131	31.38
583.254	26.38
583.376	51.38
583.499	54.38
583.621	31.38
583.743	35.38
583.866	27.38
583.988	37.38
584.111	56.38
584.233	48.38
584.356	48.38
584.478	43.38
584.601	17.38
584.723	32.38
584.845	62.38
584.968	17.38
585.09	27.38
585.213	41.38
585.335	12.38
585.458	32.38
585.58	30.38
585.702	30.38
585.825	57.38
585.947	54.38
586.07	18.38
586.192	17.38
586.315	46.38
586.437	27.38
586.559	21.38
586.682	24.38
586.804	36.38
586.927	43.38
587.049	24.38
587.171	55.38
587.294	38.38
587.416	46.38
587.539	36.38
587.661	25.38
587.783	25.38
587.906	22.38
588.028	33.38
588.151	56.38
588.273	46.38
588.395	21.38
588.518	14.38
588.64	35.38
588.763	42.38
588.885	36.38
589.007	31.38
589.13	25.38
589.252	19.38
589.375	36.38
589.497	17.38
589.619	35.38
589.742	24.38
589.864	44.38
589.986	49.38
590.109	40.38
590.231	32.38
590.354	42.38
590.476	31.38
590.598	24.38
590.721	8.38
590.843	29.38
590.965	31.38
591.088	49.38
591.21	30.38
591.332	32.38
591.455	10.38
591.577	33.38
591.7	27.38
591.822	35.38
591.944	11.38
592.067	43.38
592.189	37.38
592.311	47.38
592.434	10.38
592.556	33.38
592.678	16.38
592.801	26.38
592.923	29.38
593.045	33.38
593.168	36.38
593.29	23.38
593.412	33.38
593.535	28.38
593.657	21.38
593.779	35.38
593.902	30.38
594.024	38.38
594.146	38.38
594.269	27.38
594.391	6.38
594.513	34.38
594.636	19.38
594.758	21.38
594.88	35.38
595.003	27.38
595.125	48.38
595.247	26.38
595.37	31.38
595.492	30.38
595.614	47.38
595.737	38.38
595.859	32.38
595.981	27.38
596.104	17.38
596.226	14.38
596.348	32.38
596.471	20.38
596.593	35.38
596.715	33.38
596.838	31.38
596.96	23.38
597.082	44.38
597.204	26.38
597.327	33.38
597.449	22.38
597.571	29.38
597.694	18.38
597.816	18.38
597.938	31.38
598.061	22.38
598.183	25.38
598.305	55.38
598.427	34.38
598.55	19.38
598.672	39.38
598.794	45.38
598.917	34.38
599.039	30.38
599.161	54.38
599.283	17.38
599.406	38.38
599.528	20.38
599.65	45.38
599.773	27.38
599.895	32.38
600.017	37.38
600.139	44.38
600.262	24.38
600.384	34.38
600.506	23.38
600.628	48.38
600.751	31.38
600.873	15.38
600.995	33.38
601.118	31.38
601.24	25.38
601.362	39.38
601.484	26.38
601.607	22.38
601.729	26.38
601.851	30.38
601.973	22.38
602.096	28.38
602.218	22.38
602.34	38.38
602.462	25.38
602.585	15.38
602.707	-3.62
602.829	32.38
602.951	22.38
603.074	20.38
603.196	30.38
603.318	1.38
603.44	10.38
603.563	12.38
603.685	8.38
603.807	39.38
603.929	34.38
604.052	29.38
604.174	33.38
604.296	27.38
604.418	24.38
604.541	26.38
604.663	30.38
604.785	28.38
604.907	26.38
605.03	11.38
605.152	38.38
605.274	29.38
605.396	32.38
605.519	27.38
605.641	19.38
605.763	20.38
605.885	18.38
606.008	27.38
606.13	35.38
606.252	29.38
606.374	36.38
606.496	18.38
606.619	22.38
606.741	9.38
606.863	31.38
606.985	35.38
607.108	19.38
607.23	20.38
607.352	17.38
607.474	26.38
607.596	32.38
607.719	24.38
607.841	42.38
607.963	12.38
608.085	15.38
608.207	32.38
608.33	22.38
608.452	38.38
608.574	16.38
608.696	30.38
608.819	39.38
608.941	33.38
609.063	19.38
609.185	33.38
609.307	28.38
609.43	28.38
609.552	34.38
609.674	20.38
609.796	26.38
609.918	38.38
610.041	15.38
610.163	26.38
610.285	28.38
610.407	27.38
610.529	25.38
610.652	29.38
610.774	29.38
610.896	35.38
611.018	26.38
611.14	26.38
611.263	39.38
611.385	22.38
611.507	35.38
611.629	15.38
611.751	33.38
611.873	52.38
611.996	36.38
612.118	37.38
612.24	35.38
612.362	27.38
612.484	39.38
612.607	43.38
612.729	42.38
612.851	35.38
612.973	17.38
613.095	18.38
613.218	20.38
613.34	16.38
613.462	18.38
613.584	27.38
613.706	20.38
613.828	52.38
613.951	26.38
614.073	10.38
614.195	3.38
614.317	20.38
614.439	28.38
614.561	47.38
614.684	33.38
614.806	23.38
614.928	24.38
615.05	26.38
615.172	19.38
615.294	35.38
615.417	24.38
615.539	13.38
615.661	8.38
615.783	50.38
615.905	12.38
616.027	15.38
616.15	35.38
616.272	20.38
616.394	18.38
616.516	9.38
616.638	7.38
616.76	28.38
616.883	25.38
617.005	16.38
617.127	17.38
617.249	28.38
617.371	22.38
617.493	20.38
617.615	37.38
617.738	20.38
617.86	32.38
617.982	22.38
618.104	12.38
618.226	17.38
618.348	7.38
618.471	33.38
618.593	32.38
618.715	27.38
618.837	18.38
618.959	24.38
619.081	27.38
619.203	20.38
619.326	36.38
619.448	23.38
619.57	31.38
619.692	29.38
619.814	30.38
619.936	13.38
620.058	36.38
620.181	28.38
620.303	27.38
620.425	31.38
620.547	20.38
620.669	22.38
620.791	26.38
620.913	20.38
621.036	38.38
621.158	31.38
621.28	28.38
621.402	9.38
621.524	10.38
621.646	14.38
621.768	17.38
621.891	6.38
622.013	24.38
622.135	11.38
622.257	17.38
622.379	15.38
622.501	10.38
622.623	26.38
622.745	17.38
622.868	24.38
622.99	16.38
623.112	8.38
623.234	3.38
623.356	18.38
623.478	17.38
623.6	20.38
623.722	10.38
623.845	28.38
623.967	28.38
624.089	28.38
624.211	36.38
624.333	35.38
624.455	22.38
624.577	25.38
624.699	19.38
624.822	22.38
624.944	20.38
625.066	28.38
625.188	25.38
625.31	33.38
625.432	41.38
625.554	23.38
625.676	58.38
625.799	29.38
625.921	28.38
626.043	34.38
626.165	26.38
626.287	5.38
626.409	30.38
626.531	16.38
626.653	27.38
626.775	26.38
626.898	34.38
627.02	39.38
627.142	42.38
627.264	35.38
627.386	10.38
627.508	24.38
627.63	16.38
627.752	19.38
627.874	13.38
627.997	31.38
628.119	32.38
628.241	28.38
628.363	47.38
628.485	31.38
628.607	21.38
628.729	1.38
628.851	7.38
628.973	20.38
629.096	8.38
629.218	12.38
629.34	19.38
629.462	11.38
629.584	-0.62
629.706	12.38
629.828	34.38
629.95	12.38
630.072	17.38
630.195	8.38
630.317	33.38
630.439	15.38
630.561	21.38
630.683	7.38
630.805	28.38
630.927	21.38
631.049	18.38
631.171	14.38
631.293	26.38
631.416	27.38
631.538	25.38
631.66	26.38
631.782	17.38
631.904	33.38
632.026	10.38
632.148	31.38
632.27	4.38
632.392	8.38
632.514	17.38
632.637	27.38
632.759	22.38
632.881	14.38
633.003	1.38
633.125	14.38
633.247	13.38
633.369	18.38
633.491	14.38
633.613	31.38
633.735	14.38
633.858	19.38
633.98	10.38
634.102	-4.62
634.224	16.38
634.346	28.38
634.468	30.38
634.59	25.38
634.712	25.38
634.834	12.38
634.956	14.38
635.078	9.38
635.201	20.38
635.323	33.38
635.445	4.38
635.567	5.38
635.689	22.38
635.811	20.38
635.933	12.38
636.055	16.38
636.177	12.38
636.299	25.38
636.421	11.38
636.544	4.38
636.666	15.38
636.788	31.38
636.91	38.38
637.032	9.38
637.154	32.38
637.276	42.38
637.398	58.38
637.52	39.38
637.642	26.38
637.764	19.38
637.887	20.38
638.009	11.38
638.131	25.38
638.253	2.38
638.375	35.38
638.497	39.38
638.619	3.38
638.741	14.38
638.863	-11.62
638.985	3.38
639.107	3.38
639.23	23.38
639.352	16.38
639.474	14.38
639.596	17.38
639.718	35.38
639.84	24.38
639.962	19.38
640.084	43.38
640.206	19.38
640.328	12.38
640.45	20.38
640.573	15.38
640.695	18.38
640.817	35.38
640.939	19.38
641.061	9.38
641.183	26.38
641.305	29.38
641.427	13.38
641.549	10.38
641.671	29.38
641.793	-1.62
641.915	23.38
642.038	14.38
642.16	30.38
642.282	14.38
642.404	9.38
642.526	22.38
642.648	18.38
642.77	20.38
642.892	10.38
643.014	26.38
643.136	15.38
643.258	14.38
643.381	47.38
643.503	36.38
643.625	22.38
643.747	16.38
643.869	8.38
643.991	25.38
644.113	30.38
644.235	9.38
644.357	18.38
644.479	25.38
644.601	-1.62
644.723	17.38
644.846	28.38
644.968	19.38
645.09	11.38
645.212	-0.62
645.334	19.38
645.456	16.38
645.578	27.38
645.7	23.38
645.822	16.38
645.944	31.38
646.066	12.38
646.188	6.38
646.311	20.38
646.433	2.38
646.555	30.38
646.677	24.38
646.799	19.38
646.921	26.38
647.043	17.38
647.165	6.38
647.287	15.38
647.409	15.38
647.531	24.38
647.654	-2.62
647.776	27.38
647.898	24.38
648.02	14.38
648.142	6.38
648.264	8.38
648.386	7.38
648.508	8.38
648.63	-2.62
648.752	10.38
648.874	10.38
648.997	18.38
649.119	10.38
649.241	28.38
649.363	39.38
649.485	2.38
649.607	7.38
649.729	6.38
649.851	12.38
649.973	11.38
650.095	15.38
650.217	7.38
650.34	2.38
650.462	26.38
650.584	16.38
650.706	10.38
650.828	17.38
650.95	4.38
651.072	25.38
651.194	11.38
651.316	18.38
651.438	26.38
651.56	11.38
651.683	2.38
651.805	19.38
651.927	6.38
652.049	2.38
652.171	18.38
652.293	2.38
652.415	7.38
652.537	6.38
652.659	5.38
652.781	3.38
652.903	11.38
653.026	15.38
653.148	22.38
653.27	24.38
653.392	11.38
653.514	4.38
653.636	-0.62
653.758	6.38
653.88	26.38
654.002	18.38
654.124	17.38
654.247	11.38
654.369	21.38
654.491	12.38
654.613	15.38
654.735	-0.62
654.857	24.38
654.979	15.38
655.101	30.38
655.223	39.38
655.345	12.38
655.468	12.38
655.59	14.38
655.712	26.38
655.834	14.38
655.956	32.38
656.078	12.38
656.2	22.38
656.322	-4.62
656.444	11.38
656.566	32.38
656.689	4.38
656.811	5.38
656.933	34.38
657.055	6.38
657.177	11.38
657.299	8.38
657.421	6.38
657.543	11.38
657.665	-7.62
657.787	19.38
657.91	8.38
658.032	-0.62
658.154	7.38
658.276	20.38
658.398	6.38
658.52	38.38
658.642	25.38
658.764	16.38
658.886	-2.62
659.009	10.38
659.131	26.38
659.253	29.38
659.375	17.38
659.497	12.38
659.619	22.38
659.741	3.38
659.863	18.38
659.985	-0.62
660.108	32.38
660.23	17.38
660.352	18.38
660.474	33.38
660.596	19.38
660.718	9.38
660.84	19.38
660.962	18.38
661.084	14.38
661.207	7.38
661.329	23.38
661.451	9.38
661.573	-4.62
661.695	6.38
661.817	6.38
661.939	39.38
662.061	24.38
662.184	7.38
662.306	10.38
662.428	22.38
662.55	38.38
662.672	26.38
662.794	7.38
662.916	16.38
663.038	15.38
663.161	14.38
663.283	28.38
663.405	35.38
663.527	17.38
663.649	17.38
663.771	3.38
663.893	19.38
664.015	18.38
664.138	2.38
664.26	30.38
664.382	25.38
664.504	23.38
664.626	1.38
664.748	20.38
664.87	8.38
664.992	30.38
665.115	22.38
665.237	7.38
665.359	-8.62
665.481	22.38
665.603	12.38
665.725	17.38
665.847	-15.62
665.97	11.38
666.092	18.38
666.214	18.38
666.336	9.38
666.458	20.38
666.58	15.38
666.702	12.38
666.825	16.38
666.947	17.38
667.069	17.38
667.191	10.38
667.313	20.38
667.435	3.38
667.557	9.38
667.68	-5.62
667.802	11.38
667.924	7.38
668.046	29.38
668.168	22.38
668.29	22.38
668.412	2.38
668.535	11.38
668.657	12.38
668.779	-0.62
668.901	4.38
669.023	14.38
669.145	16.38
669.267	23.38
669.39	2.38
669.512	9.38
669.634	23.38
669.756	19.38
669.878	21.38
670	19.38
670.123	12.38
670.245	38.38
670.367	34.38
670.489	10.38
670.611	9.38
670.733	-0.62
670.856	2.38
670.978	16.38
671.1	28.38
671.222	3.38
671.344	14.38
671.466	11.38
671.589	-1.62
671.711	10.38
671.833	35.38
671.955	16.38
672.077	13.38
672.199	28.38
672.322	22.38
672.444	15.38
672.566	22.38
672.688	14.38
672.81	19.38
672.932	31.38
673.055	30.38
673.177	4.38
673.299	6.38
673.421	-1.62
673.543	16.38
673.665	20.38
673.788	20.38
673.91	13.38
674.032	16.38
674.154	18.38
674.276	2.38
674.399	19.38
674.521	7.38
674.643	7.38
674.765	16.38
674.887	17.38
675.009	10.38
675.132	10.38
675.254	12.38
675.376	7.38
675.498	9.38
675.62	22.38
675.743	15.38
675.865	10.38
675.987	-2.62
676.109	-3.62
676.231	1.38
676.354	23.38
676.476	13.38
676.598	9.38
676.72	11.38
676.842	5.38
676.965	11.38
677.087	18.38
677.209	29.38
677.331	26.38
677.453	17.38
677.576	23.38
677.698	23.38
677.82	6.38
677.942	6.38
678.064	15.38
678.187	26.38
678.309	8.38
678.431	10.38
678.553	12.38
678.675	16.38
678.798	9.38
678.92	16.38
679.042	0.38
679.164	6.38
679.286	24.38
679.409	3.38
679.531	4.38
679.653	10.38
679.775	-0.62
679.898	9.38
680.02	18.38
680.142	2.38
680.264	13.38
680.386	-3.62
680.509	6.38
680.631	22.38
680.753	16.38
680.875	0.38
680.998	7.38
681.12	9.38
681.242	18.38
681.364	-6.62
681.486	3.38
681.609	13.38
681.731	3.38
681.853	-2.62
681.975	7.38
682.098	19.38
682.22	19.38
682.342	28.38
682.464	15.38
682.587	21.38
682.709	27.38
682.831	-4.62
682.953	5.38
683.076	8.38
683.198	22.38
683.32	25.38
683.442	6.38
683.565	19.38
683.687	14.38
683.809	12.38
683.931	-2.62
684.054	24.38
684.176	15.38
684.298	20.38
684.42	3.38
684.543	15.38
684.665	24.38
684.787	-13.62
684.909	4.38
685.032	20.38
685.154	-10.62
685.276	30.38
685.398	16.38
685.521	-1.62
685.643	19.38
685.765	23.38
685.887	14.38
686.01	32.38
686.132	18.38
686.254	23.38
686.377	20.38
686.499	8.38
686.621	25.38
686.743	10.38
686.866	4.38
686.988	36.38
687.11	31.38
687.232	3.38
687.355	6.38
687.477	23.38
687.599	18.38
687.722	19.38
687.844	14.38
687.966	12.38
688.088	6.38
688.211	27.38
688.333	25.38
688.455	14.38
688.578	38.38
688.7	24.38
688.822	16.38
688.944	-2.62
689.067	27.38
689.189	13.38
689.311	-6.62
689.434	9.38
689.556	11.38
689.678	16.38
689.801	14.38
689.923	33.38
690.045	33.38
690.167	40.38
690.29	22.38
690.412	11.38
690.534	12.38
690.657	12.38
690.779	3.38
690.901	27.38
691.024	11.38
691.146	8.38
691.268	10.38
691.391	27.38
691.513	13.38
691.635	14.38
691.758	42.38
691.88	22.38
692.002	23.38
692.125	2.38
692.247	-8.62
692.369	26.38
692.492	14.38
692.614	15.38
692.736	8.38
692.859	-5.62
692.981	2.38
693.103	-7.62
693.226	26.38
693.348	36.38
693.47	25.38
693.593	41.38
693.715	34.38
693.837	31.38
693.96	20.38
694.082	18.38
694.204	10.38
694.327	11.38
694.449	7.38
694.571	26.38
694.694	20.38
694.816	30.38
694.938	14.38
695.061	7.38
695.183	13.38
695.305	10.38
695.428	7.38
695.55	24.38
695.672	-3.62
695.795	19.38
695.917	30.38
696.04	6.38
696.162	0.38
696.284	20.38
696.407	11.38
696.529	4.38
696.651	27.38
696.774	6.38
696.896	16.38
697.019	15.38
697.141	15.38
697.263	6.38
697.386	18.38
697.508	8.38
697.63	21.38
697.753	15.38
697.875	23.38
697.998	10.38
698.12	11.38
698.242	16.38
698.365	23.38
698.487	36.38
698.61	21.38
698.732	10.38
698.854	19.38
698.977	20.38
699.099	18.38
699.221	6.38
699.344	10.38
699.466	25.38
699.589	2.38
699.711	6.38
699.834	11.38
699.956	13.38
700.078	19.38
700.201	-8.62
700.323	22.38
700.446	7.38
700.568	7.38
700.69	31.38
700.813	19.38
700.935	10.38
701.058	11.38
701.18	12.38
701.302	18.38
701.425	28.38
701.547	22.38
701.67	24.38
701.792	6.38
701.915	3.38
702.037	6.38
702.159	8.38
702.282	11.38
702.404	7.38
702.527	28.38
702.649	20.38
702.772	24.38
702.894	25.38
703.017	26.38
703.139	10.38
703.261	22.38
703.384	13.38
703.506	-4.62
703.629	8.38
703.751	18.38
703.874	-6.62
703.996	3.38
704.119	17.38
704.241	16.38
704.364	0.38
704.486	15.38
704.608	22.38
704.731	19.38
704.853	24.38
704.976	15.38
705.098	31.38
705.221	19.38
705.343	10.38
705.466	23.38
705.588	21.38
705.711	8.38
705.833	12.38
705.956	10.38
706.078	19.38
706.201	4.38
706.323	10.38
706.446	10.38
