Data from LowRes_mercury_15_20_11_07_2024_HR4C61881__57__15-23-37-970.txt Node

Date: Thu Nov 07 15:23:37 EST 2024
User: crc00042
Spectrometer: HR4C6188
Trigger mode: 4
Integration Time (sec): 1.000000E-1
Scans to average: 1
Electric dark correction enabled: true
Nonlinearity correction enabled: false
Boxcar width: 0
XAxis mode: Wavelengths
Number of Pixels in Spectrum: 3648
>>>>>Begin Spectral Data<<<<<
245.66	-75.08
245.797	-75.08
245.934	-75.08
246.071	-70.08
246.208	20.92
246.344	-4.08
246.481	-25.08
246.618	-7.08
246.755	21.92
246.892	6.92
247.029	-6.08
247.165	-9.08
247.302	27.92
247.439	3.92
247.576	14.92
247.713	-16.08
247.849	8.92
247.986	-17.08
248.123	5.92
248.26	-7.08
248.396	22.92
248.533	12.92
248.67	-9.08
248.806	10.92
248.943	-11.08
249.08	22.92
249.216	8.92
249.353	-8.08
249.49	-2.08
249.626	-8.08
249.763	-3.08
249.9	7.92
250.036	-9.08
250.173	11.92
250.309	6.92
250.446	4.92
250.582	-2.08
250.719	-7.08
250.856	-5.08
250.992	5.92
251.129	4.92
251.265	-1.08
251.402	-1.08
251.538	-2.08
251.675	2.92
251.811	22.92
251.948	20.92
252.084	1.92
252.221	8.92
252.357	-7.08
252.493	23.92
252.63	18.92
252.766	16.92
252.903	12.92
253.039	-19.08
253.175	-0.08
253.312	7.92
253.448	-0.08
253.585	-10.08
253.721	3.92
253.857	-5.08
253.994	5.92
254.13	14.92
254.266	-5.08
254.403	2.92
254.539	10.92
254.675	37.92
254.811	17.92
254.948	11.92
255.084	0.92
255.22	-0.08
255.356	-1.08
255.493	24.92
255.629	13.92
255.765	9.92
255.901	33.92
256.037	14.92
256.174	-2.08
256.31	-3.08
256.446	-1.08
256.582	-0.08
256.718	18.92
256.854	22.92
256.991	18.92
257.127	7.92
257.263	7.92
257.399	5.92
257.535	-4.08
257.671	-10.08
257.807	-15.08
257.943	-15.08
258.079	-3.08
258.215	-13.08
258.351	6.92
258.487	8.92
258.623	29.92
258.759	-2.08
258.895	0.92
259.031	-8.08
259.167	-4.08
259.303	8.92
259.439	-2.08
259.575	-3.08
259.711	6.92
259.847	3.92
259.983	9.92
260.119	-4.08
260.255	10.92
260.391	4.92
260.527	9.92
260.663	20.92
260.799	20.92
260.934	-7.08
261.07	-1.08
261.206	-17.08
261.342	-8.08
261.478	31.92
261.614	12.92
261.749	-2.08
261.885	-6.08
262.021	11.92
262.157	30.92
262.293	23.92
262.428	10.92
262.564	8.92
262.7	-12.08
262.836	-10.08
262.971	15.92
263.107	5.92
263.243	22.92
263.378	9.92
263.514	15.92
263.65	24.92
263.785	0.92
263.921	-8.08
264.057	3.92
264.192	6.92
264.328	38.92
264.464	17.92
264.599	10.92
264.735	14.92
264.871	-4.08
265.006	10.92
265.142	-2.08
265.277	0.92
265.413	10.92
265.548	34.92
265.684	43.92
265.819	19.92
265.955	2.92
266.091	-7.08
266.226	-13.08
266.362	6.92
266.497	18.92
266.633	-4.08
266.768	11.92
266.903	16.92
267.039	10.92
267.174	29.92
267.31	26.92
267.445	1.92
267.581	-13.08
267.716	7.92
267.851	10.92
267.987	14.92
268.122	27.92
268.258	-0.08
268.393	-5.08
268.528	-5.08
268.664	-6.08
268.799	-10.08
268.934	12.92
269.07	-2.08
269.205	-0.08
269.34	25.92
269.476	-6.08
269.611	-6.08
269.746	36.92
269.881	18.92
270.017	18.92
270.152	3.92
270.287	11.92
270.422	18.92
270.558	-11.08
270.693	10.92
270.828	4.92
270.963	-4.08
271.098	-3.08
271.234	3.92
271.369	30.92
271.504	-5.08
271.639	-15.08
271.774	8.92
271.909	14.92
272.045	-11.08
272.18	4.92
272.315	4.92
272.45	22.92
272.585	5.92
272.72	-0.08
272.855	12.92
272.99	10.92
273.125	-2.08
273.26	-18.08
273.395	-12.08
273.53	3.92
273.665	10.92
273.8	1.92
273.935	-20.08
274.07	-0.08
274.205	15.92
274.34	8.92
274.475	-8.08
274.61	22.92
274.745	12.92
274.88	22.92
275.015	4.92
275.15	12.92
275.285	18.92
275.42	9.92
275.555	12.92
275.69	-10.08
275.825	-7.08
275.959	31.92
276.094	-19.08
276.229	-10.08
276.364	3.92
276.499	9.92
276.634	-3.08
276.768	6.92
276.903	11.92
277.038	23.92
277.173	10.92
277.308	-1.08
277.442	-2.08
277.577	1.92
277.712	8.92
277.847	-0.08
277.981	3.92
278.116	-25.08
278.251	15.92
278.386	12.92
278.52	2.92
278.655	10.92
278.79	27.92
278.924	18.92
279.059	22.92
279.194	-14.08
279.328	34.92
279.463	-5.08
279.598	18.92
279.732	10.92
279.867	-2.08
280.001	6.92
280.136	5.92
280.271	-4.08
280.405	14.92
280.54	22.92
280.674	1.92
280.809	16.92
280.943	10.92
281.078	2.92
281.213	14.92
281.347	23.92
281.482	8.92
281.616	13.92
281.751	19.92
281.885	-11.08
282.02	4.92
282.154	27.92
282.288	2.92
282.423	3.92
282.557	-10.08
282.692	22.92
282.826	4.92
282.961	-1.08
283.095	-2.08
283.229	-1.08
283.364	-3.08
283.498	14.92
283.633	16.92
283.767	23.92
283.901	3.92
284.036	-1.08
284.17	-15.08
284.304	-15.08
284.439	11.92
284.573	2.92
284.707	10.92
284.842	2.92
284.976	-1.08
285.11	-13.08
285.244	11.92
285.379	39.92
285.513	2.92
285.647	16.92
285.781	-2.08
285.916	13.92
286.05	2.92
286.184	31.92
286.318	24.92
286.453	10.92
286.587	-11.08
286.721	7.92
286.855	6.92
286.989	5.92
287.123	-0.08
287.258	3.92
287.392	11.92
287.526	9.92
287.66	-4.08
287.794	1.92
287.928	1.92
288.062	10.92
288.196	-7.08
288.33	18.92
288.464	16.92
288.598	28.92
288.733	4.92
288.867	1.92
289.001	-0.08
289.135	10.92
289.269	10.92
289.403	1.92
289.537	-6.08
289.671	4.92
289.805	-10.08
289.939	10.92
290.073	-8.08
290.207	24.92
290.34	3.92
290.474	24.92
290.608	-2.08
290.742	8.92
290.876	2.92
291.01	4.92
291.144	28.92
291.278	27.92
291.412	-6.08
291.546	-8.08
291.679	-7.08
291.813	2.92
291.947	8.92
292.081	-3.08
292.215	3.92
292.349	17.92
292.482	15.92
292.616	7.92
292.75	15.92
292.884	19.92
293.018	-2.08
293.151	-5.08
293.285	8.92
293.419	5.92
293.553	1.92
293.686	-11.08
293.82	16.92
293.954	22.92
294.088	24.92
294.221	-3.08
294.355	9.92
294.489	11.92
294.622	8.92
294.756	4.92
294.89	8.92
295.023	6.92
295.157	14.92
295.291	8.92
295.424	25.92
295.558	5.92
295.691	-0.08
295.825	7.92
295.959	1.92
296.092	1.92
296.226	4.92
296.359	11.92
296.493	11.92
296.627	19.92
296.76	8.92
296.894	-1.08
297.027	1.92
297.161	3.92
297.294	-19.08
297.428	6.92
297.561	35.92
297.695	-21.08
297.828	12.92
297.962	-2.08
298.095	-4.08
298.229	13.92
298.362	-12.08
298.495	0.92
298.629	3.92
298.762	13.92
298.896	10.92
299.029	-10.08
299.162	6.92
299.296	11.92
299.429	11.92
299.563	-2.08
299.696	-2.08
299.829	-7.08
299.963	15.92
300.096	1.92
300.229	-9.08
300.363	18.92
300.496	12.92
300.629	-6.08
300.763	0.92
300.896	-3.08
301.029	-12.08
301.162	-12.08
301.296	-7.08
301.429	18.92
301.562	-9.08
301.695	11.92
301.829	11.92
301.962	31.92
302.095	13.92
302.228	1.92
302.362	7.92
302.495	9.92
302.628	10.92
302.761	11.92
302.894	22.92
303.027	23.92
303.161	-6.08
303.294	-18.08
303.427	11.92
303.56	20.92
303.693	4.92
303.826	12.92
303.959	18.92
304.092	1.92
304.225	-8.08
304.359	17.92
304.492	23.92
304.625	3.92
304.758	15.92
304.891	-20.08
305.024	10.92
305.157	-1.08
305.29	2.92
305.423	-9.08
305.556	12.92
305.689	14.92
305.822	-6.08
305.955	20.92
306.088	-5.08
306.221	-7.08
306.354	1.92
306.487	-20.08
306.62	1.92
306.752	3.92
306.885	4.92
307.018	8.92
307.151	22.92
307.284	18.92
307.417	2.92
307.55	20.92
307.683	3.92
307.816	19.92
307.948	19.92
308.081	27.92
308.214	9.92
308.347	20.92
308.48	10.92
308.613	-6.08
308.745	23.92
308.878	2.92
309.011	7.92
309.144	18.92
309.277	13.92
309.409	25.92
309.542	4.92
309.675	5.92
309.808	21.92
309.94	20.92
310.073	0.92
310.206	-7.08
310.339	13.92
310.471	0.92
310.604	10.92
310.737	-0.08
310.869	-7.08
311.002	-7.08
311.135	0.92
311.267	-8.08
311.4	-8.08
311.533	26.92
311.665	-1.08
311.798	-9.08
311.93	24.92
312.063	26.92
312.196	40.92
312.328	88.92
312.461	71.92
312.593	17.92
312.726	55.92
312.859	109.92
312.991	159.92
313.124	40.92
313.256	1.92
313.389	-4.08
313.521	-1.08
313.654	18.92
313.786	-16.08
313.919	-14.08
314.051	8.92
314.184	-0.08
314.316	9.92
314.449	-1.08
314.581	13.92
314.714	18.92
314.846	16.92
314.978	-16.08
315.111	-13.08
315.243	0.92
315.376	-0.08
315.508	12.92
315.641	11.92
315.773	28.92
315.905	10.92
316.038	-3.08
316.17	6.92
316.302	30.92
316.435	-0.08
316.567	1.92
316.699	23.92
316.832	-10.08
316.964	3.92
317.096	9.92
317.229	-2.08
317.361	-4.08
317.493	-8.08
317.625	-12.08
317.758	3.92
317.89	12.92
318.022	7.92
318.155	-14.08
318.287	16.92
318.419	-7.08
318.551	-2.08
318.683	-4.08
318.816	-5.08
318.948	-6.08
319.08	3.92
319.212	0.92
319.344	-4.08
319.477	13.92
319.609	14.92
319.741	4.92
319.873	9.92
320.005	26.92
320.137	-6.08
320.269	22.92
320.401	5.92
320.534	2.92
320.666	3.92
320.798	-17.08
320.93	17.92
321.062	-2.08
321.194	-15.08
321.326	5.92
321.458	30.92
321.59	3.92
321.722	-5.08
321.854	-2.08
321.986	22.92
322.118	17.92
322.25	11.92
322.382	0.92
322.514	-5.08
322.646	-3.08
322.778	29.92
322.91	0.92
323.042	-4.08
323.174	8.92
323.306	-6.08
323.438	3.92
323.57	4.92
323.702	1.92
323.834	8.92
323.966	-1.08
324.097	9.92
324.229	18.92
324.361	17.92
324.493	16.92
324.625	7.92
324.757	10.92
324.889	3.92
325.021	30.92
325.152	33.92
325.284	10.92
325.416	-2.08
325.548	20.92
325.68	12.92
325.811	23.92
325.943	26.92
326.075	-3.08
326.207	28.92
326.339	12.92
326.47	-4.08
326.602	-7.08
326.734	13.92
326.866	24.92
326.997	-6.08
327.129	-7.08
327.261	-20.08
327.392	5.92
327.524	26.92
327.656	-5.08
327.787	20.92
327.919	10.92
328.051	6.92
328.182	11.92
328.314	18.92
328.446	13.92
328.577	15.92
328.709	20.92
328.841	0.92
328.972	17.92
329.104	6.92
329.235	-11.08
329.367	-15.08
329.499	10.92
329.63	11.92
329.762	13.92
329.893	28.92
330.025	4.92
330.156	-4.08
330.288	22.92
330.419	31.92
330.551	5.92
330.683	12.92
330.814	-1.08
330.946	-6.08
331.077	-11.08
331.208	0.92
331.34	25.92
331.471	8.92
331.603	21.92
331.734	12.92
331.866	14.92
331.997	9.92
332.129	10.92
332.26	22.92
332.392	13.92
332.523	14.92
332.654	-6.08
332.786	-1.08
332.917	-7.08
333.048	27.92
333.18	33.92
333.311	-1.08
333.443	0.92
333.574	3.92
333.705	39.92
333.837	61.92
333.968	120.92
334.099	239.92
334.231	239.92
334.362	70.92
334.493	15.92
334.624	12.92
334.756	24.92
334.887	11.92
335.018	14.92
335.15	29.92
335.281	5.92
335.412	20.92
335.543	13.92
335.675	25.92
335.806	17.92
335.937	7.92
336.068	10.92
336.199	26.92
336.331	-17.08
336.462	-11.08
336.593	3.92
336.724	-6.08
336.855	8.92
336.986	27.92
337.118	24.92
337.249	11.92
337.38	27.92
337.511	1.92
337.642	20.92
337.773	15.92
337.904	7.92
338.035	22.92
338.166	1.92
338.298	27.92
338.429	10.92
338.56	13.92
338.691	26.92
338.822	3.92
338.953	14.92
339.084	29.92
339.215	19.92
339.346	12.92
339.477	18.92
339.608	22.92
339.739	5.92
339.87	11.92
340.001	18.92
340.132	43.92
340.263	22.92
340.394	25.92
340.525	26.92
340.656	-3.08
340.787	-0.08
340.918	38.92
341.049	22.92
341.179	18.92
341.31	26.92
341.441	13.92
341.572	32.92
341.703	33.92
341.834	23.92
341.965	37.92
342.096	3.92
342.227	-1.08
342.357	15.92
342.488	12.92
342.619	11.92
342.75	8.92
342.881	16.92
343.012	41.92
343.142	42.92
343.273	2.92
343.404	19.92
343.535	63.92
343.666	49.92
343.796	23.92
343.927	41.92
344.058	33.92
344.189	17.92
344.319	32.92
344.45	22.92
344.581	15.92
344.712	8.92
344.842	29.92
344.973	36.92
345.104	35.92
345.234	16.92
345.365	19.92
345.496	35.92
345.626	28.92
345.757	36.92
345.888	13.92
346.018	35.92
346.149	24.92
346.28	34.92
346.41	12.92
346.541	22.92
346.672	33.92
346.802	20.92
346.933	27.92
347.063	24.92
347.194	22.92
347.325	32.92
347.455	37.92
347.586	36.92
347.716	1.92
347.847	41.92
347.977	38.92
348.108	40.92
348.238	57.92
348.369	34.92
348.499	50.92
348.63	48.92
348.76	65.92
348.891	70.92
349.021	56.92
349.152	44.92
349.282	43.92
349.413	40.92
349.543	67.92
349.674	45.92
349.804	36.92
349.935	47.92
350.065	16.92
350.196	23.92
350.326	36.92
350.456	8.92
350.587	32.92
350.717	13.92
350.848	22.92
350.978	30.92
351.108	9.92
351.239	26.92
351.369	19.92
351.499	32.92
351.63	34.92
351.76	29.92
351.89	10.92
352.021	31.92
352.151	23.92
352.281	28.92
352.412	21.92
352.542	20.92
352.672	25.92
352.803	23.92
352.933	26.92
353.063	26.92
353.193	13.92
353.324	21.92
353.454	34.92
353.584	41.92
353.714	12.92
353.845	24.92
353.975	4.92
354.105	23.92
354.235	7.92
354.365	42.92
354.496	28.92
354.626	26.92
354.756	44.92
354.886	30.92
355.016	39.92
355.146	24.92
355.277	19.92
355.407	11.92
355.537	20.92
355.667	27.92
355.797	29.92
355.927	4.92
356.057	26.92
356.187	23.92
356.318	10.92
356.448	36.92
356.578	38.92
356.708	36.92
356.838	23.92
356.968	18.92
357.098	37.92
357.228	37.92
357.358	50.92
357.488	36.92
357.618	55.92
357.748	53.92
357.878	30.92
358.008	5.92
358.138	10.92
358.268	20.92
358.398	29.92
358.528	10.92
358.658	26.92
358.788	32.92
358.918	27.92
359.048	39.92
359.178	42.92
359.308	47.92
359.438	44.92
359.568	37.92
359.698	24.92
359.827	8.92
359.957	33.92
360.087	16.92
360.217	20.92
360.347	31.92
360.477	37.92
360.607	29.92
360.737	44.92
360.866	30.92
360.996	8.92
361.126	13.92
361.256	71.92
361.386	42.92
361.516	43.92
361.645	6.92
361.775	39.92
361.905	18.92
362.035	35.92
362.165	33.92
362.294	37.92
362.424	61.92
362.554	51.92
362.684	29.92
362.813	50.92
362.943	55.92
363.073	41.92
363.203	41.92
363.332	80.92
363.462	72.92
363.592	106.92
363.721	133.92
363.851	153.92
363.981	193.92
364.111	252.92
364.24	330.92
364.37	487.92
364.5	858.92
364.629	1837.92
364.759	3873.92
364.888	6314.92
365.018	9380.92
365.148	14802.92
365.277	12889.92
365.407	4739.92
365.537	3116.92
365.666	4035.92
365.796	1836.92
365.925	808.92
366.055	770.92
366.184	1018.92
366.314	1342.92
366.444	2462.92
366.573	2137.92
366.703	666.92
366.832	202.92
366.962	119.92
367.091	88.92
367.221	74.92
367.35	58.92
367.48	73.92
367.609	57.92
367.739	72.92
367.868	29.92
367.998	51.92
368.127	55.92
368.257	68.92
368.386	51.92
368.516	48.92
368.645	43.92
368.775	37.92
368.904	59.92
369.033	35.92
369.163	22.92
369.292	37.92
369.422	17.92
369.551	30.92
369.68	45.92
369.81	48.92
369.939	10.92
370.069	47.92
370.198	42.92
370.327	21.92
370.457	35.92
370.586	56.92
370.715	49.92
370.845	25.92
370.974	39.92
371.103	47.92
371.233	61.92
371.362	71.92
371.491	40.92
371.621	43.92
371.75	55.92
371.879	39.92
372.008	47.92
372.138	63.92
372.267	75.92
372.396	51.92
372.525	45.92
372.655	23.92
372.784	33.92
372.913	23.92
373.042	25.92
373.172	17.92
373.301	1.92
373.43	18.92
373.559	33.92
373.688	23.92
373.818	24.92
373.947	44.92
374.076	25.92
374.205	14.92
374.334	15.92
374.463	17.92
374.593	11.92
374.722	31.92
374.851	35.92
374.98	17.92
375.109	16.92
375.238	43.92
375.367	45.92
375.496	-0.08
375.625	3.92
375.755	31.92
375.884	49.92
376.013	31.92
376.142	4.92
376.271	37.92
376.4	29.92
376.529	32.92
376.658	19.92
376.787	33.92
376.916	22.92
377.045	25.92
377.174	11.92
377.303	16.92
377.432	44.92
377.561	26.92
377.69	19.92
377.819	59.92
377.948	20.92
378.077	-11.08
378.206	10.92
378.335	18.92
378.464	21.92
378.593	11.92
378.722	-2.08
378.851	20.92
378.98	15.92
379.108	17.92
379.237	-0.08
379.366	28.92
379.495	33.92
379.624	43.92
379.753	15.92
379.882	16.92
380.011	13.92
380.14	16.92
380.268	16.92
380.397	16.92
380.526	49.92
380.655	17.92
380.784	-13.08
380.913	15.92
381.041	8.92
381.17	-0.08
381.299	22.92
381.428	16.92
381.557	16.92
381.685	13.92
381.814	10.92
381.943	19.92
382.072	14.92
382.2	0.92
382.329	16.92
382.458	14.92
382.587	47.92
382.715	43.92
382.844	29.92
382.973	11.92
383.102	24.92
383.23	19.92
383.359	-4.08
383.488	30.92
383.616	30.92
383.745	7.92
383.874	19.92
384.003	23.92
384.131	30.92
384.26	10.92
384.389	8.92
384.517	3.92
384.646	15.92
384.774	13.92
384.903	45.92
385.032	27.92
385.16	35.92
385.289	28.92
385.418	16.92
385.546	21.92
385.675	25.92
385.803	32.92
385.932	33.92
386.06	17.92
386.189	2.92
386.318	10.92
386.446	18.92
386.575	34.92
386.703	42.92
386.832	3.92
386.96	-2.08
387.089	34.92
387.217	16.92
387.346	3.92
387.474	35.92
387.603	32.92
387.731	27.92
387.86	37.92
387.988	28.92
388.117	33.92
388.245	-7.08
388.374	25.92
388.502	38.92
388.631	23.92
388.759	20.92
388.888	35.92
389.016	15.92
389.144	7.92
389.273	13.92
389.401	7.92
389.53	-1.08
389.658	35.92
389.786	30.92
389.915	10.92
390.043	18.92
390.172	27.92
390.3	52.92
390.428	31.92
390.557	26.92
390.685	50.92
390.813	56.92
390.942	56.92
391.07	29.92
391.198	21.92
391.327	26.92
391.455	12.92
391.583	44.92
391.712	45.92
391.84	50.92
391.968	11.92
392.096	16.92
392.225	27.92
392.353	25.92
392.481	36.92
392.609	30.92
392.738	30.92
392.866	31.92
392.994	18.92
393.122	32.92
393.251	14.92
393.379	17.92
393.507	12.92
393.635	24.92
393.764	29.92
393.892	32.92
394.02	26.92
394.148	30.92
394.276	19.92
394.404	30.92
394.533	24.92
394.661	23.92
394.789	29.92
394.917	45.92
395.045	15.92
395.173	11.92
395.302	25.92
395.43	32.92
395.558	41.92
395.686	42.92
395.814	29.92
395.942	35.92
396.07	24.92
396.198	28.92
396.326	46.92
396.454	49.92
396.582	45.92
396.711	22.92
396.839	42.92
396.967	25.92
397.095	15.92
397.223	42.92
397.351	64.92
397.479	37.92
397.607	44.92
397.735	45.92
397.863	50.92
397.991	47.92
398.119	27.92
398.247	55.92
398.375	54.92
398.503	43.92
398.631	68.92
398.759	65.92
398.887	57.92
399.015	70.92
399.143	60.92
399.271	75.92
399.399	67.92
399.526	87.92
399.654	89.92
399.782	66.92
399.91	99.92
400.038	100.92
400.166	75.92
400.294	97.92
400.422	81.92
400.55	100.92
400.678	114.92
400.805	102.92
400.933	127.92
401.061	126.92
401.189	127.92
401.317	146.92
401.445	84.92
401.573	89.92
401.7	59.92
401.828	58.92
401.956	61.92
402.084	33.92
402.212	40.92
402.34	33.92
402.467	39.92
402.595	53.92
402.723	27.92
402.851	63.92
402.978	38.92
403.106	89.92
403.234	93.92
403.362	114.92
403.489	116.92
403.617	141.92
403.745	206.92
403.873	278.92
404	557.92
404.128	1448.92
404.256	3907.92
404.384	5121.92
404.511	5474.92
404.639	7138.92
404.767	11416.92
404.894	14629.92
405.022	4894.92
405.15	1303.92
405.277	419.92
405.405	217.92
405.533	124.92
405.66	108.92
405.788	71.92
405.916	71.92
406.043	46.92
406.171	65.92
406.299	63.92
406.426	57.92
406.554	57.92
406.681	56.92
406.809	42.92
406.937	44.92
407.064	62.92
407.192	128.92
407.319	323.92
407.447	524.92
407.574	541.92
407.702	602.92
407.83	855.92
407.957	1619.92
408.085	982.92
408.212	289.92
408.34	115.92
408.467	63.92
408.595	45.92
408.722	43.92
408.85	44.92
408.977	35.92
409.105	29.92
409.232	44.92
409.36	7.92
409.487	29.92
409.615	20.92
409.742	36.92
409.87	35.92
409.997	43.92
410.125	46.92
410.252	50.92
410.379	20.92
410.507	21.92
410.634	33.92
410.762	21.92
410.889	40.92
411.017	40.92
411.144	38.92
411.271	34.92
411.399	30.92
411.526	24.92
411.653	27.92
411.781	63.92
411.908	22.92
412.036	25.92
412.163	32.92
412.29	24.92
412.418	30.92
412.545	35.92
412.672	25.92
412.8	58.92
412.927	44.92
413.054	47.92
413.182	41.92
413.309	21.92
413.436	33.92
413.564	44.92
413.691	29.92
413.818	39.92
413.945	13.92
414.073	34.92
414.2	36.92
414.327	30.92
414.454	46.92
414.582	28.92
414.709	32.92
414.836	44.92
414.963	42.92
415.091	51.92
415.218	30.92
415.345	33.92
415.472	37.92
415.6	14.92
415.727	38.92
415.854	43.92
415.981	20.92
416.108	24.92
416.236	24.92
416.363	27.92
416.49	18.92
416.617	34.92
416.744	33.92
416.871	32.92
416.998	34.92
417.126	42.92
417.253	25.92
417.38	30.92
417.507	21.92
417.634	48.92
417.761	42.92
417.888	51.92
418.015	40.92
418.143	45.92
418.27	62.92
418.397	42.92
418.524	29.92
418.651	35.92
418.778	34.92
418.905	54.92
419.032	31.92
419.159	45.92
419.286	71.92
419.413	45.92
419.54	42.92
419.667	41.92
419.794	40.92
419.921	44.92
420.048	31.92
420.175	77.92
420.302	40.92
420.429	63.92
420.556	58.92
420.683	45.92
420.81	49.92
420.937	73.92
421.064	81.92
421.191	58.92
421.318	62.92
421.445	81.92
421.572	48.92
421.699	59.92
421.826	27.92
421.953	48.92
422.08	27.92
422.207	11.92
422.334	20.92
422.461	44.92
422.588	48.92
422.714	34.92
422.841	40.92
422.968	18.92
423.095	19.92
423.222	10.92
423.349	10.92
423.476	20.92
423.603	32.92
423.729	9.92
423.856	29.92
423.983	51.92
424.11	13.92
424.237	18.92
424.364	41.92
424.491	23.92
424.617	-7.08
424.744	22.92
424.871	22.92
424.998	10.92
425.125	12.92
425.251	10.92
425.378	20.92
425.505	11.92
425.632	30.92
425.758	9.92
425.885	27.92
426.012	16.92
426.139	37.92
426.266	15.92
426.392	27.92
426.519	12.92
426.646	24.92
426.772	19.92
426.899	12.92
427.026	32.92
427.153	30.92
427.279	35.92
427.406	20.92
427.533	18.92
427.659	36.92
427.786	16.92
427.913	23.92
428.039	15.92
428.166	13.92
428.293	31.92
428.419	28.92
428.546	30.92
428.673	25.92
428.799	19.92
428.926	28.92
429.053	51.92
429.179	38.92
429.306	27.92
429.433	55.92
429.559	39.92
429.686	22.92
429.812	14.92
429.939	13.92
430.066	25.92
430.192	26.92
430.319	32.92
430.445	32.92
430.572	28.92
430.699	22.92
430.825	9.92
430.952	14.92
431.078	42.92
431.205	35.92
431.331	31.92
431.458	32.92
431.584	46.92
431.711	34.92
431.837	25.92
431.964	19.92
432.09	18.92
432.217	-2.08
432.343	25.92
432.47	54.92
432.596	41.92
432.723	16.92
432.849	33.92
432.976	43.92
433.102	53.92
433.229	27.92
433.355	64.92
433.482	107.92
433.608	109.92
433.735	102.92
433.861	97.92
433.987	156.92
434.114	200.92
434.24	178.92
434.367	226.92
434.493	233.92
434.62	301.92
434.746	380.92
434.872	618.92
434.999	821.92
435.125	1709.92
435.252	5494.92
435.378	13406.92
435.504	15186.92
435.631	15416.92
435.757	15685.92
435.883	15685.92
436.01	15685.92
436.136	15685.92
436.262	15685.92
436.389	3464.92
436.515	2126.92
436.641	803.92
436.768	630.92
436.894	385.92
437.02	384.92
437.147	301.92
437.273	304.92
437.399	229.92
437.526	240.92
437.652	178.92
437.778	196.92
437.904	125.92
438.031	157.92
438.157	143.92
438.283	160.92
438.409	105.92
438.536	105.92
438.662	118.92
438.788	108.92
438.914	111.92
439.041	123.92
439.167	120.92
439.293	107.92
439.419	101.92
439.546	96.92
439.672	81.92
439.798	107.92
439.924	87.92
440.05	91.92
440.177	93.92
440.303	71.92
440.429	72.92
440.555	86.92
440.681	62.92
440.807	92.92
440.934	73.92
441.06	65.92
441.186	45.92
441.312	40.92
441.438	53.92
441.564	71.92
441.69	64.92
441.816	72.92
441.943	47.92
442.069	59.92
442.195	60.92
442.321	65.92
442.447	39.92
442.573	44.92
442.699	40.92
442.825	43.92
442.951	48.92
443.077	58.92
443.203	54.92
443.33	48.92
443.456	32.92
443.582	51.92
443.708	28.92
443.834	66.92
443.96	58.92
444.086	44.92
444.212	60.92
444.338	45.92
444.464	49.92
444.59	62.92
444.716	58.92
444.842	42.92
444.968	27.92
445.094	39.92
445.22	37.92
445.346	26.92
445.472	44.92
445.598	40.92
445.724	41.92
445.85	50.92
445.976	53.92
446.102	58.92
446.228	55.92
446.354	43.92
446.48	34.92
446.605	47.92
446.731	46.92
446.857	45.92
446.983	38.92
447.109	46.92
447.235	45.92
447.361	19.92
447.487	24.92
447.613	42.92
447.739	28.92
447.865	22.92
447.99	28.92
448.116	25.92
448.242	24.92
448.368	18.92
448.494	41.92
448.62	42.92
448.746	48.92
448.872	42.92
448.997	18.92
449.123	36.92
449.249	46.92
449.375	46.92
449.501	18.92
449.627	28.92
449.752	43.92
449.878	33.92
450.004	12.92
450.13	25.92
450.256	52.92
450.381	50.92
450.507	36.92
450.633	30.92
450.759	39.92
450.884	37.92
451.01	40.92
451.136	22.92
451.262	32.92
451.388	54.92
451.513	22.92
451.639	33.92
451.765	45.92
451.89	37.92
452.016	36.92
452.142	35.92
452.268	22.92
452.393	37.92
452.519	22.92
452.645	33.92
452.771	31.92
452.896	32.92
453.022	23.92
453.148	37.92
453.273	39.92
453.399	31.92
453.525	0.92
453.65	9.92
453.776	40.92
453.902	32.92
454.027	43.92
454.153	52.92
454.279	34.92
454.404	27.92
454.53	62.92
454.656	46.92
454.781	14.92
454.907	10.92
455.032	14.92
455.158	37.92
455.284	42.92
455.409	26.92
455.535	29.92
455.66	41.92
455.786	42.92
455.912	30.92
456.037	33.92
456.163	34.92
456.288	44.92
456.414	39.92
456.539	6.92
456.665	35.92
456.791	36.92
456.916	38.92
457.042	42.92
457.167	27.92
457.293	38.92
457.418	15.92
457.544	26.92
457.669	28.92
457.795	25.92
457.92	30.92
458.046	32.92
458.171	37.92
458.297	16.92
458.422	31.92
458.548	18.92
458.673	47.92
458.799	26.92
458.924	7.92
459.05	27.92
459.175	12.92
459.301	16.92
459.426	33.92
459.552	12.92
459.677	24.92
459.803	50.92
459.928	39.92
460.053	29.92
460.179	36.92
460.304	48.92
460.43	35.92
460.555	26.92
460.681	15.92
460.806	11.92
460.931	43.92
461.057	32.92
461.182	22.92
461.308	37.92
461.433	55.92
461.558	20.92
461.684	28.92
461.809	33.92
461.934	23.92
462.06	34.92
462.185	2.92
462.311	20.92
462.436	33.92
462.561	42.92
462.687	13.92
462.812	14.92
462.937	19.92
463.063	30.92
463.188	27.92
463.313	28.92
463.439	41.92
463.564	30.92
463.689	30.92
463.814	27.92
463.94	18.92
464.065	27.92
464.19	42.92
464.316	18.92
464.441	16.92
464.566	23.92
464.692	33.92
464.817	28.92
464.942	31.92
465.067	39.92
465.193	13.92
465.318	8.92
465.443	29.92
465.568	19.92
465.694	18.92
465.819	48.92
465.944	35.92
466.069	26.92
466.194	42.92
466.32	35.92
466.445	40.92
466.57	38.92
466.695	34.92
466.82	29.92
466.946	49.92
467.071	46.92
467.196	23.92
467.321	23.92
467.446	44.92
467.572	40.92
467.697	38.92
467.822	26.92
467.947	40.92
468.072	27.92
468.197	18.92
468.323	36.92
468.448	36.92
468.573	36.92
468.698	41.92
468.823	38.92
468.948	50.92
469.073	33.92
469.198	49.92
469.324	45.92
469.449	34.92
469.574	48.92
469.699	47.92
469.824	38.92
469.949	25.92
470.074	29.92
470.199	58.92
470.324	47.92
470.449	38.92
470.574	25.92
470.7	36.92
470.825	34.92
470.95	53.92
471.075	29.92
471.2	45.92
471.325	78.92
471.45	29.92
471.575	34.92
471.7	38.92
471.825	34.92
471.95	18.92
472.075	24.92
472.2	23.92
472.325	36.92
472.45	19.92
472.575	27.92
472.7	29.92
472.825	47.92
472.95	30.92
473.075	41.92
473.2	30.92
473.325	40.92
473.45	31.92
473.575	55.92
473.7	49.92
473.825	42.92
473.95	45.92
474.075	30.92
474.2	14.92
474.325	19.92
474.45	38.92
474.574	25.92
474.699	23.92
474.824	32.92
474.949	10.92
475.074	33.92
475.199	36.92
475.324	26.92
475.449	20.92
475.574	6.92
475.699	26.92
475.824	1.92
475.949	4.92
476.073	14.92
476.198	29.92
476.323	22.92
476.448	17.92
476.573	4.92
476.698	30.92
476.823	31.92
476.947	35.92
477.072	31.92
477.197	23.92
477.322	11.92
477.447	15.92
477.572	16.92
477.697	8.92
477.821	18.92
477.946	25.92
478.071	36.92
478.196	32.92
478.321	36.92
478.445	28.92
478.57	31.92
478.695	26.92
478.82	26.92
478.945	22.92
479.069	22.92
479.194	22.92
479.319	19.92
479.444	25.92
479.569	27.92
479.693	30.92
479.818	25.92
479.943	31.92
480.068	28.92
480.192	55.92
480.317	32.92
480.442	29.92
480.567	25.92
480.691	21.92
480.816	8.92
480.941	14.92
481.066	29.92
481.19	20.92
481.315	18.92
481.44	8.92
481.564	3.92
481.689	38.92
481.814	21.92
481.938	16.92
482.063	22.92
482.188	21.92
482.313	45.92
482.437	23.92
482.562	30.92
482.687	31.92
482.811	19.92
482.936	31.92
483.061	23.92
483.185	24.92
483.31	24.92
483.435	28.92
483.559	24.92
483.684	18.92
483.808	38.92
483.933	31.92
484.058	19.92
484.182	17.92
484.307	-0.08
484.432	18.92
484.556	17.92
484.681	23.92
484.805	7.92
484.93	37.92
485.055	29.92
485.179	45.92
485.304	29.92
485.428	43.92
485.553	2.92
485.678	22.92
485.802	22.92
485.927	42.92
486.051	38.92
486.176	14.92
486.3	4.92
486.425	30.92
486.549	27.92
486.674	16.92
486.799	22.92
486.923	12.92
487.048	22.92
487.172	5.92
487.297	16.92
487.421	30.92
487.546	34.92
487.67	34.92
487.795	4.92
487.919	24.92
488.044	40.92
488.168	34.92
488.293	27.92
488.417	10.92
488.542	23.92
488.666	30.92
488.791	33.92
488.915	23.92
489.04	19.92
489.164	31.92
489.289	27.92
489.413	13.92
489.538	17.92
489.662	32.92
489.786	24.92
489.911	17.92
490.035	18.92
490.16	10.92
490.284	15.92
490.409	8.92
490.533	27.92
490.658	36.92
490.782	26.92
490.906	48.92
491.031	99.92
491.155	129.92
491.28	155.92
491.404	161.92
491.528	236.92
491.653	161.92
491.777	81.92
491.902	18.92
492.026	29.92
492.15	43.92
492.275	38.92
492.399	45.92
492.524	10.92
492.648	42.92
492.772	31.92
492.897	43.92
493.021	18.92
493.145	33.92
493.27	36.92
493.394	15.92
493.518	18.92
493.643	18.92
493.767	45.92
493.891	15.92
494.016	22.92
494.14	27.92
494.264	29.92
494.389	38.92
494.513	18.92
494.637	-7.08
494.762	22.92
494.886	27.92
495.01	22.92
495.134	31.92
495.259	33.92
495.383	11.92
495.507	9.92
495.632	33.92
495.756	45.92
495.88	33.92
496.004	14.92
496.129	17.92
496.253	24.92
496.377	7.92
496.501	34.92
496.626	22.92
496.75	24.92
496.874	28.92
496.998	15.92
497.123	47.92
497.247	12.92
497.371	14.92
497.495	27.92
497.62	36.92
497.744	16.92
497.868	8.92
497.992	10.92
498.116	8.92
498.241	36.92
498.365	17.92
498.489	23.92
498.613	30.92
498.737	28.92
498.862	19.92
498.986	12.92
499.11	15.92
499.234	25.92
499.358	28.92
499.482	14.92
499.607	31.92
499.731	19.92
499.855	41.92
499.979	22.92
500.103	30.92
500.227	37.92
500.351	18.92
500.476	25.92
500.6	14.92
500.724	19.92
500.848	10.92
500.972	40.92
501.096	43.92
501.22	48.92
501.344	7.92
501.469	15.92
501.593	11.92
501.717	26.92
501.841	28.92
501.965	17.92
502.089	22.92
502.213	26.92
502.337	44.92
502.461	19.92
502.585	23.92
502.709	16.92
502.834	24.92
502.958	8.92
503.082	36.92
503.206	24.92
503.33	56.92
503.454	22.92
503.578	24.92
503.702	31.92
503.826	27.92
503.95	28.92
504.074	27.92
504.198	11.92
504.322	3.92
504.446	14.92
504.57	38.92
504.694	16.92
504.818	36.92
504.942	34.92
505.066	30.92
505.19	28.92
505.314	37.92
505.438	28.92
505.562	36.92
505.686	31.92
505.81	14.92
505.934	34.92
506.058	29.92
506.182	23.92
506.306	36.92
506.43	19.92
506.554	17.92
506.678	17.92
506.802	10.92
506.926	42.92
507.05	29.92
507.174	38.92
507.298	31.92
507.422	22.92
507.546	36.92
507.67	36.92
507.794	1.92
507.918	37.92
508.042	28.92
508.165	8.92
508.289	20.92
508.413	36.92
508.537	14.92
508.661	21.92
508.785	18.92
508.909	34.92
509.033	17.92
509.157	10.92
509.281	27.92
509.405	29.92
509.528	40.92
509.652	39.92
509.776	42.92
509.9	33.92
510.024	27.92
510.148	33.92
510.272	31.92
510.396	44.92
510.519	20.92
510.643	48.92
510.767	23.92
510.891	42.92
511.015	26.92
511.139	33.92
511.263	66.92
511.386	46.92
511.51	47.92
511.634	45.92
511.758	55.92
511.882	31.92
512.006	63.92
512.129	74.92
512.253	87.92
512.377	83.92
512.501	115.92
512.625	98.92
512.748	83.92
512.872	59.92
512.996	55.92
513.12	63.92
513.244	58.92
513.367	78.92
513.491	68.92
513.615	68.92
513.739	84.92
513.862	75.92
513.986	100.92
514.11	100.92
514.234	92.92
514.358	111.92
514.481	123.92
514.605	104.92
514.729	100.92
514.853	105.92
514.976	100.92
515.1	93.92
515.224	115.92
515.348	96.92
515.471	86.92
515.595	103.92
515.719	139.92
515.842	227.92
515.966	294.92
516.09	331.92
516.214	329.92
516.337	369.92
516.461	271.92
516.585	87.92
516.708	25.92
516.832	24.92
516.956	34.92
517.08	17.92
517.203	22.92
517.327	18.92
517.451	33.92
517.574	25.92
517.698	-0.08
517.822	18.92
517.945	28.92
518.069	37.92
518.193	44.92
518.316	34.92
518.44	28.92
518.564	-2.08
518.687	0.92
518.811	13.92
518.935	49.92
519.058	26.92
519.182	25.92
519.306	27.92
519.429	-3.08
519.553	23.92
519.676	29.92
519.8	30.92
519.924	25.92
520.047	24.92
520.171	28.92
520.294	23.92
520.418	27.92
520.542	27.92
520.665	40.92
520.789	15.92
520.913	6.92
521.036	11.92
521.16	17.92
521.283	31.92
521.407	17.92
521.53	12.92
521.654	-8.08
521.778	41.92
521.901	18.92
522.025	17.92
522.148	21.92
522.272	15.92
522.395	35.92
522.519	26.92
522.643	20.92
522.766	22.92
522.89	7.92
523.013	14.92
523.137	-3.08
523.26	14.92
523.384	17.92
523.507	20.92
523.631	27.92
523.754	3.92
523.878	18.92
524.002	14.92
524.125	25.92
524.249	8.92
524.372	23.92
524.496	20.92
524.619	34.92
524.743	23.92
524.866	13.92
524.99	9.92
525.113	-1.08
525.237	31.92
525.36	11.92
525.484	24.92
525.607	1.92
525.731	3.92
525.854	26.92
525.978	36.92
526.101	22.92
526.224	17.92
526.348	20.92
526.471	23.92
526.595	16.92
526.718	26.92
526.842	11.92
526.965	31.92
527.089	41.92
527.212	21.92
527.336	27.92
527.459	13.92
527.582	24.92
527.706	23.92
527.829	30.92
527.953	24.92
528.076	12.92
528.2	4.92
528.323	36.92
528.446	29.92
528.57	10.92
528.693	21.92
528.817	11.92
528.94	42.92
529.064	35.92
529.187	15.92
529.31	16.92
529.434	2.92
529.557	11.92
529.68	19.92
529.804	19.92
529.927	14.92
530.051	7.92
530.174	22.92
530.297	15.92
530.421	18.92
530.544	37.92
530.668	31.92
530.791	21.92
530.914	29.92
531.038	16.92
531.161	17.92
531.284	33.92
531.408	40.92
531.531	10.92
531.654	10.92
531.778	24.92
531.901	7.92
532.024	24.92
532.148	1.92
532.271	9.92
532.394	21.92
532.518	24.92
532.641	11.92
532.764	25.92
532.888	16.92
533.011	6.92
533.134	16.92
533.258	43.92
533.381	29.92
533.504	13.92
533.628	23.92
533.751	21.92
533.874	23.92
533.997	26.92
534.121	23.92
534.244	18.92
534.367	22.92
534.491	12.92
534.614	27.92
534.737	16.92
534.86	26.92
534.984	15.92
535.107	18.92
535.23	23.92
535.354	6.92
535.477	2.92
535.6	15.92
535.723	38.92
535.847	28.92
535.97	23.92
536.093	16.92
536.216	-1.08
536.34	22.92
536.463	16.92
536.586	16.92
536.709	32.92
536.833	15.92
536.956	20.92
537.079	14.92
537.202	33.92
537.325	25.92
537.449	26.92
537.572	17.92
537.695	10.92
537.818	-0.08
537.941	18.92
538.065	22.92
538.188	11.92
538.311	34.92
538.434	39.92
538.558	26.92
538.681	20.92
538.804	28.92
538.927	18.92
539.05	28.92
539.173	18.92
539.297	15.92
539.42	12.92
539.543	25.92
539.666	35.92
539.789	30.92
539.913	7.92
540.036	20.92
540.159	19.92
540.282	2.92
540.405	11.92
540.528	18.92
540.651	40.92
540.775	22.92
540.898	34.92
541.021	40.92
541.144	30.92
541.267	28.92
541.39	29.92
541.513	47.92
541.637	12.92
541.76	39.92
541.883	48.92
542.006	52.92
542.129	38.92
542.252	28.92
542.375	35.92
542.498	39.92
542.622	49.92
542.745	59.92
542.868	45.92
542.991	86.92
543.114	70.92
543.237	67.92
543.36	61.92
543.483	65.92
543.606	65.92
543.73	98.92
543.853	62.92
543.976	96.92
544.099	112.92
544.222	136.92
544.345	140.92
544.468	162.92
544.591	208.92
544.714	280.92
544.837	351.92
544.96	438.92
545.083	658.92
545.206	1120.92
545.329	2434.92
545.453	10859.92
545.576	15245.92
545.699	15685.92
545.822	15685.92
545.945	15685.92
546.068	15685.92
546.191	15685.92
546.314	15685.92
546.437	15685.92
546.56	15685.92
546.683	15685.92
546.806	15685.92
546.929	15685.92
547.052	15685.92
547.175	15685.92
547.298	15685.92
547.421	15685.92
547.544	15685.92
547.667	3530.92
547.79	2392.92
547.913	1024.92
548.036	887.92
548.159	632.92
548.282	623.92
548.405	465.92
548.528	491.92
548.651	406.92
548.774	409.92
548.897	361.92
549.02	365.92
549.143	311.92
549.266	296.92
549.389	254.92
549.512	255.92
549.635	237.92
549.758	241.92
549.881	210.92
550.004	207.92
550.127	196.92
550.25	184.92
550.373	183.92
550.496	189.92
550.619	168.92
550.742	161.92
550.865	124.92
550.988	142.92
551.111	174.92
551.234	144.92
551.356	137.92
551.479	139.92
551.602	127.92
551.725	147.92
551.848	130.92
551.971	125.92
552.094	128.92
552.217	95.92
552.34	98.92
552.463	107.92
552.586	131.92
552.709	113.92
552.832	119.92
552.955	106.92
553.077	115.92
553.2	108.92
553.323	83.92
553.446	96.92
553.569	93.92
553.692	101.92
553.815	110.92
553.938	97.92
554.061	100.92
554.184	87.92
554.306	94.92
554.429	66.92
554.552	74.92
554.675	70.92
554.798	86.92
554.921	81.92
555.044	66.92
555.167	62.92
555.29	79.92
555.412	76.92
555.535	96.92
555.658	72.92
555.781	56.92
555.904	92.92
556.027	78.92
556.15	76.92
556.272	61.92
556.395	85.92
556.518	65.92
556.641	64.92
556.764	89.92
556.887	78.92
557.01	81.92
557.132	55.92
557.255	67.92
557.378	81.92
557.501	68.92
557.624	74.92
557.747	66.92
557.869	86.92
557.992	91.92
558.115	118.92
558.238	101.92
558.361	126.92
558.483	100.92
558.606	74.92
558.729	48.92
558.852	88.92
558.975	72.92
559.098	66.92
559.22	67.92
559.343	55.92
559.466	61.92
559.589	56.92
559.712	56.92
559.834	46.92
559.957	47.92
560.08	46.92
560.203	61.92
560.325	55.92
560.448	71.92
560.571	51.92
560.694	62.92
560.817	57.92
560.939	67.92
561.062	73.92
561.185	72.92
561.308	65.92
561.43	43.92
561.553	64.92
561.676	62.92
561.799	74.92
561.921	74.92
562.044	69.92
562.167	46.92
562.29	80.92
562.413	89.92
562.535	63.92
562.658	68.92
562.781	70.92
562.903	63.92
563.026	81.92
563.149	146.92
563.272	114.92
563.394	111.92
563.517	120.92
563.64	63.92
563.763	34.92
563.885	58.92
564.008	57.92
564.131	50.92
564.254	22.92
564.376	47.92
564.499	27.92
564.622	46.92
564.744	40.92
564.867	30.92
564.99	42.92
565.113	47.92
565.235	28.92
565.358	25.92
565.481	31.92
565.603	29.92
565.726	33.92
565.849	62.92
565.971	54.92
566.094	39.92
566.217	23.92
566.34	24.92
566.462	38.92
566.585	46.92
566.708	50.92
566.83	42.92
566.953	47.92
567.076	32.92
567.198	26.92
567.321	2.92
567.444	44.92
567.566	30.92
567.689	26.92
567.812	50.92
567.934	34.92
568.057	32.92
568.18	39.92
568.302	38.92
568.425	22.92
568.548	27.92
568.67	28.92
568.793	37.92
568.916	31.92
569.038	32.92
569.161	35.92
569.283	42.92
569.406	40.92
569.529	40.92
569.651	38.92
569.774	13.92
569.897	31.92
570.019	71.92
570.142	62.92
570.265	36.92
570.387	24.92
570.51	39.92
570.632	38.92
570.755	18.92
570.878	24.92
571	40.92
571.123	42.92
571.246	64.92
571.368	43.92
571.491	25.92
571.613	7.92
571.736	11.92
571.859	47.92
571.981	36.92
572.104	27.92
572.226	36.92
572.349	8.92
572.472	22.92
572.594	41.92
572.717	48.92
572.839	31.92
572.962	38.92
573.085	43.92
573.207	32.92
573.33	50.92
573.452	57.92
573.575	61.92
573.697	54.92
573.82	46.92
573.943	25.92
574.065	31.92
574.188	26.92
574.31	46.92
574.433	47.92
574.555	48.92
574.678	30.92
574.801	27.92
574.923	34.92
575.046	51.92
575.168	31.92
575.291	46.92
575.413	29.92
575.536	55.92
575.659	59.92
575.781	46.92
575.904	38.92
576.026	91.92
576.149	108.92
576.271	129.92
576.394	216.92
576.516	532.92
576.639	3650.92
576.761	10138.92
576.884	8758.92
577.007	8739.92
577.129	8048.92
577.252	3707.92
577.374	1307.92
577.497	526.92
577.619	281.92
577.742	182.92
577.864	163.92
577.987	134.92
578.109	136.92
578.232	109.92
578.354	154.92
578.477	193.92
578.599	400.92
578.722	1954.92
578.844	9073.92
578.967	9766.92
579.089	8770.92
579.212	9079.92
579.334	5218.92
579.457	1912.92
579.579	704.92
579.702	324.92
579.824	208.92
579.947	130.92
580.069	100.92
580.192	89.92
580.314	92.92
580.437	78.92
580.559	107.92
580.682	62.92
580.804	62.92
580.927	77.92
581.049	78.92
581.172	52.92
581.294	51.92
581.417	50.92
581.539	40.92
581.662	52.92
581.784	53.92
581.907	43.92
582.029	41.92
582.152	34.92
582.274	70.92
582.396	41.92
582.519	45.92
582.641	33.92
582.764	28.92
582.886	35.92
583.009	26.92
583.131	30.92
583.254	43.92
583.376	40.92
583.499	51.92
583.621	42.92
583.743	35.92
583.866	24.92
583.988	34.92
584.111	47.92
584.233	43.92
584.356	55.92
584.478	39.92
584.601	15.92
584.723	35.92
584.845	71.92
584.968	26.92
585.09	23.92
585.213	31.92
585.335	40.92
585.458	33.92
585.58	33.92
585.702	38.92
585.825	36.92
585.947	39.92
586.07	36.92
586.192	20.92
586.315	37.92
586.437	28.92
586.559	39.92
586.682	16.92
586.804	41.92
586.927	16.92
587.049	20.92
587.171	51.92
587.294	39.92
587.416	47.92
587.539	13.92
587.661	1.92
587.783	15.92
587.906	39.92
588.028	44.92
588.151	37.92
588.273	28.92
588.395	39.92
588.518	47.92
588.64	43.92
588.763	40.92
588.885	14.92
589.007	30.92
589.13	22.92
589.252	12.92
589.375	32.92
589.497	38.92
589.619	24.92
589.742	29.92
589.864	28.92
589.986	38.92
590.109	28.92
590.231	22.92
590.354	24.92
590.476	22.92
590.598	26.92
590.721	23.92
590.843	46.92
590.965	31.92
591.088	37.92
591.21	23.92
591.332	25.92
591.455	11.92
591.577	5.92
591.7	36.92
591.822	34.92
591.944	26.92
592.067	23.92
592.189	26.92
592.311	34.92
592.434	26.92
592.556	39.92
592.678	43.92
592.801	43.92
592.923	39.92
593.045	15.92
593.168	22.92
593.29	20.92
593.412	27.92
593.535	23.92
593.657	20.92
593.779	32.92
593.902	48.92
594.024	37.92
594.146	42.92
594.269	35.92
594.391	26.92
594.513	36.92
594.636	22.92
594.758	3.92
594.88	22.92
595.003	46.92
595.125	24.92
595.247	27.92
595.37	42.92
595.492	20.92
595.614	56.92
595.737	39.92
595.859	31.92
595.981	23.92
596.104	28.92
596.226	22.92
596.348	19.92
596.471	13.92
596.593	22.92
596.715	19.92
596.838	36.92
596.96	16.92
597.082	28.92
597.204	26.92
597.327	26.92
597.449	21.92
597.571	34.92
597.694	33.92
597.816	27.92
597.938	19.92
598.061	22.92
598.183	8.92
598.305	31.92
598.427	20.92
598.55	22.92
598.672	39.92
598.794	39.92
598.917	27.92
599.039	49.92
599.161	39.92
599.283	19.92
599.406	26.92
599.528	36.92
599.65	55.92
599.773	37.92
599.895	46.92
600.017	47.92
600.139	35.92
600.262	8.92
600.384	25.92
600.506	14.92
600.628	47.92
600.751	33.92
600.873	31.92
600.995	30.92
601.118	41.92
601.24	37.92
601.362	37.92
601.484	34.92
601.607	23.92
601.729	8.92
601.851	28.92
601.973	35.92
602.096	54.92
602.218	34.92
602.34	18.92
602.462	24.92
602.585	22.92
602.707	15.92
602.829	32.92
602.951	21.92
603.074	10.92
603.196	28.92
603.318	22.92
603.44	38.92
603.563	18.92
603.685	12.92
603.807	34.92
603.929	33.92
604.052	47.92
604.174	53.92
604.296	30.92
604.418	26.92
604.541	28.92
604.663	17.92
604.785	24.92
604.907	13.92
605.03	16.92
605.152	46.92
605.274	22.92
605.396	20.92
605.519	38.92
605.641	19.92
605.763	24.92
605.885	21.92
606.008	24.92
606.13	24.92
606.252	39.92
606.374	9.92
606.496	17.92
606.619	16.92
606.741	32.92
606.863	27.92
606.985	35.92
607.108	21.92
607.23	27.92
607.352	20.92
607.474	32.92
607.596	10.92
607.719	12.92
607.841	16.92
607.963	33.92
608.085	21.92
608.207	62.92
608.33	29.92
608.452	22.92
608.574	22.92
608.696	54.92
608.819	23.92
608.941	18.92
609.063	28.92
609.185	21.92
609.307	24.92
609.43	38.92
609.552	35.92
609.674	17.92
609.796	24.92
609.918	35.92
610.041	23.92
610.163	16.92
610.285	27.92
610.407	25.92
610.529	14.92
610.652	30.92
610.774	28.92
610.896	26.92
611.018	42.92
611.14	34.92
611.263	25.92
611.385	28.92
611.507	29.92
611.629	14.92
611.751	38.92
611.873	45.92
611.996	23.92
612.118	53.92
612.24	29.92
612.362	46.92
612.484	26.92
612.607	34.92
612.729	54.92
612.851	20.92
612.973	39.92
613.095	3.92
613.218	26.92
613.34	39.92
613.462	11.92
613.584	25.92
613.706	17.92
613.828	44.92
613.951	26.92
614.073	24.92
614.195	10.92
614.317	29.92
614.439	51.92
614.561	31.92
614.684	25.92
614.806	27.92
614.928	42.92
615.05	35.92
615.172	33.92
615.294	30.92
615.417	13.92
615.539	7.92
615.661	20.92
615.783	24.92
615.905	5.92
616.027	13.92
616.15	28.92
616.272	28.92
616.394	11.92
616.516	24.92
616.638	20.92
616.76	8.92
616.883	14.92
617.005	22.92
617.127	16.92
617.249	25.92
617.371	41.92
617.493	39.92
617.615	34.92
617.738	26.92
617.86	21.92
617.982	19.92
618.104	24.92
618.226	10.92
618.348	13.92
618.471	39.92
618.593	36.92
618.715	16.92
618.837	25.92
618.959	22.92
619.081	50.92
619.203	17.92
619.326	18.92
619.448	24.92
619.57	49.92
619.692	22.92
619.814	44.92
619.936	21.92
620.058	29.92
620.181	26.92
620.303	17.92
620.425	19.92
620.547	14.92
620.669	24.92
620.791	38.92
620.913	21.92
621.036	10.92
621.158	13.92
621.28	25.92
621.402	1.92
621.524	26.92
621.646	23.92
621.768	14.92
621.891	12.92
622.013	29.92
622.135	22.92
622.257	21.92
622.379	18.92
622.501	20.92
622.623	2.92
622.745	26.92
622.868	29.92
622.99	29.92
623.112	11.92
623.234	18.92
623.356	28.92
623.478	4.92
623.6	24.92
623.722	20.92
623.845	22.92
623.967	28.92
624.089	29.92
624.211	29.92
624.333	38.92
624.455	29.92
624.577	28.92
624.699	22.92
624.822	21.92
624.944	21.92
625.066	10.92
625.188	16.92
625.31	20.92
625.432	43.92
625.554	32.92
625.676	33.92
625.799	29.92
625.921	12.92
626.043	14.92
626.165	19.92
626.287	15.92
626.409	29.92
626.531	23.92
626.653	12.92
626.775	22.92
626.898	33.92
627.02	28.92
627.142	40.92
627.264	44.92
627.386	33.92
627.508	31.92
627.63	18.92
627.752	30.92
627.874	16.92
627.997	28.92
628.119	36.92
628.241	27.92
628.363	12.92
628.485	12.92
628.607	14.92
628.729	6.92
628.851	11.92
628.973	17.92
629.096	11.92
629.218	19.92
629.34	29.92
629.462	15.92
629.584	6.92
629.706	20.92
629.828	18.92
629.95	23.92
630.072	7.92
630.195	41.92
630.317	23.92
630.439	6.92
630.561	16.92
630.683	8.92
630.805	20.92
630.927	24.92
631.049	23.92
631.171	10.92
631.293	10.92
631.416	17.92
631.538	19.92
631.66	29.92
631.782	24.92
631.904	34.92
632.026	4.92
632.148	7.92
632.27	1.92
632.392	20.92
632.514	16.92
632.637	25.92
632.759	0.92
632.881	18.92
633.003	20.92
633.125	14.92
633.247	19.92
633.369	13.92
633.491	0.92
633.613	18.92
633.735	2.92
633.858	39.92
633.98	11.92
634.102	12.92
634.224	12.92
634.346	2.92
634.468	22.92
634.59	25.92
634.712	20.92
634.834	13.92
634.956	-3.08
635.078	11.92
635.201	-4.08
635.323	16.92
635.445	2.92
635.567	11.92
635.689	10.92
635.811	6.92
635.933	9.92
636.055	23.92
636.177	10.92
636.299	17.92
636.421	13.92
636.544	-9.08
636.666	4.92
636.788	19.92
636.91	34.92
637.032	28.92
637.154	27.92
637.276	37.92
637.398	27.92
637.52	34.92
637.642	8.92
637.764	14.92
637.887	9.92
638.009	2.92
638.131	11.92
638.253	14.92
638.375	0.92
638.497	20.92
638.619	15.92
638.741	20.92
638.863	-6.08
638.985	12.92
639.107	18.92
639.23	9.92
639.352	22.92
639.474	22.92
639.596	11.92
639.718	13.92
639.84	29.92
639.962	8.92
640.084	27.92
640.206	18.92
640.328	-1.08
640.45	23.92
640.573	15.92
640.695	7.92
640.817	16.92
640.939	20.92
641.061	6.92
641.183	5.92
641.305	0.92
641.427	2.92
641.549	11.92
641.671	24.92
641.793	14.92
641.915	26.92
642.038	24.92
642.16	14.92
642.282	-7.08
642.404	9.92
642.526	11.92
642.648	19.92
642.77	30.92
642.892	10.92
643.014	26.92
643.136	21.92
643.258	30.92
643.381	36.92
643.503	37.92
643.625	11.92
643.747	7.92
643.869	13.92
643.991	20.92
644.113	18.92
644.235	7.92
644.357	22.92
644.479	29.92
644.601	22.92
644.723	7.92
644.846	10.92
644.968	3.92
645.09	-3.08
645.212	26.92
645.334	15.92
645.456	40.92
645.578	39.92
645.7	8.92
645.822	18.92
645.944	13.92
646.066	26.92
646.188	20.92
646.311	23.92
646.433	2.92
646.555	30.92
646.677	26.92
646.799	17.92
646.921	18.92
647.043	28.92
647.165	0.92
647.287	9.92
647.409	20.92
647.531	26.92
647.654	-9.08
647.776	9.92
647.898	25.92
648.02	11.92
648.142	8.92
648.264	24.92
648.386	11.92
648.508	-3.08
648.63	11.92
648.752	15.92
648.874	12.92
648.997	10.92
649.119	11.92
649.241	14.92
649.363	30.92
649.485	7.92
649.607	3.92
649.729	17.92
649.851	7.92
649.973	2.92
650.095	12.92
650.217	-8.08
650.34	15.92
650.462	14.92
650.584	10.92
650.706	24.92
650.828	27.92
650.95	11.92
651.072	36.92
651.194	10.92
651.316	13.92
651.438	13.92
651.56	7.92
651.683	21.92
651.805	15.92
651.927	18.92
652.049	19.92
652.171	-5.08
652.293	3.92
652.415	4.92
652.537	-9.08
652.659	12.92
652.781	20.92
652.903	34.92
653.026	23.92
653.148	1.92
653.27	22.92
653.392	14.92
653.514	6.92
653.636	8.92
653.758	1.92
653.88	16.92
654.002	9.92
654.124	14.92
654.247	11.92
654.369	25.92
654.491	2.92
654.613	11.92
654.735	6.92
654.857	20.92
654.979	10.92
655.101	22.92
655.223	40.92
655.345	24.92
655.468	29.92
655.59	15.92
655.712	18.92
655.834	2.92
655.956	16.92
656.078	15.92
656.2	16.92
656.322	4.92
656.444	-9.08
656.566	29.92
656.689	12.92
656.811	18.92
656.933	28.92
657.055	2.92
657.177	31.92
657.299	6.92
657.421	-1.08
657.543	18.92
657.665	7.92
657.787	15.92
657.91	18.92
658.032	-2.08
658.154	24.92
658.276	11.92
658.398	-2.08
658.52	14.92
658.642	12.92
658.764	17.92
658.886	-8.08
659.009	15.92
659.131	14.92
659.253	19.92
659.375	13.92
659.497	17.92
659.619	26.92
659.741	3.92
659.863	4.92
659.985	-12.08
660.108	9.92
660.23	0.92
660.352	20.92
660.474	15.92
660.596	34.92
660.718	22.92
660.84	17.92
660.962	14.92
661.084	-2.08
661.207	-7.08
661.329	17.92
661.451	18.92
661.573	7.92
661.695	15.92
661.817	18.92
661.939	47.92
662.061	40.92
662.184	10.92
662.306	23.92
662.428	19.92
662.55	32.92
662.672	11.92
662.794	22.92
662.916	6.92
663.038	10.92
663.161	26.92
663.283	33.92
663.405	30.92
663.527	11.92
663.649	17.92
663.771	19.92
663.893	8.92
664.015	21.92
664.138	0.92
664.26	1.92
664.382	15.92
664.504	9.92
664.626	3.92
664.748	12.92
664.87	-2.08
664.992	-0.08
665.115	13.92
665.237	-1.08
665.359	-10.08
665.481	8.92
665.603	22.92
665.725	12.92
665.847	1.92
665.97	8.92
666.092	1.92
666.214	3.92
666.336	13.92
666.458	10.92
666.58	17.92
666.702	7.92
666.825	14.92
666.947	3.92
667.069	11.92
667.191	8.92
667.313	31.92
667.435	4.92
667.557	11.92
667.68	-2.08
667.802	15.92
667.924	8.92
668.046	14.92
668.168	24.92
668.29	22.92
668.412	10.92
668.535	9.92
668.657	15.92
668.779	11.92
668.901	11.92
669.023	22.92
669.145	14.92
669.267	1.92
669.39	14.92
669.512	6.92
669.634	10.92
669.756	15.92
669.878	14.92
670	16.92
670.123	4.92
670.245	41.92
670.367	23.92
670.489	16.92
670.611	6.92
670.733	10.92
670.856	4.92
670.978	8.92
671.1	24.92
671.222	14.92
671.344	6.92
671.466	-14.08
671.589	6.92
671.711	12.92
671.833	13.92
671.955	10.92
672.077	11.92
672.199	20.92
672.322	38.92
672.444	0.92
672.566	21.92
672.688	9.92
672.81	32.92
672.932	0.92
673.055	11.92
673.177	1.92
673.299	11.92
673.421	14.92
673.543	3.92
673.665	26.92
673.788	20.92
673.91	14.92
674.032	11.92
674.154	10.92
674.276	16.92
674.399	2.92
674.521	10.92
674.643	-1.08
674.765	-12.08
674.887	6.92
675.009	-0.08
675.132	6.92
675.254	13.92
675.376	11.92
675.498	11.92
675.62	11.92
675.743	0.92
675.865	10.92
675.987	-6.08
676.109	13.92
676.231	-3.08
676.354	29.92
676.476	13.92
676.598	15.92
676.72	0.92
676.842	25.92
676.965	20.92
677.087	3.92
677.209	27.92
677.331	13.92
677.453	14.92
677.576	2.92
677.698	18.92
677.82	15.92
677.942	-2.08
678.064	6.92
678.187	12.92
678.309	20.92
678.431	11.92
678.553	33.92
678.675	34.92
678.798	26.92
678.92	23.92
679.042	9.92
679.164	4.92
679.286	11.92
679.409	0.92
679.531	-8.08
679.653	9.92
679.775	-1.08
679.898	8.92
680.02	2.92
680.142	4.92
680.264	11.92
680.386	6.92
680.509	12.92
680.631	4.92
680.753	13.92
680.875	9.92
680.998	5.92
681.12	-1.08
681.242	22.92
681.364	6.92
681.486	20.92
681.609	7.92
681.731	-8.08
681.853	-11.08
681.975	1.92
682.098	22.92
682.22	34.92
682.342	10.92
682.464	21.92
682.587	14.92
682.709	12.92
682.831	8.92
682.953	6.92
683.076	4.92
683.198	15.92
683.32	23.92
683.442	12.92
683.565	25.92
683.687	-1.08
683.809	12.92
683.931	-2.08
684.054	0.92
684.176	12.92
684.298	18.92
684.42	-5.08
684.543	3.92
684.665	25.92
684.787	-0.08
684.909	8.92
685.032	2.92
685.154	2.92
685.276	16.92
685.398	21.92
685.521	-9.08
685.643	23.92
685.765	26.92
685.887	18.92
686.01	16.92
686.132	16.92
686.254	11.92
686.377	11.92
686.499	7.92
686.621	19.92
686.743	18.92
686.866	8.92
686.988	29.92
687.11	18.92
687.232	4.92
687.355	-15.08
687.477	9.92
687.599	30.92
687.722	9.92
687.844	7.92
687.966	19.92
688.088	9.92
688.211	19.92
688.333	12.92
688.455	19.92
688.578	27.92
688.7	19.92
688.822	14.92
688.944	10.92
689.067	44.92
689.189	6.92
689.311	-5.08
689.434	4.92
689.556	19.92
689.678	22.92
689.801	17.92
689.923	36.92
690.045	38.92
690.167	34.92
690.29	17.92
690.412	6.92
690.534	13.92
690.657	2.92
690.779	27.92
690.901	24.92
691.024	6.92
691.146	-2.08
691.268	1.92
691.391	31.92
691.513	29.92
691.635	20.92
691.758	26.92
691.88	31.92
692.002	9.92
692.125	14.92
692.247	-5.08
692.369	-6.08
692.492	-2.08
692.614	10.92
692.736	15.92
692.859	3.92
692.981	-1.08
693.103	-1.08
693.226	16.92
693.348	26.92
693.47	21.92
693.593	35.92
693.715	36.92
693.837	41.92
693.96	16.92
694.082	11.92
694.204	27.92
694.327	18.92
694.449	4.92
694.571	19.92
694.694	33.92
694.816	28.92
694.938	-6.08
695.061	10.92
695.183	13.92
695.305	-3.08
695.428	9.92
695.55	24.92
695.672	19.92
695.795	8.92
695.917	13.92
696.04	2.92
696.162	17.92
696.284	1.92
696.407	17.92
696.529	11.92
696.651	29.92
696.774	3.92
696.896	20.92
697.019	32.92
697.141	1.92
697.263	18.92
697.386	3.92
697.508	-1.08
697.63	-5.08
697.753	13.92
697.875	14.92
697.998	7.92
698.12	23.92
698.242	20.92
698.365	24.92
698.487	15.92
698.61	12.92
698.732	15.92
698.854	26.92
698.977	12.92
699.099	7.92
699.221	20.92
699.344	11.92
699.466	2.92
699.589	6.92
699.711	-10.08
699.834	26.92
699.956	4.92
700.078	19.92
700.201	-0.08
700.323	11.92
700.446	14.92
700.568	18.92
700.69	22.92
700.813	12.92
700.935	21.92
701.058	20.92
701.18	22.92
701.302	20.92
701.425	1.92
701.547	24.92
701.67	22.92
701.792	18.92
701.915	8.92
702.037	6.92
702.159	19.92
702.282	30.92
702.404	14.92
702.527	17.92
702.649	34.92
702.772	23.92
702.894	16.92
703.017	19.92
703.139	19.92
703.261	33.92
703.384	15.92
703.506	-7.08
703.629	9.92
703.751	11.92
703.874	15.92
703.996	2.92
704.119	-8.08
704.241	19.92
704.364	-3.08
704.486	11.92
704.608	19.92
704.731	0.92
704.853	19.92
704.976	-10.08
705.098	24.92
705.221	12.92
705.343	19.92
705.466	25.92
705.588	38.92
705.711	14.92
705.833	26.92
705.956	7.92
706.078	19.92
706.201	8.92
706.323	15.92
706.446	0.92
