Data from LowRes_mercury_15_20_11_07_2024_HR4C61881__63__15-23-38-570.txt Node

Date: Thu Nov 07 15:23:38 EST 2024
User: crc00042
Spectrometer: HR4C6188
Trigger mode: 4
Integration Time (sec): 1.000000E-1
Scans to average: 1
Electric dark correction enabled: true
Nonlinearity correction enabled: false
Boxcar width: 0
XAxis mode: Wavelengths
Number of Pixels in Spectrum: 3648
>>>>>Begin Spectral Data<<<<<
245.66	-55.31
245.797	-55.31
245.934	-55.31
246.071	-67.31
246.208	11.69
246.344	0.69
246.481	-9.31
246.618	-28.31
246.755	19.69
246.892	8.69
247.029	11.69
247.165	-10.31
247.302	9.69
247.439	11.69
247.576	-8.31
247.713	-19.31
247.849	16.69
247.986	-3.31
248.123	-4.31
248.26	-19.31
248.396	2.69
248.533	-5.31
248.67	-0.31
248.806	2.69
248.943	-16.31
249.08	-4.31
249.216	7.69
249.353	-8.31
249.49	-9.31
249.626	-19.31
249.763	5.69
249.9	-5.31
250.036	12.69
250.173	2.69
250.309	-5.31
250.446	1.69
250.582	9.69
250.719	-3.31
250.856	-6.31
250.992	-23.31
251.129	-1.31
251.265	5.69
251.402	-6.31
251.538	-0.31
251.675	-14.31
251.811	2.69
251.948	14.69
252.084	17.69
252.221	-1.31
252.357	-6.31
252.493	15.69
252.63	-0.31
252.766	6.69
252.903	11.69
253.039	1.69
253.175	-16.31
253.312	19.69
253.448	12.69
253.585	-1.31
253.721	22.69
253.857	11.69
253.994	17.69
254.13	5.69
254.266	1.69
254.403	1.69
254.539	9.69
254.675	35.69
254.811	6.69
254.948	1.69
255.084	-11.31
255.22	-12.31
255.356	9.69
255.493	17.69
255.629	-7.31
255.765	11.69
255.901	-0.31
256.037	-0.31
256.174	7.69
256.31	-18.31
256.446	-15.31
256.582	18.69
256.718	9.69
256.854	16.69
256.991	1.69
257.127	18.69
257.263	-12.31
257.399	3.69
257.535	-6.31
257.671	11.69
257.807	-4.31
257.943	-0.31
258.079	2.69
258.215	14.69
258.351	2.69
258.487	-4.31
258.623	-13.31
258.759	-5.31
258.895	-5.31
259.031	1.69
259.167	-29.31
259.303	22.69
259.439	17.69
259.575	-0.31
259.711	-1.31
259.847	6.69
259.983	5.69
260.119	2.69
260.255	-0.31
260.391	15.69
260.527	8.69
260.663	13.69
260.799	7.69
260.934	-2.31
261.07	0.69
261.206	-5.31
261.342	-8.31
261.478	23.69
261.614	-2.31
261.749	1.69
261.885	-1.31
262.021	-5.31
262.157	-3.31
262.293	-1.31
262.428	-20.31
262.564	-10.31
262.7	10.69
262.836	1.69
262.971	33.69
263.107	27.69
263.243	31.69
263.378	8.69
263.514	-0.31
263.65	12.69
263.785	-3.31
263.921	-3.31
264.057	9.69
264.192	2.69
264.328	13.69
264.464	-7.31
264.599	14.69
264.735	16.69
264.871	3.69
265.006	1.69
265.142	2.69
265.277	2.69
265.413	18.69
265.548	7.69
265.684	13.69
265.819	-3.31
265.955	-18.31
266.091	-4.31
266.226	-15.31
266.362	-9.31
266.497	3.69
266.633	-1.31
266.768	-7.31
266.903	11.69
267.039	10.69
267.174	20.69
267.31	-9.31
267.445	5.69
267.581	3.69
267.716	10.69
267.851	1.69
267.987	18.69
268.122	21.69
268.258	0.69
268.393	2.69
268.528	34.69
268.664	-4.31
268.799	-13.31
268.934	-0.31
269.07	12.69
269.205	7.69
269.34	35.69
269.476	15.69
269.611	-6.31
269.746	24.69
269.881	6.69
270.017	3.69
270.152	6.69
270.287	-10.31
270.422	8.69
270.558	8.69
270.693	3.69
270.828	-16.31
270.963	-4.31
271.098	2.69
271.234	-7.31
271.369	12.69
271.504	4.69
271.639	-5.31
271.774	-2.31
271.909	-4.31
272.045	-0.31
272.18	14.69
272.315	5.69
272.45	10.69
272.585	-13.31
272.72	-0.31
272.855	22.69
272.99	8.69
273.125	9.69
273.26	-10.31
273.395	-0.31
273.53	-8.31
273.665	4.69
273.8	6.69
273.935	-1.31
274.07	-10.31
274.205	17.69
274.34	12.69
274.475	-6.31
274.61	8.69
274.745	7.69
274.88	30.69
275.015	-3.31
275.15	14.69
275.285	10.69
275.42	-3.31
275.555	6.69
275.69	9.69
275.825	-1.31
275.959	-1.31
276.094	-2.31
276.229	-2.31
276.364	-11.31
276.499	-1.31
276.634	0.69
276.768	4.69
276.903	5.69
277.038	13.69
277.173	21.69
277.308	2.69
277.442	-7.31
277.577	-0.31
277.712	-8.31
277.847	2.69
277.981	11.69
278.116	-11.31
278.251	-9.31
278.386	13.69
278.52	20.69
278.655	11.69
278.79	22.69
278.924	14.69
279.059	1.69
279.194	-17.31
279.328	19.69
279.463	10.69
279.598	19.69
279.732	17.69
279.867	0.69
280.001	9.69
280.136	8.69
280.271	-1.31
280.405	23.69
280.54	30.69
280.674	0.69
280.809	17.69
280.943	-0.31
281.078	21.69
281.213	27.69
281.347	6.69
281.482	22.69
281.616	-1.31
281.751	0.69
281.885	-31.31
282.02	5.69
282.154	7.69
282.288	4.69
282.423	-22.31
282.557	-2.31
282.692	5.69
282.826	20.69
282.961	5.69
283.095	0.69
283.229	-2.31
283.364	0.69
283.498	13.69
283.633	-2.31
283.767	-5.31
283.901	6.69
284.036	-1.31
284.17	-3.31
284.304	6.69
284.439	10.69
284.573	5.69
284.707	10.69
284.842	1.69
284.976	-4.31
285.11	-10.31
285.244	-7.31
285.379	35.69
285.513	-21.31
285.647	-1.31
285.781	10.69
285.916	-1.31
286.05	-16.31
286.184	28.69
286.318	5.69
286.453	-11.31
286.587	-7.31
286.721	-9.31
286.855	-2.31
286.989	14.69
287.123	-14.31
287.258	-18.31
287.392	-10.31
287.526	6.69
287.66	4.69
287.794	-17.31
287.928	-6.31
288.062	2.69
288.196	17.69
288.33	12.69
288.464	24.69
288.598	8.69
288.733	-4.31
288.867	10.69
289.001	6.69
289.135	0.69
289.269	-8.31
289.403	-3.31
289.537	7.69
289.671	5.69
289.805	-7.31
289.939	18.69
290.073	10.69
290.207	19.69
290.34	5.69
290.474	28.69
290.608	18.69
290.742	1.69
290.876	-7.31
291.01	-10.31
291.144	21.69
291.278	21.69
291.412	-2.31
291.546	-4.31
291.679	-5.31
291.813	12.69
291.947	0.69
292.081	-2.31
292.215	-13.31
292.349	10.69
292.482	5.69
292.616	13.69
292.75	9.69
292.884	-0.31
293.018	-17.31
293.151	-40.31
293.285	15.69
293.419	-0.31
293.553	0.69
293.686	-16.31
293.82	10.69
293.954	32.69
294.088	24.69
294.221	11.69
294.355	-0.31
294.489	12.69
294.622	13.69
294.756	7.69
294.89	11.69
295.023	16.69
295.157	17.69
295.291	-2.31
295.424	15.69
295.558	-1.31
295.691	2.69
295.825	8.69
295.959	8.69
296.092	8.69
296.226	4.69
296.359	3.69
296.493	-0.31
296.627	4.69
296.76	12.69
296.894	14.69
297.027	11.69
297.161	1.69
297.294	-13.31
297.428	-5.31
297.561	34.69
297.695	-6.31
297.828	-10.31
297.962	-8.31
298.095	-15.31
298.229	8.69
298.362	-9.31
298.495	-1.31
298.629	-4.31
298.762	11.69
298.896	4.69
299.029	8.69
299.162	2.69
299.296	9.69
299.429	0.69
299.563	1.69
299.696	-1.31
299.829	9.69
299.963	10.69
300.096	30.69
300.229	9.69
300.363	9.69
300.496	1.69
300.629	-25.31
300.763	4.69
300.896	6.69
301.029	7.69
301.162	-9.31
301.296	-7.31
301.429	12.69
301.562	-17.31
301.695	26.69
301.829	-9.31
301.962	5.69
302.095	1.69
302.228	-14.31
302.362	-3.31
302.495	2.69
302.628	2.69
302.761	1.69
302.894	8.69
303.027	31.69
303.161	12.69
303.294	-9.31
303.427	-3.31
303.56	6.69
303.693	18.69
303.826	4.69
303.959	7.69
304.092	-0.31
304.225	-17.31
304.359	0.69
304.492	-12.31
304.625	-14.31
304.758	-7.31
304.891	-19.31
305.024	-5.31
305.157	-27.31
305.29	-14.31
305.423	-13.31
305.556	6.69
305.689	22.69
305.822	-4.31
305.955	-2.31
306.088	-3.31
306.221	0.69
306.354	-6.31
306.487	-4.31
306.62	5.69
306.752	-2.31
306.885	-2.31
307.018	0.69
307.151	-6.31
307.284	9.69
307.417	-5.31
307.55	-0.31
307.683	-11.31
307.816	14.69
307.948	-2.31
308.081	18.69
308.214	13.69
308.347	3.69
308.48	-8.31
308.613	-9.31
308.745	7.69
308.878	1.69
309.011	-2.31
309.144	15.69
309.277	16.69
309.409	12.69
309.542	-7.31
309.675	10.69
309.808	-5.31
309.94	26.69
310.073	-19.31
310.206	-7.31
310.339	24.69
310.471	-6.31
310.604	12.69
310.737	-0.31
310.869	-9.31
311.002	3.69
311.135	-18.31
311.267	-3.31
311.4	3.69
311.533	9.69
311.665	-17.31
311.798	-3.31
311.93	27.69
312.063	33.69
312.196	39.69
312.328	80.69
312.461	57.69
312.593	35.69
312.726	70.69
312.859	95.69
312.991	177.69
313.124	51.69
313.256	-8.31
313.389	1.69
313.521	17.69
313.654	-2.31
313.786	-6.31
313.919	5.69
314.051	17.69
314.184	20.69
314.316	6.69
314.449	-13.31
314.581	-9.31
314.714	9.69
314.846	0.69
314.978	-15.31
315.111	-6.31
315.243	11.69
315.376	11.69
315.508	19.69
315.641	-0.31
315.773	13.69
315.905	15.69
316.038	-6.31
316.17	4.69
316.302	-4.31
316.435	26.69
316.567	2.69
316.699	24.69
316.832	11.69
316.964	2.69
317.096	-4.31
317.229	-7.31
317.361	-25.31
317.493	-1.31
317.625	-9.31
317.758	20.69
317.89	10.69
318.022	11.69
318.155	-7.31
318.287	23.69
318.419	14.69
318.551	20.69
318.683	17.69
318.816	0.69
318.948	-6.31
319.08	5.69
319.212	-2.31
319.344	4.69
319.477	-5.31
319.609	12.69
319.741	27.69
319.873	3.69
320.005	21.69
320.137	-1.31
320.269	20.69
320.401	4.69
320.534	-1.31
320.666	-7.31
320.798	-18.31
320.93	24.69
321.062	-4.31
321.194	1.69
321.326	-2.31
321.458	-0.31
321.59	5.69
321.722	-5.31
321.854	-3.31
321.986	-0.31
322.118	13.69
322.25	-9.31
322.382	11.69
322.514	2.69
322.646	-4.31
322.778	9.69
322.91	-8.31
323.042	-3.31
323.174	8.69
323.306	-14.31
323.438	-13.31
323.57	1.69
323.702	2.69
323.834	-9.31
323.966	-3.31
324.097	14.69
324.229	19.69
324.361	21.69
324.493	5.69
324.625	-7.31
324.757	9.69
324.889	18.69
325.021	5.69
325.152	15.69
325.284	28.69
325.416	-7.31
325.548	16.69
325.68	-5.31
325.811	21.69
325.943	6.69
326.075	-9.31
326.207	17.69
326.339	23.69
326.47	-1.31
326.602	-1.31
326.734	3.69
326.866	8.69
326.997	-13.31
327.129	19.69
327.261	-5.31
327.392	4.69
327.524	6.69
327.656	11.69
327.787	12.69
327.919	19.69
328.051	15.69
328.182	39.69
328.314	26.69
328.446	-3.31
328.577	18.69
328.709	20.69
328.841	-5.31
328.972	-6.31
329.104	-10.31
329.235	2.69
329.367	-8.31
329.499	-9.31
329.63	12.69
329.762	-2.31
329.893	14.69
330.025	5.69
330.156	-7.31
330.288	2.69
330.419	13.69
330.551	7.69
330.683	4.69
330.814	-5.31
330.946	14.69
331.077	-15.31
331.208	-2.31
331.34	26.69
331.471	14.69
331.603	-9.31
331.734	0.69
331.866	23.69
331.997	9.69
332.129	-10.31
332.26	-3.31
332.392	13.69
332.523	7.69
332.654	4.69
332.786	-7.31
332.917	2.69
333.048	25.69
333.18	24.69
333.311	-7.31
333.443	6.69
333.574	12.69
333.705	38.69
333.837	34.69
333.968	110.69
334.099	225.69
334.231	209.69
334.362	69.69
334.493	29.69
334.624	17.69
334.756	21.69
334.887	12.69
335.018	5.69
335.15	20.69
335.281	9.69
335.412	28.69
335.543	-8.31
335.675	14.69
335.806	9.69
335.937	-4.31
336.068	19.69
336.199	19.69
336.331	-17.31
336.462	31.69
336.593	18.69
336.724	-8.31
336.855	6.69
336.986	25.69
337.118	11.69
337.249	23.69
337.38	22.69
337.511	23.69
337.642	23.69
337.773	15.69
337.904	17.69
338.035	20.69
338.166	8.69
338.298	29.69
338.429	16.69
338.56	19.69
338.691	38.69
338.822	17.69
338.953	14.69
339.084	32.69
339.215	21.69
339.346	13.69
339.477	1.69
339.608	12.69
339.739	27.69
339.87	12.69
340.001	10.69
340.132	12.69
340.263	16.69
340.394	11.69
340.525	27.69
340.656	-6.31
340.787	-4.31
340.918	42.69
341.049	10.69
341.179	8.69
341.31	11.69
341.441	41.69
341.572	10.69
341.703	16.69
341.834	-6.31
341.965	-0.31
342.096	5.69
342.227	6.69
342.357	12.69
342.488	16.69
342.619	28.69
342.75	24.69
342.881	3.69
343.012	45.69
343.142	31.69
343.273	5.69
343.404	21.69
343.535	52.69
343.666	36.69
343.796	30.69
343.927	43.69
344.058	35.69
344.189	34.69
344.319	26.69
344.45	25.69
344.581	24.69
344.712	2.69
344.842	17.69
344.973	16.69
345.104	33.69
345.234	23.69
345.365	10.69
345.496	31.69
345.626	44.69
345.757	25.69
345.888	11.69
346.018	33.69
346.149	21.69
346.28	38.69
346.41	11.69
346.541	23.69
346.672	19.69
346.802	43.69
346.933	21.69
347.063	24.69
347.194	25.69
347.325	24.69
347.455	44.69
347.586	46.69
347.716	28.69
347.847	37.69
347.977	49.69
348.108	49.69
348.238	37.69
348.369	25.69
348.499	45.69
348.63	29.69
348.76	49.69
348.891	43.69
349.021	61.69
349.152	44.69
349.282	52.69
349.413	44.69
349.543	41.69
349.674	44.69
349.804	38.69
349.935	18.69
350.065	37.69
350.196	37.69
350.326	32.69
350.456	28.69
350.587	51.69
350.717	34.69
350.848	23.69
350.978	39.69
351.108	12.69
351.239	47.69
351.369	12.69
351.499	14.69
351.63	33.69
351.76	10.69
351.89	15.69
352.021	18.69
352.151	27.69
352.281	18.69
352.412	39.69
352.542	20.69
352.672	29.69
352.803	27.69
352.933	32.69
353.063	24.69
353.193	31.69
353.324	15.69
353.454	34.69
353.584	48.69
353.714	17.69
353.845	40.69
353.975	22.69
354.105	19.69
354.235	13.69
354.365	23.69
354.496	21.69
354.626	30.69
354.756	29.69
354.886	-2.31
355.016	24.69
355.146	12.69
355.277	25.69
355.407	28.69
355.537	37.69
355.667	24.69
355.797	22.69
355.927	17.69
356.057	17.69
356.187	14.69
356.318	26.69
356.448	21.69
356.578	38.69
356.708	52.69
356.838	42.69
356.968	26.69
357.098	47.69
357.228	37.69
357.358	23.69
357.488	30.69
357.618	36.69
357.748	27.69
357.878	12.69
358.008	29.69
358.138	19.69
358.268	21.69
358.398	42.69
358.528	20.69
358.658	31.69
358.788	33.69
358.918	33.69
359.048	29.69
359.178	30.69
359.308	29.69
359.438	40.69
359.568	44.69
359.698	31.69
359.827	21.69
359.957	33.69
360.087	28.69
360.217	20.69
360.347	35.69
360.477	31.69
360.607	17.69
360.737	36.69
360.866	33.69
360.996	26.69
361.126	18.69
361.256	41.69
361.386	55.69
361.516	31.69
361.645	34.69
361.775	39.69
361.905	12.69
362.035	44.69
362.165	43.69
362.294	32.69
362.424	49.69
362.554	58.69
362.684	36.69
362.813	42.69
362.943	70.69
363.073	40.69
363.203	55.69
363.332	70.69
363.462	53.69
363.592	95.69
363.721	115.69
363.851	153.69
363.981	228.69
364.111	236.69
364.24	327.69
364.37	491.69
364.5	858.69
364.629	1794.69
364.759	3789.69
364.888	6166.69
365.018	9254.69
365.148	14754.69
365.277	12790.69
365.407	4688.69
365.537	3071.69
365.666	4026.69
365.796	1828.69
365.925	773.69
366.055	764.69
366.184	1022.69
366.314	1352.69
366.444	2433.69
366.573	2132.69
366.703	662.69
366.832	212.69
366.962	114.69
367.091	92.69
367.221	66.69
367.35	49.69
367.48	85.69
367.609	65.69
367.739	45.69
367.868	33.69
367.998	50.69
368.127	65.69
368.257	49.69
368.386	59.69
368.516	34.69
368.645	23.69
368.775	39.69
368.904	30.69
369.033	23.69
369.163	35.69
369.292	33.69
369.422	39.69
369.551	41.69
369.68	35.69
369.81	36.69
369.939	35.69
370.069	42.69
370.198	53.69
370.327	40.69
370.457	33.69
370.586	31.69
370.715	42.69
370.845	17.69
370.974	47.69
371.103	61.69
371.233	49.69
371.362	40.69
371.491	25.69
371.621	49.69
371.75	33.69
371.879	43.69
372.008	45.69
372.138	42.69
372.267	67.69
372.396	39.69
372.525	29.69
372.655	22.69
372.784	26.69
372.913	27.69
373.042	20.69
373.172	44.69
373.301	1.69
373.43	-7.31
373.559	12.69
373.688	14.69
373.818	26.69
373.947	24.69
374.076	21.69
374.205	16.69
374.334	3.69
374.463	8.69
374.593	7.69
374.722	30.69
374.851	26.69
374.98	30.69
375.109	-1.31
375.238	21.69
375.367	49.69
375.496	12.69
375.625	13.69
375.755	25.69
375.884	34.69
376.013	16.69
376.142	-3.31
376.271	14.69
376.4	23.69
376.529	2.69
376.658	21.69
376.787	9.69
376.916	14.69
377.045	24.69
377.174	22.69
377.303	14.69
377.432	40.69
377.561	43.69
377.69	33.69
377.819	33.69
377.948	20.69
378.077	14.69
378.206	17.69
378.335	18.69
378.464	4.69
378.593	38.69
378.722	17.69
378.851	14.69
378.98	36.69
379.108	-8.31
379.237	8.69
379.366	28.69
379.495	27.69
379.624	19.69
379.753	11.69
379.882	9.69
380.011	15.69
380.14	-0.31
380.268	26.69
380.397	7.69
380.526	43.69
380.655	18.69
380.784	-14.31
380.913	6.69
381.041	17.69
381.17	10.69
381.299	13.69
381.428	30.69
381.557	22.69
381.685	18.69
381.814	24.69
381.943	10.69
382.072	6.69
382.2	23.69
382.329	21.69
382.458	22.69
382.587	21.69
382.715	20.69
382.844	22.69
382.973	25.69
383.102	17.69
383.23	12.69
383.359	3.69
383.488	43.69
383.616	13.69
383.745	8.69
383.874	16.69
384.003	17.69
384.131	21.69
384.26	16.69
384.389	24.69
384.517	10.69
384.646	22.69
384.774	18.69
384.903	28.69
385.032	23.69
385.16	22.69
385.289	7.69
385.418	10.69
385.546	17.69
385.675	33.69
385.803	27.69
385.932	-0.31
386.06	14.69
386.189	5.69
386.318	30.69
386.446	34.69
386.575	8.69
386.703	29.69
386.832	29.69
386.96	9.69
387.089	40.69
387.217	22.69
387.346	18.69
387.474	19.69
387.603	31.69
387.731	21.69
387.86	29.69
387.988	32.69
388.117	34.69
388.245	26.69
388.374	13.69
388.502	32.69
388.631	19.69
388.759	23.69
388.888	28.69
389.016	18.69
389.144	26.69
389.273	25.69
389.401	8.69
389.53	7.69
389.658	10.69
389.786	8.69
389.915	18.69
390.043	12.69
390.172	45.69
390.3	46.69
390.428	41.69
390.557	40.69
390.685	50.69
390.813	38.69
390.942	26.69
391.07	29.69
391.198	33.69
391.327	15.69
391.455	10.69
391.583	51.69
391.712	24.69
391.84	21.69
391.968	20.69
392.096	22.69
392.225	26.69
392.353	33.69
392.481	15.69
392.609	40.69
392.738	27.69
392.866	34.69
392.994	17.69
393.122	40.69
393.251	26.69
393.379	22.69
393.507	-3.31
393.635	26.69
393.764	21.69
393.892	42.69
394.02	19.69
394.148	11.69
394.276	30.69
394.404	52.69
394.533	21.69
394.661	22.69
394.789	36.69
394.917	27.69
395.045	20.69
395.173	28.69
395.302	30.69
395.43	26.69
395.558	40.69
395.686	33.69
395.814	24.69
395.942	36.69
396.07	37.69
396.198	44.69
396.326	41.69
396.454	28.69
396.582	52.69
396.711	42.69
396.839	29.69
396.967	30.69
397.095	3.69
397.223	23.69
397.351	54.69
397.479	50.69
397.607	37.69
397.735	69.69
397.863	45.69
397.991	59.69
398.119	45.69
398.247	53.69
398.375	47.69
398.503	37.69
398.631	61.69
398.759	63.69
398.887	59.69
399.015	31.69
399.143	58.69
399.271	71.69
399.399	65.69
399.526	73.69
399.654	89.69
399.782	79.69
399.91	102.69
400.038	119.69
400.166	93.69
400.294	85.69
400.422	84.69
400.55	105.69
400.678	107.69
400.805	107.69
400.933	117.69
401.061	124.69
401.189	133.69
401.317	135.69
401.445	112.69
401.573	77.69
401.7	60.69
401.828	64.69
401.956	48.69
402.084	48.69
402.212	42.69
402.34	32.69
402.467	27.69
402.595	23.69
402.723	35.69
402.851	75.69
402.978	50.69
403.106	64.69
403.234	85.69
403.362	105.69
403.489	124.69
403.617	158.69
403.745	180.69
403.873	301.69
404	555.69
404.128	1415.69
404.256	3812.69
404.384	4962.69
404.511	5384.69
404.639	7101.69
404.767	11253.69
404.894	14534.69
405.022	4832.69
405.15	1290.69
405.277	422.69
405.405	221.69
405.533	112.69
405.66	98.69
405.788	53.69
405.916	71.69
406.043	51.69
406.171	60.69
406.299	68.69
406.426	62.69
406.554	46.69
406.681	76.69
406.809	48.69
406.937	48.69
407.064	54.69
407.192	141.69
407.319	315.69
407.447	527.69
407.574	512.69
407.702	600.69
407.83	819.69
407.957	1530.69
408.085	927.69
408.212	274.69
408.34	93.69
408.467	56.69
408.595	38.69
408.722	45.69
408.85	41.69
408.977	34.69
409.105	35.69
409.232	43.69
409.36	39.69
409.487	32.69
409.615	30.69
409.742	42.69
409.87	46.69
409.997	44.69
410.125	27.69
410.252	43.69
410.379	32.69
410.507	49.69
410.634	30.69
410.762	23.69
410.889	33.69
411.017	35.69
411.144	25.69
411.271	26.69
411.399	23.69
411.526	30.69
411.653	34.69
411.781	43.69
411.908	37.69
412.036	17.69
412.163	41.69
412.29	49.69
412.418	52.69
412.545	46.69
412.672	13.69
412.8	54.69
412.927	41.69
413.054	53.69
413.182	45.69
413.309	17.69
413.436	32.69
413.564	34.69
413.691	38.69
413.818	45.69
413.945	25.69
414.073	27.69
414.2	17.69
414.327	36.69
414.454	32.69
414.582	27.69
414.709	-1.31
414.836	5.69
414.963	29.69
415.091	32.69
415.218	34.69
415.345	28.69
415.472	33.69
415.6	24.69
415.727	14.69
415.854	16.69
415.981	24.69
416.108	17.69
416.236	15.69
416.363	15.69
416.49	9.69
416.617	23.69
416.744	28.69
416.871	38.69
416.998	24.69
417.126	44.69
417.253	20.69
417.38	25.69
417.507	30.69
417.634	18.69
417.761	38.69
417.888	29.69
418.015	46.69
418.143	32.69
418.27	53.69
418.397	27.69
418.524	27.69
418.651	26.69
418.778	40.69
418.905	57.69
419.032	42.69
419.159	38.69
419.286	58.69
419.413	57.69
419.54	46.69
419.667	27.69
419.794	22.69
419.921	41.69
420.048	50.69
420.175	58.69
420.302	41.69
420.429	60.69
420.556	33.69
420.683	39.69
420.81	62.69
420.937	84.69
421.064	70.69
421.191	46.69
421.318	71.69
421.445	76.69
421.572	49.69
421.699	50.69
421.826	36.69
421.953	26.69
422.08	17.69
422.207	4.69
422.334	25.69
422.461	40.69
422.588	20.69
422.714	26.69
422.841	34.69
422.968	35.69
423.095	24.69
423.222	18.69
423.349	20.69
423.476	29.69
423.603	18.69
423.729	8.69
423.856	10.69
423.983	30.69
424.11	0.69
424.237	24.69
424.364	26.69
424.491	25.69
424.617	26.69
424.744	17.69
424.871	26.69
424.998	20.69
425.125	14.69
425.251	32.69
425.378	10.69
425.505	14.69
425.632	26.69
425.758	18.69
425.885	22.69
426.012	34.69
426.139	44.69
426.266	27.69
426.392	30.69
426.519	20.69
426.646	12.69
426.772	30.69
426.899	14.69
427.026	35.69
427.153	32.69
427.279	19.69
427.406	22.69
427.533	15.69
427.659	19.69
427.786	15.69
427.913	43.69
428.039	23.69
428.166	27.69
428.293	30.69
428.419	25.69
428.546	33.69
428.673	16.69
428.799	23.69
428.926	15.69
429.053	46.69
429.179	22.69
429.306	20.69
429.433	46.69
429.559	41.69
429.686	16.69
429.812	16.69
429.939	23.69
430.066	9.69
430.192	10.69
430.319	44.69
430.445	22.69
430.572	24.69
430.699	24.69
430.825	28.69
430.952	22.69
431.078	32.69
431.205	32.69
431.331	18.69
431.458	22.69
431.584	33.69
431.711	26.69
431.837	27.69
431.964	24.69
432.09	31.69
432.217	20.69
432.343	28.69
432.47	50.69
432.596	27.69
432.723	17.69
432.849	26.69
432.976	39.69
433.102	15.69
433.229	19.69
433.355	58.69
433.482	95.69
433.608	109.69
433.735	101.69
433.861	108.69
433.987	157.69
434.114	191.69
434.24	172.69
434.367	226.69
434.493	223.69
434.62	271.69
434.746	376.69
434.872	620.69
434.999	828.69
435.125	1696.69
435.252	5400.69
435.378	13273.69
435.504	15128.69
435.631	15346.69
435.757	15683.69
435.883	15683.69
436.01	15683.69
436.136	15683.69
436.262	15683.69
436.389	3410.69
436.515	1864.69
436.641	746.69
436.768	616.69
436.894	375.69
437.02	375.69
437.147	285.69
437.273	287.69
437.399	196.69
437.526	225.69
437.652	171.69
437.778	199.69
437.904	149.69
438.031	142.69
438.157	137.69
438.283	147.69
438.409	128.69
438.536	124.69
438.662	127.69
438.788	132.69
438.914	95.69
439.041	113.69
439.167	112.69
439.293	105.69
439.419	95.69
439.546	89.69
439.672	78.69
439.798	83.69
439.924	69.69
440.05	89.69
440.177	56.69
440.303	65.69
440.429	58.69
440.555	76.69
440.681	55.69
440.807	73.69
440.934	56.69
441.06	82.69
441.186	52.69
441.312	46.69
441.438	69.69
441.564	69.69
441.69	62.69
441.816	70.69
441.943	51.69
442.069	71.69
442.195	49.69
442.321	44.69
442.447	30.69
442.573	33.69
442.699	41.69
442.825	38.69
442.951	42.69
443.077	61.69
443.203	66.69
443.33	45.69
443.456	34.69
443.582	37.69
443.708	36.69
443.834	61.69
443.96	29.69
444.086	47.69
444.212	56.69
444.338	57.69
444.464	32.69
444.59	68.69
444.716	48.69
444.842	45.69
444.968	42.69
445.094	29.69
445.22	33.69
445.346	20.69
445.472	46.69
445.598	36.69
445.724	33.69
445.85	33.69
445.976	34.69
446.102	37.69
446.228	43.69
446.354	33.69
446.48	14.69
446.605	43.69
446.731	30.69
446.857	33.69
446.983	46.69
447.109	30.69
447.235	30.69
447.361	34.69
447.487	39.69
447.613	36.69
447.739	24.69
447.865	15.69
447.99	20.69
448.116	29.69
448.242	20.69
448.368	28.69
448.494	17.69
448.62	38.69
448.746	32.69
448.872	31.69
448.997	11.69
449.123	26.69
449.249	61.69
449.375	40.69
449.501	17.69
449.627	16.69
449.752	48.69
449.878	27.69
450.004	10.69
450.13	40.69
450.256	26.69
450.381	41.69
450.507	26.69
450.633	22.69
450.759	19.69
450.884	12.69
451.01	28.69
451.136	27.69
451.262	32.69
451.388	26.69
451.513	21.69
451.639	41.69
451.765	42.69
451.89	45.69
452.016	24.69
452.142	29.69
452.268	34.69
452.393	37.69
452.519	21.69
452.645	44.69
452.771	20.69
452.896	23.69
453.022	14.69
453.148	37.69
453.273	31.69
453.399	27.69
453.525	9.69
453.65	15.69
453.776	32.69
453.902	34.69
454.027	29.69
454.153	31.69
454.279	38.69
454.404	21.69
454.53	34.69
454.656	48.69
454.781	9.69
454.907	35.69
455.032	21.69
455.158	23.69
455.284	42.69
455.409	27.69
455.535	46.69
455.66	22.69
455.786	36.69
455.912	37.69
456.037	36.69
456.163	39.69
456.288	23.69
456.414	34.69
456.539	30.69
456.665	37.69
456.791	8.69
456.916	24.69
457.042	33.69
457.167	11.69
457.293	26.69
457.418	36.69
457.544	19.69
457.669	26.69
457.795	37.69
457.92	28.69
458.046	20.69
458.171	34.69
458.297	21.69
458.422	19.69
458.548	19.69
458.673	25.69
458.799	7.69
458.924	13.69
459.05	18.69
459.175	9.69
459.301	26.69
459.426	39.69
459.552	28.69
459.677	18.69
459.803	34.69
459.928	29.69
460.053	30.69
460.179	28.69
460.304	33.69
460.43	-2.31
460.555	14.69
460.681	18.69
460.806	19.69
460.931	25.69
461.057	10.69
461.182	22.69
461.308	31.69
461.433	27.69
461.558	21.69
461.684	45.69
461.809	43.69
461.934	29.69
462.06	40.69
462.185	27.69
462.311	37.69
462.436	18.69
462.561	32.69
462.687	20.69
462.812	16.69
462.937	27.69
463.063	23.69
463.188	15.69
463.313	33.69
463.439	18.69
463.564	20.69
463.689	28.69
463.814	41.69
463.94	17.69
464.065	40.69
464.19	34.69
464.316	15.69
464.441	19.69
464.566	6.69
464.692	36.69
464.817	38.69
464.942	17.69
465.067	15.69
465.193	14.69
465.318	17.69
465.443	13.69
465.568	32.69
465.694	29.69
465.819	49.69
465.944	33.69
466.069	32.69
466.194	34.69
466.32	28.69
466.445	18.69
466.57	12.69
466.695	27.69
466.82	39.69
466.946	36.69
467.071	27.69
467.196	25.69
467.321	30.69
467.446	38.69
467.572	30.69
467.697	27.69
467.822	40.69
467.947	40.69
468.072	33.69
468.197	21.69
468.323	22.69
468.448	23.69
468.573	27.69
468.698	8.69
468.823	24.69
468.948	45.69
469.073	32.69
469.198	47.69
469.324	44.69
469.449	33.69
469.574	44.69
469.699	29.69
469.824	37.69
469.949	39.69
470.074	23.69
470.199	60.69
470.324	32.69
470.449	52.69
470.574	40.69
470.7	37.69
470.825	27.69
470.95	64.69
471.075	29.69
471.2	40.69
471.325	36.69
471.45	45.69
471.575	27.69
471.7	36.69
471.825	16.69
471.95	27.69
472.075	16.69
472.2	21.69
472.325	28.69
472.45	32.69
472.575	29.69
472.7	26.69
472.825	42.69
472.95	26.69
473.075	24.69
473.2	25.69
473.325	23.69
473.45	28.69
473.575	36.69
473.7	50.69
473.825	44.69
473.95	44.69
474.075	33.69
474.2	36.69
474.325	18.69
474.45	46.69
474.574	37.69
474.699	20.69
474.824	30.69
474.949	13.69
475.074	16.69
475.199	22.69
475.324	31.69
475.449	12.69
475.574	18.69
475.699	25.69
475.824	11.69
475.949	1.69
476.073	21.69
476.198	28.69
476.323	21.69
476.448	31.69
476.573	16.69
476.698	46.69
476.823	40.69
476.947	33.69
477.072	33.69
477.197	31.69
477.322	34.69
477.447	10.69
477.572	22.69
477.697	25.69
477.821	8.69
477.946	14.69
478.071	34.69
478.196	36.69
478.321	30.69
478.445	8.69
478.57	7.69
478.695	26.69
478.82	22.69
478.945	45.69
479.069	10.69
479.194	18.69
479.319	14.69
479.444	32.69
479.569	14.69
479.693	31.69
479.818	24.69
479.943	39.69
480.068	12.69
480.192	40.69
480.317	17.69
480.442	16.69
480.567	29.69
480.691	26.69
480.816	28.69
480.941	12.69
481.066	3.69
481.19	26.69
481.315	7.69
481.44	0.69
481.564	3.69
481.689	24.69
481.814	2.69
481.938	9.69
482.063	5.69
482.188	28.69
482.313	18.69
482.437	23.69
482.562	30.69
482.687	30.69
482.811	13.69
482.936	14.69
483.061	22.69
483.185	21.69
483.31	22.69
483.435	17.69
483.559	28.69
483.684	26.69
483.808	38.69
483.933	16.69
484.058	14.69
484.182	33.69
484.307	25.69
484.432	41.69
484.556	16.69
484.681	16.69
484.805	31.69
484.93	31.69
485.055	30.69
485.179	60.69
485.304	34.69
485.428	18.69
485.553	21.69
485.678	22.69
485.802	10.69
485.927	30.69
486.051	17.69
486.176	26.69
486.3	10.69
486.425	25.69
486.549	43.69
486.674	26.69
486.799	26.69
486.923	16.69
487.048	8.69
487.172	14.69
487.297	16.69
487.421	18.69
487.546	6.69
487.67	16.69
487.795	19.69
487.919	23.69
488.044	35.69
488.168	29.69
488.293	22.69
488.417	14.69
488.542	21.69
488.666	30.69
488.791	24.69
488.915	20.69
489.04	34.69
489.164	36.69
489.289	49.69
489.413	15.69
489.538	39.69
489.662	34.69
489.786	-1.31
489.911	30.69
490.035	18.69
490.16	5.69
490.284	8.69
490.409	-2.31
490.533	24.69
490.658	34.69
490.782	23.69
490.906	59.69
491.031	118.69
491.155	130.69
491.28	139.69
491.404	143.69
491.528	262.69
491.653	146.69
491.777	46.69
491.902	23.69
492.026	31.69
492.15	42.69
492.275	28.69
492.399	31.69
492.524	9.69
492.648	34.69
492.772	31.69
492.897	27.69
493.021	8.69
493.145	23.69
493.27	41.69
493.394	26.69
493.518	16.69
493.643	5.69
493.767	32.69
493.891	16.69
494.016	23.69
494.14	18.69
494.264	36.69
494.389	36.69
494.513	14.69
494.637	12.69
494.762	29.69
494.886	30.69
495.01	21.69
495.134	25.69
495.259	37.69
495.383	8.69
495.507	22.69
495.632	42.69
495.756	33.69
495.88	29.69
496.004	32.69
496.129	23.69
496.253	24.69
496.377	33.69
496.501	38.69
496.626	23.69
496.75	40.69
496.874	29.69
496.998	18.69
497.123	44.69
497.247	23.69
497.371	13.69
497.495	32.69
497.62	16.69
497.744	15.69
497.868	7.69
497.992	18.69
498.116	9.69
498.241	6.69
498.365	13.69
498.489	8.69
498.613	42.69
498.737	18.69
498.862	25.69
498.986	22.69
499.11	15.69
499.234	3.69
499.358	2.69
499.482	34.69
499.607	33.69
499.731	26.69
499.855	28.69
499.979	17.69
500.103	33.69
500.227	20.69
500.351	13.69
500.476	4.69
500.6	30.69
500.724	33.69
500.848	10.69
500.972	30.69
501.096	28.69
501.22	37.69
501.344	-2.31
501.469	30.69
501.593	18.69
501.717	40.69
501.841	34.69
501.965	34.69
502.089	20.69
502.213	30.69
502.337	15.69
502.461	39.69
502.585	14.69
502.709	30.69
502.834	28.69
502.958	19.69
503.082	20.69
503.206	39.69
503.33	38.69
503.454	32.69
503.578	27.69
503.702	36.69
503.826	25.69
503.95	52.69
504.074	8.69
504.198	20.69
504.322	7.69
504.446	15.69
504.57	6.69
504.694	11.69
504.818	22.69
504.942	29.69
505.066	30.69
505.19	21.69
505.314	19.69
505.438	13.69
505.562	20.69
505.686	36.69
505.81	12.69
505.934	22.69
506.058	14.69
506.182	18.69
506.306	35.69
506.43	12.69
506.554	20.69
506.678	22.69
506.802	24.69
506.926	27.69
507.05	33.69
507.174	38.69
507.298	21.69
507.422	44.69
507.546	28.69
507.67	24.69
507.794	18.69
507.918	15.69
508.042	24.69
508.165	28.69
508.289	17.69
508.413	27.69
508.537	16.69
508.661	31.69
508.785	37.69
508.909	27.69
509.033	34.69
509.157	26.69
509.281	26.69
509.405	48.69
509.528	47.69
509.652	39.69
509.776	21.69
509.9	42.69
510.024	41.69
510.148	40.69
510.272	32.69
510.396	46.69
510.519	20.69
510.643	49.69
510.767	35.69
510.891	40.69
511.015	37.69
511.139	51.69
511.263	45.69
511.386	31.69
511.51	38.69
511.634	45.69
511.758	35.69
511.882	34.69
512.006	59.69
512.129	56.69
512.253	84.69
512.377	76.69
512.501	77.69
512.625	89.69
512.748	92.69
512.872	61.69
512.996	46.69
513.12	57.69
513.244	45.69
513.367	67.69
513.491	69.69
513.615	84.69
513.739	72.69
513.862	90.69
513.986	92.69
514.11	103.69
514.234	78.69
514.358	107.69
514.481	114.69
514.605	111.69
514.729	122.69
514.853	116.69
514.976	87.69
515.1	88.69
515.224	107.69
515.348	81.69
515.471	80.69
515.595	93.69
515.719	128.69
515.842	223.69
515.966	270.69
516.09	298.69
516.214	298.69
516.337	334.69
516.461	218.69
516.585	104.69
516.708	55.69
516.832	44.69
516.956	41.69
517.08	10.69
517.203	11.69
517.327	34.69
517.451	39.69
517.574	46.69
517.698	12.69
517.822	0.69
517.945	30.69
518.069	21.69
518.193	42.69
518.316	14.69
518.44	21.69
518.564	6.69
518.687	-1.31
518.811	12.69
518.935	34.69
519.058	17.69
519.182	18.69
519.306	31.69
519.429	8.69
519.553	28.69
519.676	27.69
519.8	9.69
519.924	21.69
520.047	19.69
520.171	15.69
520.294	13.69
520.418	33.69
520.542	42.69
520.665	47.69
520.789	22.69
520.913	10.69
521.036	5.69
521.16	15.69
521.283	25.69
521.407	-0.31
521.53	2.69
521.654	-3.31
521.778	11.69
521.901	21.69
522.025	21.69
522.148	15.69
522.272	27.69
522.395	15.69
522.519	28.69
522.643	31.69
522.766	21.69
522.89	12.69
523.013	25.69
523.137	15.69
523.26	21.69
523.384	25.69
523.507	25.69
523.631	26.69
523.754	8.69
523.878	20.69
524.002	20.69
524.125	13.69
524.249	6.69
524.372	24.69
524.496	8.69
524.619	19.69
524.743	19.69
524.866	13.69
524.99	12.69
525.113	17.69
525.237	23.69
525.36	20.69
525.484	25.69
525.607	7.69
525.731	-16.31
525.854	16.69
525.978	34.69
526.101	16.69
526.224	33.69
526.348	17.69
526.471	17.69
526.595	7.69
526.718	14.69
526.842	4.69
526.965	15.69
527.089	21.69
527.212	11.69
527.336	5.69
527.459	27.69
527.582	14.69
527.706	20.69
527.829	27.69
527.953	36.69
528.076	6.69
528.2	5.69
528.323	31.69
528.446	38.69
528.57	34.69
528.693	25.69
528.817	28.69
528.94	22.69
529.064	34.69
529.187	14.69
529.31	10.69
529.434	22.69
529.557	12.69
529.68	21.69
529.804	25.69
529.927	15.69
530.051	25.69
530.174	6.69
530.297	16.69
530.421	29.69
530.544	30.69
530.668	10.69
530.791	21.69
530.914	34.69
531.038	26.69
531.161	20.69
531.284	20.69
531.408	10.69
531.531	20.69
531.654	11.69
531.778	16.69
531.901	4.69
532.024	24.69
532.148	10.69
532.271	32.69
532.394	14.69
532.518	9.69
532.641	21.69
532.764	23.69
532.888	27.69
533.011	17.69
533.134	2.69
533.258	23.69
533.381	14.69
533.504	37.69
533.628	31.69
533.751	30.69
533.874	31.69
533.997	6.69
534.121	2.69
534.244	11.69
534.367	13.69
534.491	20.69
534.614	13.69
534.737	27.69
534.86	42.69
534.984	18.69
535.107	6.69
535.23	34.69
535.354	18.69
535.477	4.69
535.6	13.69
535.723	18.69
535.847	22.69
535.97	16.69
536.093	18.69
536.216	19.69
536.34	24.69
536.463	10.69
536.586	49.69
536.709	39.69
536.833	38.69
536.956	6.69
537.079	17.69
537.202	13.69
537.325	-1.31
537.449	2.69
537.572	24.69
537.695	14.69
537.818	18.69
537.941	15.69
538.065	9.69
538.188	34.69
538.311	44.69
538.434	30.69
538.558	30.69
538.681	22.69
538.804	7.69
538.927	17.69
539.05	20.69
539.173	22.69
539.297	16.69
539.42	10.69
539.543	17.69
539.666	44.69
539.789	11.69
539.913	37.69
540.036	16.69
540.159	38.69
540.282	10.69
540.405	9.69
540.528	26.69
540.651	34.69
540.775	27.69
540.898	32.69
541.021	21.69
541.144	36.69
541.267	15.69
541.39	35.69
541.513	13.69
541.637	25.69
541.76	36.69
541.883	31.69
542.006	32.69
542.129	49.69
542.252	12.69
542.375	40.69
542.498	30.69
542.622	28.69
542.745	39.69
542.868	47.69
542.991	61.69
543.114	65.69
543.237	68.69
543.36	65.69
543.483	56.69
543.606	63.69
543.73	76.69
543.853	85.69
543.976	95.69
544.099	112.69
544.222	128.69
544.345	130.69
544.468	168.69
544.591	208.69
544.714	272.69
544.837	351.69
544.96	442.69
545.083	638.69
545.206	1067.69
545.329	2375.69
545.453	10796.69
545.576	15226.69
545.699	15683.69
545.822	15683.69
545.945	15683.69
546.068	15683.69
546.191	15683.69
546.314	15683.69
546.437	15683.69
546.56	15683.69
546.683	15683.69
546.806	15683.69
546.929	15683.69
547.052	15683.69
547.175	15683.69
547.298	15683.69
547.421	15683.69
547.544	15683.69
547.667	3420.69
547.79	1763.69
547.913	900.69
548.036	813.69
548.159	621.69
548.282	607.69
548.405	472.69
548.528	474.69
548.651	379.69
548.774	386.69
548.897	332.69
549.02	340.69
549.143	328.69
549.266	286.69
549.389	271.69
549.512	260.69
549.635	227.69
549.758	233.69
549.881	200.69
550.004	215.69
550.127	174.69
550.25	187.69
550.373	158.69
550.496	170.69
550.619	151.69
550.742	165.69
550.865	140.69
550.988	143.69
551.111	144.69
551.234	152.69
551.356	108.69
551.479	136.69
551.602	132.69
551.725	127.69
551.848	136.69
551.971	132.69
552.094	127.69
552.217	106.69
552.34	96.69
552.463	88.69
552.586	116.69
552.709	96.69
552.832	102.69
552.955	112.69
553.077	116.69
553.2	129.69
553.323	97.69
553.446	90.69
553.569	77.69
553.692	101.69
553.815	82.69
553.938	103.69
554.061	109.69
554.184	81.69
554.306	53.69
554.429	71.69
554.552	89.69
554.675	82.69
554.798	102.69
554.921	85.69
555.044	81.69
555.167	72.69
555.29	72.69
555.412	85.69
555.535	87.69
555.658	78.69
555.781	78.69
555.904	66.69
556.027	70.69
556.15	75.69
556.272	59.69
556.395	88.69
556.518	68.69
556.641	72.69
556.764	81.69
556.887	78.69
557.01	65.69
557.132	47.69
557.255	62.69
557.378	71.69
557.501	71.69
557.624	56.69
557.747	84.69
557.869	74.69
557.992	85.69
558.115	90.69
558.238	88.69
558.361	96.69
558.483	97.69
558.606	70.69
558.729	61.69
558.852	66.69
558.975	77.69
559.098	43.69
559.22	45.69
559.343	52.69
559.466	47.69
559.589	44.69
559.712	60.69
559.834	66.69
559.957	71.69
560.08	50.69
560.203	65.69
560.325	60.69
560.448	62.69
560.571	58.69
560.694	49.69
560.817	69.69
560.939	52.69
561.062	59.69
561.185	61.69
561.308	56.69
561.43	54.69
561.553	57.69
561.676	66.69
561.799	76.69
561.921	68.69
562.044	49.69
562.167	46.69
562.29	67.69
562.413	70.69
562.535	63.69
562.658	54.69
562.781	61.69
562.903	61.69
563.026	84.69
563.149	135.69
563.272	114.69
563.394	114.69
563.517	95.69
563.64	58.69
563.763	48.69
563.885	40.69
564.008	53.69
564.131	31.69
564.254	25.69
564.376	48.69
564.499	16.69
564.622	25.69
564.744	44.69
564.867	43.69
564.99	32.69
565.113	51.69
565.235	43.69
565.358	20.69
565.481	37.69
565.603	34.69
565.726	36.69
565.849	49.69
565.971	63.69
566.094	22.69
566.217	42.69
566.34	31.69
566.462	45.69
566.585	46.69
566.708	37.69
566.83	33.69
566.953	39.69
567.076	38.69
567.198	26.69
567.321	20.69
567.444	24.69
567.566	23.69
567.689	12.69
567.812	17.69
567.934	28.69
568.057	30.69
568.18	48.69
568.302	21.69
568.425	20.69
568.548	30.69
568.67	36.69
568.793	36.69
568.916	37.69
569.038	25.69
569.161	34.69
569.283	39.69
569.406	29.69
569.529	30.69
569.651	17.69
569.774	28.69
569.897	29.69
570.019	40.69
570.142	30.69
570.265	18.69
570.387	34.69
570.51	49.69
570.632	45.69
570.755	20.69
570.878	31.69
571	29.69
571.123	40.69
571.246	33.69
571.368	25.69
571.491	31.69
571.613	26.69
571.736	26.69
571.859	23.69
571.981	11.69
572.104	12.69
572.226	34.69
572.349	32.69
572.472	26.69
572.594	26.69
572.717	49.69
572.839	25.69
572.962	38.69
573.085	43.69
573.207	29.69
573.33	14.69
573.452	33.69
573.575	46.69
573.697	45.69
573.82	38.69
573.943	20.69
574.065	30.69
574.188	42.69
574.31	36.69
574.433	41.69
574.555	53.69
574.678	24.69
574.801	39.69
574.923	32.69
575.046	34.69
575.168	40.69
575.291	37.69
575.413	43.69
575.536	37.69
575.659	62.69
575.781	69.69
575.904	43.69
576.026	78.69
576.149	64.69
576.271	122.69
576.394	209.69
576.516	509.69
576.639	3522.69
576.761	9948.69
576.884	8627.69
577.007	8636.69
577.129	7880.69
577.252	3665.69
577.374	1306.69
577.497	488.69
577.619	253.69
577.742	176.69
577.864	158.69
577.987	145.69
578.109	114.69
578.232	109.69
578.354	136.69
578.477	193.69
578.599	400.69
578.722	1911.69
578.844	8971.69
578.967	9683.69
579.089	8652.69
579.212	8915.69
579.334	5143.69
579.457	1903.69
579.579	699.69
579.702	349.69
579.824	223.69
579.947	133.69
580.069	114.69
580.192	70.69
580.314	99.69
580.437	69.69
580.559	93.69
580.682	62.69
580.804	73.69
580.927	74.69
581.049	76.69
581.172	44.69
581.294	58.69
581.417	36.69
581.539	49.69
581.662	50.69
581.784	60.69
581.907	39.69
582.029	50.69
582.152	40.69
582.274	33.69
582.396	54.69
582.519	45.69
582.641	27.69
582.764	39.69
582.886	45.69
583.009	26.69
583.131	48.69
583.254	41.69
583.376	61.69
583.499	61.69
583.621	23.69
583.743	46.69
583.866	33.69
583.988	41.69
584.111	32.69
584.233	53.69
584.356	45.69
584.478	25.69
584.601	17.69
584.723	35.69
584.845	42.69
584.968	39.69
585.09	13.69
585.213	42.69
585.335	17.69
585.458	24.69
585.58	32.69
585.702	50.69
585.825	26.69
585.947	31.69
586.07	21.69
586.192	29.69
586.315	41.69
586.437	26.69
586.559	25.69
586.682	26.69
586.804	39.69
586.927	37.69
587.049	38.69
587.171	37.69
587.294	33.69
587.416	45.69
587.539	20.69
587.661	14.69
587.783	13.69
587.906	14.69
588.028	32.69
588.151	34.69
588.273	45.69
588.395	31.69
588.518	34.69
588.64	10.69
588.763	41.69
588.885	40.69
589.007	31.69
589.13	17.69
589.252	14.69
589.375	20.69
589.497	22.69
589.619	31.69
589.742	35.69
589.864	34.69
589.986	25.69
590.109	25.69
590.231	27.69
590.354	52.69
590.476	24.69
590.598	9.69
590.721	11.69
590.843	34.69
590.965	31.69
591.088	30.69
591.21	31.69
591.332	29.69
591.455	30.69
591.577	23.69
591.7	32.69
591.822	27.69
591.944	30.69
592.067	38.69
592.189	19.69
592.311	40.69
592.434	22.69
592.556	45.69
592.678	25.69
592.801	25.69
592.923	20.69
593.045	14.69
593.168	24.69
593.29	36.69
593.412	39.69
593.535	12.69
593.657	6.69
593.779	27.69
593.902	21.69
594.024	40.69
594.146	20.69
594.269	25.69
594.391	23.69
594.513	37.69
594.636	22.69
594.758	17.69
594.88	39.69
595.003	37.69
595.125	18.69
595.247	29.69
595.37	28.69
595.492	11.69
595.614	36.69
595.737	20.69
595.859	40.69
595.981	27.69
596.104	21.69
596.226	5.69
596.348	16.69
596.471	28.69
596.593	7.69
596.715	18.69
596.838	16.69
596.96	22.69
597.082	38.69
597.204	22.69
597.327	25.69
597.449	4.69
597.571	19.69
597.694	26.69
597.816	24.69
597.938	22.69
598.061	16.69
598.183	6.69
598.305	29.69
598.427	36.69
598.55	29.69
598.672	42.69
598.794	30.69
598.917	9.69
599.039	51.69
599.161	37.69
599.283	15.69
599.406	21.69
599.528	39.69
599.65	55.69
599.773	29.69
599.895	44.69
600.017	33.69
600.139	9.69
600.262	18.69
600.384	31.69
600.506	35.69
600.628	48.69
600.751	34.69
600.873	17.69
600.995	44.69
601.118	35.69
601.24	32.69
601.362	52.69
601.484	39.69
601.607	25.69
601.729	22.69
601.851	25.69
601.973	17.69
602.096	23.69
602.218	31.69
602.34	27.69
602.462	22.69
602.585	28.69
602.707	16.69
602.829	13.69
602.951	11.69
603.074	3.69
603.196	25.69
603.318	8.69
603.44	27.69
603.563	24.69
603.685	5.69
603.807	27.69
603.929	38.69
604.052	43.69
604.174	46.69
604.296	31.69
604.418	27.69
604.541	31.69
604.663	26.69
604.785	23.69
604.907	30.69
605.03	38.69
605.152	59.69
605.274	29.69
605.396	32.69
605.519	25.69
605.641	18.69
605.763	26.69
605.885	24.69
606.008	19.69
606.13	30.69
606.252	26.69
606.374	15.69
606.496	24.69
606.619	31.69
606.741	15.69
606.863	33.69
606.985	41.69
607.108	42.69
607.23	27.69
607.352	32.69
607.474	43.69
607.596	17.69
607.719	18.69
607.841	34.69
607.963	33.69
608.085	20.69
608.207	42.69
608.33	26.69
608.452	18.69
608.574	20.69
608.696	32.69
608.819	15.69
608.941	14.69
609.063	29.69
609.185	24.69
609.307	26.69
609.43	28.69
609.552	21.69
609.674	-1.31
609.796	47.69
609.918	32.69
610.041	32.69
610.163	41.69
610.285	21.69
610.407	12.69
610.529	14.69
610.652	8.69
610.774	37.69
610.896	23.69
611.018	17.69
611.14	18.69
611.263	11.69
611.385	16.69
611.507	43.69
611.629	7.69
611.751	26.69
611.873	45.69
611.996	37.69
612.118	34.69
612.24	20.69
612.362	30.69
612.484	46.69
612.607	29.69
612.729	28.69
612.851	34.69
612.973	18.69
613.095	18.69
613.218	25.69
613.34	30.69
613.462	11.69
613.584	29.69
613.706	31.69
613.828	44.69
613.951	12.69
614.073	20.69
614.195	10.69
614.317	29.69
614.439	28.69
614.561	29.69
614.684	29.69
614.806	24.69
614.928	28.69
615.05	25.69
615.172	36.69
615.294	41.69
615.417	36.69
615.539	37.69
615.661	26.69
615.783	16.69
615.905	19.69
616.027	4.69
616.15	45.69
616.272	22.69
616.394	7.69
616.516	22.69
616.638	12.69
616.76	24.69
616.883	13.69
617.005	5.69
617.127	22.69
617.249	32.69
617.371	37.69
617.493	21.69
617.615	15.69
617.738	24.69
617.86	39.69
617.982	32.69
618.104	10.69
618.226	4.69
618.348	5.69
618.471	24.69
618.593	23.69
618.715	21.69
618.837	30.69
618.959	24.69
619.081	40.69
619.203	20.69
619.326	24.69
619.448	56.69
619.57	36.69
619.692	31.69
619.814	23.69
619.936	33.69
620.058	26.69
620.181	26.69
620.303	6.69
620.425	24.69
620.547	30.69
620.669	16.69
620.791	15.69
620.913	18.69
621.036	21.69
621.158	33.69
621.28	33.69
621.402	-5.31
621.524	14.69
621.646	16.69
621.768	23.69
621.891	8.69
622.013	26.69
622.135	28.69
622.257	23.69
622.379	16.69
622.501	14.69
622.623	18.69
622.745	11.69
622.868	23.69
622.99	2.69
623.112	16.69
623.234	24.69
623.356	24.69
623.478	3.69
623.6	20.69
623.722	7.69
623.845	14.69
623.967	24.69
624.089	25.69
624.211	31.69
624.333	26.69
624.455	25.69
624.577	15.69
624.699	20.69
624.822	23.69
624.944	2.69
625.066	37.69
625.188	20.69
625.31	42.69
625.432	33.69
625.554	12.69
625.676	42.69
625.799	21.69
625.921	37.69
626.043	26.69
626.165	10.69
626.287	1.69
626.409	27.69
626.531	7.69
626.653	20.69
626.775	46.69
626.898	34.69
627.02	26.69
627.142	51.69
627.264	32.69
627.386	24.69
627.508	28.69
627.63	21.69
627.752	12.69
627.874	5.69
627.997	32.69
628.119	26.69
628.241	40.69
628.363	30.69
628.485	21.69
628.607	17.69
628.729	7.69
628.851	8.69
628.973	28.69
629.096	6.69
629.218	31.69
629.34	17.69
629.462	18.69
629.584	20.69
629.706	0.69
629.828	17.69
629.95	9.69
630.072	14.69
630.195	25.69
630.317	31.69
630.439	13.69
630.561	23.69
630.683	8.69
630.805	15.69
630.927	17.69
631.049	5.69
631.171	9.69
631.293	-0.31
631.416	12.69
631.538	18.69
631.66	16.69
631.782	17.69
631.904	28.69
632.026	23.69
632.148	31.69
632.27	19.69
632.392	13.69
632.514	30.69
632.637	12.69
632.759	16.69
632.881	16.69
633.003	16.69
633.125	16.69
633.247	4.69
633.369	26.69
633.491	12.69
633.613	22.69
633.735	13.69
633.858	11.69
633.98	19.69
634.102	9.69
634.224	4.69
634.346	14.69
634.468	10.69
634.59	13.69
634.712	15.69
634.834	15.69
634.956	15.69
635.078	1.69
635.201	5.69
635.323	8.69
635.445	9.69
635.567	9.69
635.689	20.69
635.811	25.69
635.933	12.69
636.055	16.69
636.177	17.69
636.299	18.69
636.421	17.69
636.544	-7.31
636.666	12.69
636.788	17.69
636.91	19.69
637.032	-1.31
637.154	15.69
637.276	28.69
637.398	29.69
637.52	16.69
637.642	20.69
637.764	29.69
637.887	15.69
638.009	15.69
638.131	8.69
638.253	5.69
638.375	7.69
638.497	13.69
638.619	-6.31
638.741	8.69
638.863	11.69
638.985	7.69
639.107	4.69
639.23	8.69
639.352	32.69
639.474	19.69
639.596	4.69
639.718	22.69
639.84	16.69
639.962	14.69
640.084	34.69
640.206	26.69
640.328	1.69
640.45	27.69
640.573	17.69
640.695	24.69
640.817	27.69
640.939	22.69
641.061	17.69
641.183	17.69
641.305	14.69
641.427	19.69
641.549	7.69
641.671	15.69
641.793	13.69
641.915	32.69
642.038	15.69
642.16	22.69
642.282	20.69
642.404	13.69
642.526	17.69
642.648	18.69
642.77	12.69
642.892	-5.31
643.014	23.69
643.136	29.69
643.258	14.69
643.381	32.69
643.503	41.69
643.625	12.69
643.747	-3.31
643.869	-0.31
643.991	23.69
644.113	14.69
644.235	17.69
644.357	-0.31
644.479	18.69
644.601	12.69
644.723	10.69
644.846	18.69
644.968	19.69
645.09	14.69
645.212	18.69
645.334	26.69
645.456	23.69
645.578	22.69
645.7	12.69
645.822	27.69
645.944	24.69
646.066	23.69
646.188	-3.31
646.311	13.69
646.433	9.69
646.555	24.69
646.677	28.69
646.799	12.69
646.921	6.69
647.043	19.69
647.165	4.69
647.287	0.69
647.409	25.69
647.531	13.69
647.654	-14.31
647.776	5.69
647.898	14.69
648.02	6.69
648.142	9.69
648.264	15.69
648.386	19.69
648.508	12.69
648.63	-0.31
648.752	21.69
648.874	0.69
648.997	16.69
649.119	17.69
649.241	9.69
649.363	21.69
649.485	10.69
649.607	-5.31
649.729	-0.31
649.851	12.69
649.973	10.69
650.095	18.69
650.217	-9.31
650.34	1.69
650.462	19.69
650.584	33.69
650.706	19.69
650.828	27.69
650.95	1.69
651.072	11.69
651.194	6.69
651.316	11.69
651.438	36.69
651.56	-7.31
651.683	12.69
651.805	5.69
651.927	12.69
652.049	23.69
652.171	4.69
652.293	2.69
652.415	-6.31
652.537	7.69
652.659	-9.31
652.781	6.69
652.903	12.69
653.026	30.69
653.148	22.69
653.27	19.69
653.392	18.69
653.514	11.69
653.636	10.69
653.758	6.69
653.88	12.69
654.002	9.69
654.124	5.69
654.247	-2.31
654.369	25.69
654.491	8.69
654.613	13.69
654.735	6.69
654.857	22.69
654.979	9.69
655.101	18.69
655.223	25.69
655.345	-5.31
655.468	6.69
655.59	-7.31
655.712	11.69
655.834	25.69
655.956	39.69
656.078	-7.31
656.2	4.69
656.322	16.69
656.444	-7.31
656.566	19.69
656.689	7.69
656.811	4.69
656.933	38.69
657.055	-12.31
657.177	8.69
657.299	-16.31
657.421	4.69
657.543	10.69
657.665	18.69
657.787	11.69
657.91	15.69
658.032	-1.31
658.154	4.69
658.276	17.69
658.398	-10.31
658.52	8.69
658.642	-4.31
658.764	26.69
658.886	-12.31
659.009	4.69
659.131	19.69
659.253	14.69
659.375	12.69
659.497	0.69
659.619	30.69
659.741	8.69
659.863	17.69
659.985	-6.31
660.108	-2.31
660.23	-14.31
660.352	19.69
660.474	18.69
660.596	31.69
660.718	22.69
660.84	16.69
660.962	-1.31
661.084	4.69
661.207	-4.31
661.329	22.69
661.451	13.69
661.573	23.69
661.695	25.69
661.817	5.69
661.939	36.69
662.061	23.69
662.184	12.69
662.306	-6.31
662.428	20.69
662.55	25.69
662.672	8.69
662.794	-7.31
662.916	8.69
663.038	-4.31
663.161	24.69
663.283	16.69
663.405	14.69
663.527	4.69
663.649	28.69
663.771	-5.31
663.893	4.69
664.015	5.69
664.138	-2.31
664.26	10.69
664.382	-0.31
664.504	-6.31
664.626	-11.31
664.748	0.69
664.87	9.69
664.992	20.69
665.115	20.69
665.237	10.69
665.359	15.69
665.481	3.69
665.603	22.69
665.725	6.69
665.847	-2.31
665.97	5.69
666.092	4.69
666.214	33.69
666.336	-0.31
666.458	-3.31
666.58	-0.31
666.702	8.69
666.825	10.69
666.947	-1.31
667.069	17.69
667.191	14.69
667.313	9.69
667.435	-3.31
667.557	6.69
667.68	-3.31
667.802	-5.31
667.924	7.69
668.046	22.69
668.168	16.69
668.29	-2.31
668.412	6.69
668.535	16.69
668.657	13.69
668.779	-14.31
668.901	11.69
669.023	22.69
669.145	2.69
669.267	23.69
669.39	17.69
669.512	9.69
669.634	22.69
669.756	-0.31
669.878	6.69
670	14.69
670.123	16.69
670.245	32.69
670.367	34.69
670.489	8.69
670.611	-9.31
670.733	-7.31
670.856	-3.31
670.978	26.69
671.1	21.69
671.222	18.69
671.344	4.69
671.466	9.69
671.589	-8.31
671.711	-7.31
671.833	14.69
671.955	21.69
672.077	10.69
672.199	22.69
672.322	24.69
672.444	11.69
672.566	20.69
672.688	31.69
672.81	26.69
672.932	27.69
673.055	9.69
673.177	-4.31
673.299	10.69
673.421	2.69
673.543	2.69
673.665	34.69
673.788	33.69
673.91	2.69
674.032	10.69
674.154	-9.31
674.276	4.69
674.399	5.69
674.521	22.69
674.643	8.69
674.765	5.69
674.887	20.69
675.009	22.69
675.132	0.69
675.254	16.69
675.376	28.69
675.498	-3.31
675.62	7.69
675.743	11.69
675.865	17.69
675.987	3.69
676.109	10.69
676.231	9.69
676.354	26.69
676.476	13.69
676.598	7.69
676.72	17.69
676.842	17.69
676.965	-7.31
677.087	22.69
677.209	20.69
677.331	28.69
677.453	18.69
677.576	12.69
677.698	-0.31
677.82	0.69
677.942	6.69
678.064	6.69
678.187	0.69
678.309	8.69
678.431	20.69
678.553	9.69
678.675	23.69
678.798	22.69
678.92	21.69
679.042	2.69
679.164	0.69
679.286	27.69
679.409	16.69
679.531	-1.31
679.653	22.69
679.775	14.69
679.898	2.69
680.02	8.69
680.142	11.69
680.264	16.69
680.386	2.69
680.509	18.69
680.631	6.69
680.753	17.69
680.875	4.69
680.998	21.69
681.12	1.69
681.242	4.69
681.364	0.69
681.486	16.69
681.609	3.69
681.731	-0.31
681.853	0.69
681.975	5.69
682.098	23.69
682.22	17.69
682.342	0.69
682.464	4.69
682.587	19.69
682.709	1.69
682.831	2.69
682.953	-7.31
683.076	11.69
683.198	6.69
683.32	5.69
683.442	15.69
683.565	22.69
683.687	3.69
683.809	12.69
683.931	-4.31
684.054	6.69
684.176	12.69
684.298	10.69
684.42	-3.31
684.543	21.69
684.665	9.69
684.787	8.69
684.909	-7.31
685.032	13.69
685.154	13.69
685.276	22.69
685.398	9.69
685.521	-7.31
685.643	11.69
685.765	30.69
685.887	15.69
686.01	12.69
686.132	9.69
686.254	15.69
686.377	21.69
686.499	9.69
686.621	23.69
686.743	2.69
686.866	10.69
686.988	35.69
687.11	17.69
687.232	12.69
687.355	-11.31
687.477	21.69
687.599	16.69
687.722	-5.31
687.844	7.69
687.966	24.69
688.088	1.69
688.211	28.69
688.333	20.69
688.455	21.69
688.578	17.69
688.7	29.69
688.822	29.69
688.944	14.69
689.067	31.69
689.189	19.69
689.311	-0.31
689.434	-4.31
689.556	11.69
689.678	7.69
689.801	9.69
689.923	8.69
690.045	7.69
690.167	37.69
690.29	18.69
690.412	15.69
690.534	14.69
690.657	8.69
690.779	8.69
690.901	9.69
691.024	14.69
691.146	13.69
691.268	4.69
691.391	10.69
691.513	12.69
691.635	21.69
691.758	14.69
691.88	15.69
692.002	2.69
692.125	10.69
692.247	14.69
692.369	16.69
692.492	1.69
692.614	14.69
692.736	3.69
692.859	7.69
692.981	-1.31
693.103	17.69
693.226	7.69
693.348	34.69
693.47	22.69
693.593	39.69
693.715	40.69
693.837	38.69
693.96	5.69
694.082	0.69
694.204	16.69
694.327	12.69
694.449	2.69
694.571	8.69
694.694	-0.31
694.816	30.69
694.938	-15.31
695.061	8.69
695.183	-7.31
695.305	18.69
695.428	22.69
695.55	1.69
695.672	8.69
695.795	5.69
695.917	37.69
696.04	24.69
696.162	-10.31
696.284	1.69
696.407	7.69
696.529	13.69
696.651	30.69
696.774	0.69
696.896	24.69
697.019	16.69
697.141	15.69
697.263	-0.31
697.386	0.69
697.508	8.69
697.63	14.69
697.753	27.69
697.875	5.69
697.998	9.69
698.12	20.69
698.242	0.69
698.365	0.69
698.487	17.69
698.61	22.69
698.732	4.69
698.854	43.69
698.977	17.69
699.099	26.69
699.221	3.69
699.344	12.69
699.466	8.69
699.589	13.69
699.711	0.69
699.834	10.69
699.956	12.69
700.078	21.69
700.201	15.69
700.323	12.69
700.446	16.69
700.568	-5.31
700.69	7.69
700.813	20.69
700.935	9.69
701.058	12.69
701.18	5.69
701.302	4.69
701.425	-7.31
701.547	18.69
701.67	7.69
701.792	0.69
701.915	1.69
702.037	0.69
702.159	10.69
702.282	20.69
702.404	-0.31
702.527	15.69
702.649	33.69
702.772	28.69
702.894	1.69
703.017	25.69
703.139	8.69
703.261	5.69
703.384	9.69
703.506	-2.31
703.629	-6.31
703.751	9.69
703.874	6.69
703.996	33.69
704.119	-0.31
704.241	-6.31
704.364	-10.31
704.486	21.69
704.608	12.69
704.731	3.69
704.853	12.69
704.976	23.69
705.098	13.69
705.221	14.69
705.343	11.69
705.466	27.69
705.588	25.69
705.711	23.69
705.833	14.69
705.956	11.69
706.078	22.69
706.201	8.69
706.323	12.69
706.446	14.69
