Data from LowRes_mercury_15_20_11_07_2024_HR4C61881__34__15-23-35-671.txt Node

Date: Thu Nov 07 15:23:35 EST 2024
User: crc00042
Spectrometer: HR4C6188
Trigger mode: 4
Integration Time (sec): 1.000000E-1
Scans to average: 1
Electric dark correction enabled: true
Nonlinearity correction enabled: false
Boxcar width: 0
XAxis mode: Wavelengths
Number of Pixels in Spectrum: 3648
>>>>>Begin Spectral Data<<<<<
245.66	-73.62
245.797	-73.62
245.934	-73.62
246.071	-70.62
246.208	-10.62
246.344	6.38
246.481	-11.62
246.618	7.38
246.755	10.38
246.892	5.38
247.029	-8.62
247.165	-4.62
247.302	7.38
247.439	4.38
247.576	7.38
247.713	-25.62
247.849	17.38
247.986	-15.62
248.123	4.38
248.26	-5.62
248.396	11.38
248.533	7.38
248.67	-2.62
248.806	15.38
248.943	-25.62
249.08	8.38
249.216	30.38
249.353	6.38
249.49	4.38
249.626	0.38
249.763	12.38
249.9	-16.62
250.036	13.38
250.173	17.38
250.309	12.38
250.446	8.38
250.582	-9.62
250.719	-13.62
250.856	5.38
250.992	1.38
251.129	9.38
251.265	-11.62
251.402	4.38
251.538	6.38
251.675	-1.62
251.811	3.38
251.948	13.38
252.084	10.38
252.221	-10.62
252.357	-12.62
252.493	19.38
252.63	-1.62
252.766	23.38
252.903	0.38
253.039	3.38
253.175	-2.62
253.312	-10.62
253.448	-15.62
253.585	-31.62
253.721	4.38
253.857	11.38
253.994	1.38
254.13	15.38
254.266	0.38
254.403	14.38
254.539	25.38
254.675	11.38
254.811	12.38
254.948	3.38
255.084	0.38
255.22	-11.62
255.356	16.38
255.493	12.38
255.629	9.38
255.765	6.38
255.901	4.38
256.037	7.38
256.174	15.38
256.31	-2.62
256.446	8.38
256.582	-10.62
256.718	9.38
256.854	16.38
256.991	10.38
257.127	12.38
257.263	9.38
257.399	7.38
257.535	-9.62
257.671	-12.62
257.807	-2.62
257.943	-3.62
258.079	-13.62
258.215	-10.62
258.351	13.38
258.487	17.38
258.623	2.38
258.759	-8.62
258.895	10.38
259.031	-3.62
259.167	-5.62
259.303	24.38
259.439	9.38
259.575	-7.62
259.711	3.38
259.847	-2.62
259.983	-2.62
260.119	-1.62
260.255	-2.62
260.391	16.38
260.527	1.38
260.663	16.38
260.799	16.38
260.934	7.38
261.07	-5.62
261.206	-17.62
261.342	0.38
261.478	22.38
261.614	16.38
261.749	0.38
261.885	12.38
262.021	17.38
262.157	18.38
262.293	-4.62
262.428	-4.62
262.564	4.38
262.7	15.38
262.836	3.38
262.971	7.38
263.107	15.38
263.243	12.38
263.378	6.38
263.514	-10.62
263.65	-0.62
263.785	-13.62
263.921	-2.62
264.057	0.38
264.192	32.38
264.328	33.38
264.464	0.38
264.599	12.38
264.735	12.38
264.871	-17.62
265.006	2.38
265.142	-1.62
265.277	24.38
265.413	23.38
265.548	3.38
265.684	20.38
265.819	9.38
265.955	4.38
266.091	4.38
266.226	-2.62
266.362	4.38
266.497	-1.62
266.633	-10.62
266.768	11.38
266.903	16.38
267.039	0.38
267.174	22.38
267.31	-6.62
267.445	-6.62
267.581	-3.62
267.716	2.38
267.851	-0.62
267.987	8.38
268.122	-0.62
268.258	-9.62
268.393	-7.62
268.528	16.38
268.664	9.38
268.799	-4.62
268.934	10.38
269.07	-11.62
269.205	-0.62
269.34	23.38
269.476	8.38
269.611	-0.62
269.746	26.38
269.881	-1.62
270.017	20.38
270.152	0.38
270.287	6.38
270.422	25.38
270.558	-13.62
270.693	11.38
270.828	3.38
270.963	19.38
271.098	-17.62
271.234	-2.62
271.369	21.38
271.504	0.38
271.639	-2.62
271.774	-6.62
271.909	0.38
272.045	-14.62
272.18	-14.62
272.315	5.38
272.45	2.38
272.585	-25.62
272.72	18.38
272.855	11.38
272.99	13.38
273.125	-8.62
273.26	-6.62
273.395	-4.62
273.53	-0.62
273.665	16.38
273.8	7.38
273.935	21.38
274.07	0.38
274.205	13.38
274.34	12.38
274.475	14.38
274.61	9.38
274.745	2.38
274.88	14.38
275.015	-0.62
275.15	16.38
275.285	11.38
275.42	21.38
275.555	35.38
275.69	-3.62
275.825	-13.62
275.959	-7.62
276.094	0.38
276.229	-7.62
276.364	-6.62
276.499	0.38
276.634	13.38
276.768	10.38
276.903	16.38
277.038	27.38
277.173	22.38
277.308	0.38
277.442	5.38
277.577	-5.62
277.712	-1.62
277.847	-1.62
277.981	21.38
278.116	-23.62
278.251	23.38
278.386	17.38
278.52	18.38
278.655	16.38
278.79	15.38
278.924	14.38
279.059	31.38
279.194	-11.62
279.328	32.38
279.463	23.38
279.598	15.38
279.732	19.38
279.867	24.38
280.001	7.38
280.136	18.38
280.271	-1.62
280.405	19.38
280.54	-1.62
280.674	-2.62
280.809	25.38
280.943	9.38
281.078	10.38
281.213	29.38
281.347	-2.62
281.482	7.38
281.616	-0.62
281.751	15.38
281.885	-2.62
282.02	-4.62
282.154	2.38
282.288	-1.62
282.423	5.38
282.557	4.38
282.692	8.38
282.826	4.38
282.961	10.38
283.095	3.38
283.229	13.38
283.364	-2.62
283.498	-4.62
283.633	9.38
283.767	-0.62
283.901	-2.62
284.036	18.38
284.17	0.38
284.304	8.38
284.439	8.38
284.573	2.38
284.707	3.38
284.842	-18.62
284.976	-10.62
285.11	-10.62
285.244	11.38
285.379	42.38
285.513	6.38
285.647	7.38
285.781	1.38
285.916	24.38
286.05	-2.62
286.184	15.38
286.318	-6.62
286.453	-4.62
286.587	-5.62
286.721	-2.62
286.855	21.38
286.989	24.38
287.123	6.38
287.258	-9.62
287.392	6.38
287.526	-4.62
287.66	-7.62
287.794	17.38
287.928	4.38
288.062	1.38
288.196	2.38
288.33	19.38
288.464	14.38
288.598	2.38
288.733	-9.62
288.867	18.38
289.001	16.38
289.135	-3.62
289.269	-16.62
289.403	-3.62
289.537	17.38
289.671	9.38
289.805	-7.62
289.939	6.38
290.073	-9.62
290.207	18.38
290.34	-4.62
290.474	3.38
290.608	19.38
290.742	-27.62
290.876	-6.62
291.01	-8.62
291.144	10.38
291.278	8.38
291.412	1.38
291.546	-15.62
291.679	-14.62
291.813	23.38
291.947	-2.62
292.081	18.38
292.215	1.38
292.349	25.38
292.482	18.38
292.616	-3.62
292.75	12.38
292.884	1.38
293.018	-5.62
293.151	-3.62
293.285	3.38
293.419	6.38
293.553	4.38
293.686	-13.62
293.82	12.38
293.954	11.38
294.088	29.38
294.221	-1.62
294.355	-10.62
294.489	6.38
294.622	-4.62
294.756	10.38
294.89	-0.62
295.023	-4.62
295.157	14.38
295.291	28.38
295.424	32.38
295.558	13.38
295.691	-0.62
295.825	-27.62
295.959	-0.62
296.092	-9.62
296.226	7.38
296.359	8.38
296.493	5.38
296.627	15.38
296.76	3.38
296.894	2.38
297.027	2.38
297.161	14.38
297.294	-10.62
297.428	-20.62
297.561	23.38
297.695	2.38
297.828	-8.62
297.962	8.38
298.095	0.38
298.229	-9.62
298.362	-8.62
298.495	1.38
298.629	-17.62
298.762	3.38
298.896	3.38
299.029	-8.62
299.162	4.38
299.296	3.38
299.429	-6.62
299.563	8.38
299.696	-0.62
299.829	17.38
299.963	23.38
300.096	21.38
300.229	4.38
300.363	3.38
300.496	16.38
300.629	6.38
300.763	-0.62
300.896	18.38
301.029	16.38
301.162	12.38
301.296	-5.62
301.429	1.38
301.562	-17.62
301.695	-8.62
301.829	4.38
301.962	18.38
302.095	-1.62
302.228	-3.62
302.362	1.38
302.495	-12.62
302.628	8.38
302.761	-5.62
302.894	-2.62
303.027	16.38
303.161	-8.62
303.294	-0.62
303.427	34.38
303.56	7.38
303.693	12.38
303.826	-4.62
303.959	5.38
304.092	19.38
304.225	1.38
304.359	12.38
304.492	20.38
304.625	-2.62
304.758	22.38
304.891	-15.62
305.024	7.38
305.157	-8.62
305.29	-12.62
305.423	1.38
305.556	10.38
305.689	31.38
305.822	14.38
305.955	-3.62
306.088	-11.62
306.221	-2.62
306.354	-8.62
306.487	9.38
306.62	-3.62
306.752	2.38
306.885	20.38
307.018	1.38
307.151	13.38
307.284	14.38
307.417	-13.62
307.55	10.38
307.683	18.38
307.816	19.38
307.948	14.38
308.081	15.38
308.214	-1.62
308.347	27.38
308.48	15.38
308.613	-8.62
308.745	8.38
308.878	-2.62
309.011	-3.62
309.144	9.38
309.277	-11.62
309.409	2.38
309.542	9.38
309.675	19.38
309.808	3.38
309.94	23.38
310.073	-3.62
310.206	-11.62
310.339	11.38
310.471	-15.62
310.604	27.38
310.737	16.38
310.869	11.38
311.002	2.38
311.135	8.38
311.267	-16.62
311.4	8.38
311.533	19.38
311.665	13.38
311.798	8.38
311.93	23.38
312.063	30.38
312.196	58.38
312.328	71.38
312.461	60.38
312.593	31.38
312.726	63.38
312.859	99.38
312.991	170.38
313.124	50.38
313.256	21.38
313.389	-0.62
313.521	4.38
313.654	3.38
313.786	-6.62
313.919	-11.62
314.051	-1.62
314.184	8.38
314.316	10.38
314.449	-1.62
314.581	11.38
314.714	3.38
314.846	11.38
314.978	-2.62
315.111	-13.62
315.243	12.38
315.376	4.38
315.508	0.38
315.641	-4.62
315.773	7.38
315.905	-12.62
316.038	0.38
316.17	-2.62
316.302	4.38
316.435	-9.62
316.567	-4.62
316.699	15.38
316.832	-2.62
316.964	8.38
317.096	-2.62
317.229	-9.62
317.361	-5.62
317.493	0.38
317.625	-1.62
317.758	-4.62
317.89	20.38
318.022	3.38
318.155	-13.62
318.287	-3.62
318.419	6.38
318.551	1.38
318.683	-0.62
318.816	-5.62
318.948	2.38
319.08	6.38
319.212	0.38
319.344	4.38
319.477	7.38
319.609	5.38
319.741	10.38
319.873	15.38
320.005	-9.62
320.137	0.38
320.269	-14.62
320.401	6.38
320.534	-22.62
320.666	-5.62
320.798	-5.62
320.93	-7.62
321.062	9.38
321.194	-5.62
321.326	-1.62
321.458	-5.62
321.59	-5.62
321.722	-5.62
321.854	11.38
321.986	12.38
322.118	11.38
322.25	-1.62
322.382	6.38
322.514	12.38
322.646	-0.62
322.778	9.38
322.91	-19.62
323.042	6.38
323.174	13.38
323.306	11.38
323.438	-16.62
323.57	14.38
323.702	3.38
323.834	-5.62
323.966	-3.62
324.097	-5.62
324.229	19.38
324.361	13.38
324.493	15.38
324.625	-3.62
324.757	1.38
324.889	-4.62
325.021	2.38
325.152	8.38
325.284	26.38
325.416	-3.62
325.548	10.38
325.68	-12.62
325.811	9.38
325.943	7.38
326.075	-20.62
326.207	7.38
326.339	13.38
326.47	5.38
326.602	14.38
326.734	6.38
326.866	1.38
326.997	-6.62
327.129	9.38
327.261	1.38
327.392	17.38
327.524	2.38
327.656	9.38
327.787	22.38
327.919	7.38
328.051	25.38
328.182	24.38
328.314	16.38
328.446	12.38
328.577	38.38
328.709	15.38
328.841	-15.62
328.972	11.38
329.104	-1.62
329.235	-2.62
329.367	3.38
329.499	10.38
329.63	13.38
329.762	7.38
329.893	18.38
330.025	4.38
330.156	-17.62
330.288	13.38
330.419	26.38
330.551	16.38
330.683	9.38
330.814	9.38
330.946	18.38
331.077	-15.62
331.208	14.38
331.34	-8.62
331.471	-9.62
331.603	4.38
331.734	8.38
331.866	-1.62
331.997	2.38
332.129	5.38
332.26	9.38
332.392	16.38
332.523	14.38
332.654	9.38
332.786	16.38
332.917	-8.62
333.048	26.38
333.18	36.38
333.311	-1.62
333.443	4.38
333.574	24.38
333.705	48.38
333.837	50.38
333.968	130.38
334.099	242.38
334.231	214.38
334.362	63.38
334.493	44.38
334.624	28.38
334.756	22.38
334.887	6.38
335.018	-5.62
335.15	21.38
335.281	12.38
335.412	27.38
335.543	8.38
335.675	-13.62
335.806	16.38
335.937	0.38
336.068	11.38
336.199	34.38
336.331	17.38
336.462	12.38
336.593	1.38
336.724	-1.62
336.855	25.38
336.986	14.38
337.118	17.38
337.249	17.38
337.38	16.38
337.511	-3.62
337.642	3.38
337.773	-5.62
337.904	23.38
338.035	16.38
338.166	7.38
338.298	16.38
338.429	16.38
338.56	27.38
338.691	16.38
338.822	2.38
338.953	26.38
339.084	23.38
339.215	23.38
339.346	37.38
339.477	9.38
339.608	11.38
339.739	21.38
339.87	-1.62
340.001	3.38
340.132	27.38
340.263	8.38
340.394	7.38
340.525	5.38
340.656	16.38
340.787	5.38
340.918	24.38
341.049	18.38
341.179	-1.62
341.31	29.38
341.441	21.38
341.572	27.38
341.703	22.38
341.834	1.38
341.965	20.38
342.096	7.38
342.227	19.38
342.357	9.38
342.488	21.38
342.619	25.38
342.75	18.38
342.881	8.38
343.012	36.38
343.142	42.38
343.273	23.38
343.404	24.38
343.535	36.38
343.666	26.38
343.796	39.38
343.927	34.38
344.058	47.38
344.189	40.38
344.319	29.38
344.45	20.38
344.581	31.38
344.712	9.38
344.842	32.38
344.973	33.38
345.104	25.38
345.234	11.38
345.365	12.38
345.496	21.38
345.626	49.38
345.757	27.38
345.888	15.38
346.018	25.38
346.149	26.38
346.28	57.38
346.41	18.38
346.541	32.38
346.672	27.38
346.802	60.38
346.933	19.38
347.063	18.38
347.194	8.38
347.325	34.38
347.455	40.38
347.586	45.38
347.716	23.38
347.847	43.38
347.977	29.38
348.108	54.38
348.238	46.38
348.369	46.38
348.499	36.38
348.63	46.38
348.76	32.38
348.891	37.38
349.021	55.38
349.152	50.38
349.282	41.38
349.413	49.38
349.543	65.38
349.674	38.38
349.804	57.38
349.935	26.38
350.065	33.38
350.196	22.38
350.326	34.38
350.456	25.38
350.587	43.38
350.717	28.38
350.848	18.38
350.978	30.38
351.108	3.38
351.239	34.38
351.369	7.38
351.499	16.38
351.63	21.38
351.76	31.38
351.89	4.38
352.021	25.38
352.151	18.38
352.281	29.38
352.412	35.38
352.542	48.38
352.672	11.38
352.803	32.38
352.933	35.38
353.063	42.38
353.193	30.38
353.324	23.38
353.454	42.38
353.584	44.38
353.714	34.38
353.845	24.38
353.975	28.38
354.105	16.38
354.235	24.38
354.365	27.38
354.496	28.38
354.626	26.38
354.756	35.38
354.886	29.38
355.016	35.38
355.146	19.38
355.277	46.38
355.407	17.38
355.537	30.38
355.667	28.38
355.797	17.38
355.927	-1.62
356.057	26.38
356.187	22.38
356.318	14.38
356.448	26.38
356.578	27.38
356.708	44.38
356.838	44.38
356.968	28.38
357.098	45.38
357.228	38.38
357.358	23.38
357.488	31.38
357.618	57.38
357.748	44.38
357.878	33.38
358.008	26.38
358.138	15.38
358.268	39.38
358.398	38.38
358.528	15.38
358.658	26.38
358.788	42.38
358.918	37.38
359.048	20.38
359.178	34.38
359.308	33.38
359.438	51.38
359.568	48.38
359.698	34.38
359.827	27.38
359.957	35.38
360.087	22.38
360.217	20.38
360.347	35.38
360.477	21.38
360.607	9.38
360.737	25.38
360.866	15.38
360.996	11.38
361.126	12.38
361.256	55.38
361.386	41.38
361.516	40.38
361.645	13.38
361.775	33.38
361.905	-11.62
362.035	17.38
362.165	32.38
362.294	63.38
362.424	69.38
362.554	43.38
362.684	42.38
362.813	46.38
362.943	48.38
363.073	61.38
363.203	60.38
363.332	79.38
363.462	63.38
363.592	99.38
363.721	111.38
363.851	153.38
363.981	202.38
364.111	243.38
364.24	322.38
364.37	513.38
364.5	847.38
364.629	1812.38
364.759	3916.38
364.888	6366.38
365.018	9486.38
365.148	14855.38
365.277	13077.38
365.407	4848.38
365.537	3153.38
365.666	4106.38
365.796	1852.38
365.925	813.38
366.055	780.38
366.184	1047.38
366.314	1440.38
366.444	2497.38
366.573	2148.38
366.703	693.38
366.832	222.38
366.962	107.38
367.091	95.38
367.221	73.38
367.35	57.38
367.48	70.38
367.609	48.38
367.739	51.38
367.868	25.38
367.998	56.38
368.127	60.38
368.257	57.38
368.386	70.38
368.516	70.38
368.645	48.38
368.775	70.38
368.904	35.38
369.033	37.38
369.163	11.38
369.292	34.38
369.422	47.38
369.551	38.38
369.68	40.38
369.81	37.38
369.939	26.38
370.069	43.38
370.198	51.38
370.327	34.38
370.457	36.38
370.586	56.38
370.715	34.38
370.845	47.38
370.974	58.38
371.103	54.38
371.233	66.38
371.362	50.38
371.491	39.38
371.621	62.38
371.75	59.38
371.879	49.38
372.008	40.38
372.138	33.38
372.267	60.38
372.396	54.38
372.525	46.38
372.655	37.38
372.784	27.38
372.913	28.38
373.042	31.38
373.172	52.38
373.301	10.38
373.43	10.38
373.559	27.38
373.688	29.38
373.818	43.38
373.947	36.38
374.076	14.38
374.205	36.38
374.334	29.38
374.463	1.38
374.593	22.38
374.722	15.38
374.851	36.38
374.98	12.38
375.109	23.38
375.238	23.38
375.367	45.38
375.496	19.38
375.625	-0.62
375.755	43.38
375.884	46.38
376.013	28.38
376.142	8.38
376.271	12.38
376.4	32.38
376.529	28.38
376.658	18.38
376.787	19.38
376.916	26.38
377.045	23.38
377.174	24.38
377.303	15.38
377.432	71.38
377.561	21.38
377.69	19.38
377.819	49.38
377.948	19.38
378.077	23.38
378.206	4.38
378.335	27.38
378.464	1.38
378.593	41.38
378.722	10.38
378.851	14.38
378.98	32.38
379.108	8.38
379.237	3.38
379.366	29.38
379.495	37.38
379.624	29.38
379.753	24.38
379.882	17.38
380.011	18.38
380.14	12.38
380.268	27.38
380.397	9.38
380.526	34.38
380.655	16.38
380.784	-13.62
380.913	8.38
381.041	23.38
381.17	2.38
381.299	15.38
381.428	15.38
381.557	34.38
381.685	18.38
381.814	28.38
381.943	27.38
382.072	10.38
382.2	0.38
382.329	20.38
382.458	21.38
382.587	48.38
382.715	22.38
382.844	11.38
382.973	13.38
383.102	11.38
383.23	34.38
383.359	7.38
383.488	33.38
383.616	37.38
383.745	12.38
383.874	7.38
384.003	14.38
384.131	13.38
384.26	16.38
384.389	26.38
384.517	5.38
384.646	5.38
384.774	28.38
384.903	42.38
385.032	38.38
385.16	16.38
385.289	10.38
385.418	28.38
385.546	41.38
385.675	27.38
385.803	32.38
385.932	20.38
386.06	15.38
386.189	24.38
386.318	18.38
386.446	22.38
386.575	32.38
386.703	40.38
386.832	31.38
386.96	10.38
387.089	31.38
387.217	39.38
387.346	15.38
387.474	20.38
387.603	15.38
387.731	30.38
387.86	27.38
387.988	29.38
388.117	22.38
388.245	35.38
388.374	7.38
388.502	31.38
388.631	9.38
388.759	10.38
388.888	13.38
389.016	9.38
389.144	54.38
389.273	26.38
389.401	7.38
389.53	4.38
389.658	51.38
389.786	8.38
389.915	8.38
390.043	19.38
390.172	21.38
390.3	46.38
390.428	25.38
390.557	18.38
390.685	42.38
390.813	33.38
390.942	53.38
391.07	26.38
391.198	10.38
391.327	19.38
391.455	15.38
391.583	34.38
391.712	22.38
391.84	20.38
391.968	1.38
392.096	14.38
392.225	13.38
392.353	25.38
392.481	3.38
392.609	34.38
392.738	33.38
392.866	53.38
392.994	33.38
393.122	47.38
393.251	39.38
393.379	35.38
393.507	16.38
393.635	5.38
393.764	29.38
393.892	34.38
394.02	34.38
394.148	23.38
394.276	26.38
394.404	40.38
394.533	13.38
394.661	32.38
394.789	45.38
394.917	47.38
395.045	20.38
395.173	14.38
395.302	19.38
395.43	41.38
395.558	39.38
395.686	31.38
395.814	35.38
395.942	23.38
396.07	38.38
396.198	44.38
396.326	41.38
396.454	37.38
396.582	41.38
396.711	20.38
396.839	40.38
396.967	36.38
397.095	37.38
397.223	42.38
397.351	49.38
397.479	50.38
397.607	33.38
397.735	50.38
397.863	57.38
397.991	61.38
398.119	28.38
398.247	80.38
398.375	37.38
398.503	34.38
398.631	38.38
398.759	56.38
398.887	62.38
399.015	51.38
399.143	72.38
399.271	76.38
399.399	57.38
399.526	70.38
399.654	91.38
399.782	61.38
399.91	80.38
400.038	87.38
400.166	93.38
400.294	89.38
400.422	83.38
400.55	114.38
400.678	119.38
400.805	111.38
400.933	104.38
401.061	129.38
401.189	108.38
401.317	144.38
401.445	110.38
401.573	65.38
401.7	61.38
401.828	62.38
401.956	56.38
402.084	40.38
402.212	54.38
402.34	41.38
402.467	34.38
402.595	37.38
402.723	49.38
402.851	67.38
402.978	52.38
403.106	74.38
403.234	75.38
403.362	132.38
403.489	123.38
403.617	150.38
403.745	203.38
403.873	293.38
404	573.38
404.128	1486.38
404.256	3947.38
404.384	5184.38
404.511	5528.38
404.639	7292.38
404.767	11552.38
404.894	14734.38
405.022	4955.38
405.15	1327.38
405.277	442.38
405.405	243.38
405.533	152.38
405.66	124.38
405.788	59.38
405.916	70.38
406.043	51.38
406.171	68.38
406.299	55.38
406.426	71.38
406.554	76.38
406.681	75.38
406.809	60.38
406.937	74.38
407.064	65.38
407.192	138.38
407.319	312.38
407.447	536.38
407.574	563.38
407.702	636.38
407.83	875.38
407.957	1623.38
408.085	945.38
408.212	272.38
408.34	95.38
408.467	64.38
408.595	49.38
408.722	51.38
408.85	53.38
408.977	34.38
409.105	22.38
409.232	32.38
409.36	39.38
409.487	26.38
409.615	18.38
409.742	38.38
409.87	31.38
409.997	43.38
410.125	34.38
410.252	47.38
410.379	11.38
410.507	49.38
410.634	41.38
410.762	21.38
410.889	40.38
411.017	39.38
411.144	36.38
411.271	26.38
411.399	25.38
411.526	31.38
411.653	19.38
411.781	32.38
411.908	44.38
412.036	19.38
412.163	48.38
412.29	45.38
412.418	27.38
412.545	31.38
412.672	11.38
412.8	62.38
412.927	51.38
413.054	44.38
413.182	29.38
413.309	15.38
413.436	27.38
413.564	22.38
413.691	26.38
413.818	47.38
413.945	8.38
414.073	2.38
414.2	37.38
414.327	35.38
414.454	48.38
414.582	47.38
414.709	22.38
414.836	14.38
414.963	27.38
415.091	30.38
415.218	24.38
415.345	38.38
415.472	27.38
415.6	30.38
415.727	41.38
415.854	23.38
415.981	27.38
416.108	47.38
416.236	29.38
416.363	29.38
416.49	10.38
416.617	33.38
416.744	44.38
416.871	55.38
416.998	42.38
417.126	38.38
417.253	26.38
417.38	45.38
417.507	39.38
417.634	31.38
417.761	50.38
417.888	46.38
418.015	35.38
418.143	45.38
418.27	29.38
418.397	19.38
418.524	27.38
418.651	28.38
418.778	41.38
418.905	53.38
419.032	50.38
419.159	30.38
419.286	71.38
419.413	51.38
419.54	46.38
419.667	41.38
419.794	50.38
419.921	54.38
420.048	46.38
420.175	57.38
420.302	46.38
420.429	75.38
420.556	60.38
420.683	50.38
420.81	67.38
420.937	68.38
421.064	66.38
421.191	68.38
421.318	66.38
421.445	89.38
421.572	49.38
421.699	51.38
421.826	43.38
421.953	42.38
422.08	28.38
422.207	22.38
422.334	6.38
422.461	27.38
422.588	15.38
422.714	37.38
422.841	55.38
422.968	36.38
423.095	28.38
423.222	15.38
423.349	26.38
423.476	31.38
423.603	37.38
423.729	20.38
423.856	27.38
423.983	17.38
424.11	1.38
424.237	31.38
424.364	20.38
424.491	37.38
424.617	15.38
424.744	15.38
424.871	30.38
424.998	21.38
425.125	19.38
425.251	33.38
425.378	26.38
425.505	28.38
425.632	35.38
425.758	19.38
425.885	25.38
426.012	35.38
426.139	39.38
426.266	23.38
426.392	32.38
426.519	45.38
426.646	20.38
426.772	25.38
426.899	13.38
427.026	29.38
427.153	15.38
427.279	36.38
427.406	26.38
427.533	16.38
427.659	32.38
427.786	20.38
427.913	39.38
428.039	15.38
428.166	17.38
428.293	19.38
428.419	34.38
428.546	34.38
428.673	23.38
428.799	7.38
428.926	25.38
429.053	44.38
429.179	47.38
429.306	15.38
429.433	43.38
429.559	36.38
429.686	18.38
429.812	26.38
429.939	31.38
430.066	33.38
430.192	27.38
430.319	29.38
430.445	38.38
430.572	38.38
430.699	23.38
430.825	20.38
430.952	53.38
431.078	39.38
431.205	43.38
431.331	25.38
431.458	36.38
431.584	30.38
431.711	-0.62
431.837	20.38
431.964	20.38
432.09	46.38
432.217	8.38
432.343	26.38
432.47	42.38
432.596	23.38
432.723	19.38
432.849	14.38
432.976	32.38
433.102	28.38
433.229	31.38
433.355	51.38
433.482	80.38
433.608	119.38
433.735	109.38
433.861	115.38
433.987	155.38
434.114	195.38
434.24	177.38
434.367	224.38
434.493	222.38
434.62	273.38
434.746	404.38
434.872	631.38
434.999	828.38
435.125	1771.38
435.252	5659.38
435.378	13493.38
435.504	15252.38
435.631	15460.38
435.757	15685.38
435.883	15685.38
436.01	15685.38
436.136	15685.38
436.262	15685.38
436.389	3499.38
436.515	2589.38
436.641	898.38
436.768	655.38
436.894	411.38
437.02	405.38
437.147	328.38
437.273	306.38
437.399	218.38
437.526	242.38
437.652	201.38
437.778	200.38
437.904	153.38
438.031	164.38
438.157	138.38
438.283	158.38
438.409	115.38
438.536	126.38
438.662	126.38
438.788	113.38
438.914	105.38
439.041	117.38
439.167	117.38
439.293	105.38
439.419	100.38
439.546	102.38
439.672	92.38
439.798	97.38
439.924	92.38
440.05	88.38
440.177	75.38
440.303	70.38
440.429	73.38
440.555	85.38
440.681	66.38
440.807	79.38
440.934	72.38
441.06	62.38
441.186	53.38
441.312	57.38
441.438	82.38
441.564	65.38
441.69	72.38
441.816	83.38
441.943	48.38
442.069	60.38
442.195	54.38
442.321	74.38
442.447	55.38
442.573	55.38
442.699	28.38
442.825	43.38
442.951	60.38
443.077	73.38
443.203	48.38
443.33	42.38
443.456	31.38
443.582	80.38
443.708	55.38
443.834	60.38
443.96	49.38
444.086	46.38
444.212	65.38
444.338	62.38
444.464	56.38
444.59	52.38
444.716	38.38
444.842	61.38
444.968	30.38
445.094	44.38
445.22	19.38
445.346	38.38
445.472	49.38
445.598	42.38
445.724	50.38
445.85	49.38
445.976	32.38
446.102	43.38
446.228	50.38
446.354	31.38
446.48	24.38
446.605	45.38
446.731	31.38
446.857	21.38
446.983	44.38
447.109	28.38
447.235	37.38
447.361	14.38
447.487	34.38
447.613	50.38
447.739	50.38
447.865	21.38
447.99	35.38
448.116	32.38
448.242	39.38
448.368	67.38
448.494	40.38
448.62	25.38
448.746	20.38
448.872	32.38
448.997	28.38
449.123	45.38
449.249	48.38
449.375	40.38
449.501	27.38
449.627	12.38
449.752	57.38
449.878	28.38
450.004	20.38
450.13	40.38
450.256	18.38
450.381	30.38
450.507	33.38
450.633	36.38
450.759	32.38
450.884	23.38
451.01	41.38
451.136	19.38
451.262	41.38
451.388	24.38
451.513	36.38
451.639	33.38
451.765	22.38
451.89	29.38
452.016	21.38
452.142	48.38
452.268	47.38
452.393	35.38
452.519	22.38
452.645	28.38
452.771	35.38
452.896	31.38
453.022	20.38
453.148	50.38
453.273	30.38
453.399	31.38
453.525	17.38
453.65	40.38
453.776	45.38
453.902	46.38
454.027	49.38
454.153	35.38
454.279	48.38
454.404	35.38
454.53	41.38
454.656	56.38
454.781	11.38
454.907	31.38
455.032	25.38
455.158	47.38
455.284	46.38
455.409	33.38
455.535	34.38
455.66	33.38
455.786	35.38
455.912	50.38
456.037	23.38
456.163	45.38
456.288	32.38
456.414	10.38
456.539	24.38
456.665	42.38
456.791	43.38
456.916	41.38
457.042	29.38
457.167	34.38
457.293	19.38
457.418	17.38
457.544	15.38
457.669	24.38
457.795	44.38
457.92	35.38
458.046	32.38
458.171	28.38
458.297	26.38
458.422	18.38
458.548	10.38
458.673	36.38
458.799	26.38
458.924	15.38
459.05	37.38
459.175	10.38
459.301	21.38
459.426	42.38
459.552	29.38
459.677	19.38
459.803	56.38
459.928	29.38
460.053	39.38
460.179	35.38
460.304	24.38
460.43	24.38
460.555	22.38
460.681	13.38
460.806	13.38
460.931	23.38
461.057	32.38
461.182	27.38
461.308	22.38
461.433	27.38
461.558	8.38
461.684	42.38
461.809	24.38
461.934	46.38
462.06	36.38
462.185	11.38
462.311	34.38
462.436	30.38
462.561	30.38
462.687	18.38
462.812	22.38
462.937	15.38
463.063	18.38
463.188	17.38
463.313	30.38
463.439	11.38
463.564	27.38
463.689	11.38
463.814	23.38
463.94	29.38
464.065	58.38
464.19	38.38
464.316	28.38
464.441	18.38
464.566	12.38
464.692	17.38
464.817	24.38
464.942	16.38
465.067	36.38
465.193	2.38
465.318	22.38
465.443	23.38
465.568	29.38
465.694	31.38
465.819	35.38
465.944	43.38
466.069	29.38
466.194	40.38
466.32	41.38
466.445	24.38
466.57	32.38
466.695	18.38
466.82	44.38
466.946	44.38
467.071	47.38
467.196	46.38
467.321	43.38
467.446	35.38
467.572	29.38
467.697	22.38
467.822	39.38
467.947	58.38
468.072	24.38
468.197	27.38
468.323	26.38
468.448	20.38
468.573	20.38
468.698	24.38
468.823	37.38
468.948	35.38
469.073	44.38
469.198	47.38
469.324	51.38
469.449	36.38
469.574	54.38
469.699	53.38
469.824	52.38
469.949	35.38
470.074	39.38
470.199	52.38
470.324	37.38
470.449	26.38
470.574	14.38
470.7	40.38
470.825	35.38
470.95	41.38
471.075	17.38
471.2	37.38
471.325	44.38
471.45	45.38
471.575	37.38
471.7	18.38
471.825	23.38
471.95	20.38
472.075	21.38
472.2	35.38
472.325	32.38
472.45	10.38
472.575	29.38
472.7	29.38
472.825	55.38
472.95	49.38
473.075	32.38
473.2	24.38
473.325	52.38
473.45	29.38
473.575	26.38
473.7	51.38
473.825	18.38
473.95	24.38
474.075	32.38
474.2	31.38
474.325	28.38
474.45	34.38
474.574	26.38
474.699	35.38
474.824	37.38
474.949	13.38
475.074	3.38
475.199	40.38
475.324	15.38
475.449	8.38
475.574	26.38
475.699	33.38
475.824	28.38
475.949	45.38
476.073	28.38
476.198	23.38
476.323	27.38
476.448	46.38
476.573	23.38
476.698	37.38
476.823	27.38
476.947	29.38
477.072	17.38
477.197	32.38
477.322	39.38
477.447	5.38
477.572	23.38
477.697	0.38
477.821	14.38
477.946	30.38
478.071	26.38
478.196	36.38
478.321	17.38
478.445	18.38
478.57	32.38
478.695	22.38
478.82	32.38
478.945	31.38
479.069	6.38
479.194	19.38
479.319	17.38
479.444	11.38
479.569	22.38
479.693	39.38
479.818	24.38
479.943	59.38
480.068	31.38
480.192	40.38
480.317	15.38
480.442	14.38
480.567	5.38
480.691	10.38
480.816	23.38
480.941	9.38
481.066	21.38
481.19	24.38
481.315	33.38
481.44	22.38
481.564	28.38
481.689	25.38
481.814	35.38
481.938	21.38
482.063	10.38
482.188	19.38
482.313	35.38
482.437	33.38
482.562	27.38
482.687	11.38
482.811	32.38
482.936	24.38
483.061	23.38
483.185	33.38
483.31	32.38
483.435	29.38
483.559	28.38
483.684	21.38
483.808	44.38
483.933	20.38
484.058	12.38
484.182	37.38
484.307	28.38
484.432	22.38
484.556	25.38
484.681	10.38
484.805	27.38
484.93	15.38
485.055	23.38
485.179	44.38
485.304	15.38
485.428	25.38
485.553	27.38
485.678	13.38
485.802	44.38
485.927	30.38
486.051	26.38
486.176	19.38
486.3	7.38
486.425	24.38
486.549	37.38
486.674	35.38
486.799	26.38
486.923	18.38
487.048	22.38
487.172	16.38
487.297	25.38
487.421	17.38
487.546	28.38
487.67	22.38
487.795	5.38
487.919	13.38
488.044	12.38
488.168	19.38
488.293	13.38
488.417	9.38
488.542	44.38
488.666	17.38
488.791	26.38
488.915	15.38
489.04	30.38
489.164	24.38
489.289	45.38
489.413	10.38
489.538	38.38
489.662	28.38
489.786	11.38
489.911	16.38
490.035	26.38
490.16	24.38
490.284	18.38
490.409	7.38
490.533	28.38
490.658	58.38
490.782	30.38
490.906	59.38
491.031	116.38
491.155	140.38
491.28	148.38
491.404	179.38
491.528	274.38
491.653	152.38
491.777	55.38
491.902	35.38
492.026	42.38
492.15	62.38
492.275	57.38
492.399	30.38
492.524	6.38
492.648	43.38
492.772	40.38
492.897	30.38
493.021	25.38
493.145	41.38
493.27	24.38
493.394	16.38
493.518	7.38
493.643	-10.62
493.767	26.38
493.891	19.38
494.016	16.38
494.14	22.38
494.264	19.38
494.389	30.38
494.513	20.38
494.637	1.38
494.762	27.38
494.886	33.38
495.01	32.38
495.134	18.38
495.259	41.38
495.383	9.38
495.507	18.38
495.632	27.38
495.756	50.38
495.88	24.38
496.004	30.38
496.129	9.38
496.253	3.38
496.377	35.38
496.501	27.38
496.626	19.38
496.75	26.38
496.874	29.38
496.998	11.38
497.123	30.38
497.247	32.38
497.371	20.38
497.495	22.38
497.62	25.38
497.744	10.38
497.868	14.38
497.992	24.38
498.116	21.38
498.241	39.38
498.365	18.38
498.489	25.38
498.613	37.38
498.737	18.38
498.862	5.38
498.986	16.38
499.11	32.38
499.234	37.38
499.358	14.38
499.482	11.38
499.607	25.38
499.731	23.38
499.855	33.38
499.979	18.38
500.103	30.38
500.227	39.38
500.351	18.38
500.476	35.38
500.6	25.38
500.724	22.38
500.848	12.38
500.972	24.38
501.096	17.38
501.22	36.38
501.344	24.38
501.469	20.38
501.593	19.38
501.717	40.38
501.841	9.38
501.965	23.38
502.089	12.38
502.213	28.38
502.337	11.38
502.461	14.38
502.585	28.38
502.709	24.38
502.834	18.38
502.958	28.38
503.082	19.38
503.206	12.38
503.33	25.38
503.454	37.38
503.578	46.38
503.702	36.38
503.826	18.38
503.95	52.38
504.074	20.38
504.198	9.38
504.322	-9.62
504.446	13.38
504.57	24.38
504.694	20.38
504.818	3.38
504.942	28.38
505.066	21.38
505.19	20.38
505.314	27.38
505.438	37.38
505.562	14.38
505.686	34.38
505.81	24.38
505.934	23.38
506.058	11.38
506.182	24.38
506.306	35.38
506.43	23.38
506.554	34.38
506.678	18.38
506.802	6.38
506.926	12.38
507.05	24.38
507.174	37.38
507.298	28.38
507.422	25.38
507.546	39.38
507.67	41.38
507.794	12.38
507.918	19.38
508.042	35.38
508.165	8.38
508.289	24.38
508.413	16.38
508.537	31.38
508.661	40.38
508.785	31.38
508.909	33.38
509.033	41.38
509.157	40.38
509.281	24.38
509.405	44.38
509.528	54.38
509.652	30.38
509.776	17.38
509.9	32.38
510.024	31.38
510.148	40.38
510.272	35.38
510.396	29.38
510.519	27.38
510.643	50.38
510.767	42.38
510.891	46.38
511.015	36.38
511.139	40.38
511.263	64.38
511.386	41.38
511.51	35.38
511.634	34.38
511.758	39.38
511.882	46.38
512.006	35.38
512.129	65.38
512.253	100.38
512.377	72.38
512.501	96.38
512.625	96.38
512.748	81.38
512.872	74.38
512.996	57.38
513.12	58.38
513.244	58.38
513.367	62.38
513.491	72.38
513.615	78.38
513.739	66.38
513.862	82.38
513.986	86.38
514.11	101.38
514.234	98.38
514.358	102.38
514.481	115.38
514.605	127.38
514.729	135.38
514.853	130.38
514.976	117.38
515.1	104.38
515.224	119.38
515.348	118.38
515.471	95.38
515.595	102.38
515.719	136.38
515.842	211.38
515.966	282.38
516.09	315.38
516.214	306.38
516.337	320.38
516.461	239.38
516.585	101.38
516.708	56.38
516.832	38.38
516.956	9.38
517.08	22.38
517.203	-0.62
517.327	15.38
517.451	20.38
517.574	37.38
517.698	-7.62
517.822	31.38
517.945	29.38
518.069	33.38
518.193	45.38
518.316	19.38
518.44	18.38
518.564	26.38
518.687	-9.62
518.811	16.38
518.935	59.38
519.058	22.38
519.182	31.38
519.306	28.38
519.429	17.38
519.553	41.38
519.676	28.38
519.8	10.38
519.924	3.38
520.047	42.38
520.171	26.38
520.294	18.38
520.418	23.38
520.542	10.38
520.665	26.38
520.789	26.38
520.913	2.38
521.036	11.38
521.16	17.38
521.283	34.38
521.407	20.38
521.53	10.38
521.654	-5.62
521.778	29.38
521.901	25.38
522.025	7.38
522.148	22.38
522.272	5.38
522.395	20.38
522.519	19.38
522.643	24.38
522.766	20.38
522.89	24.38
523.013	35.38
523.137	2.38
523.26	3.38
523.384	12.38
523.507	31.38
523.631	17.38
523.754	16.38
523.878	13.38
524.002	13.38
524.125	14.38
524.249	18.38
524.372	7.38
524.496	30.38
524.619	18.38
524.743	16.38
524.866	14.38
524.99	10.38
525.113	0.38
525.237	31.38
525.36	35.38
525.484	22.38
525.607	17.38
525.731	8.38
525.854	14.38
525.978	39.38
526.101	17.38
526.224	31.38
526.348	12.38
526.471	18.38
526.595	11.38
526.718	20.38
526.842	7.38
526.965	9.38
527.089	8.38
527.212	27.38
527.336	19.38
527.459	29.38
527.582	12.38
527.706	35.38
527.829	37.38
527.953	26.38
528.076	3.38
528.2	13.38
528.323	11.38
528.446	22.38
528.57	13.38
528.693	32.38
528.817	10.38
528.94	51.38
529.064	41.38
529.187	13.38
529.31	20.38
529.434	19.38
529.557	21.38
529.68	26.38
529.804	13.38
529.927	22.38
530.051	15.38
530.174	22.38
530.297	8.38
530.421	15.38
530.544	34.38
530.668	17.38
530.791	17.38
530.914	29.38
531.038	31.38
531.161	28.38
531.284	32.38
531.408	6.38
531.531	10.38
531.654	16.38
531.778	9.38
531.901	0.38
532.024	22.38
532.148	15.38
532.271	19.38
532.394	0.38
532.518	21.38
532.641	23.38
532.764	43.38
532.888	35.38
533.011	11.38
533.134	12.38
533.258	22.38
533.381	10.38
533.504	17.38
533.628	31.38
533.751	27.38
533.874	33.38
533.997	39.38
534.121	12.38
534.244	13.38
534.367	7.38
534.491	14.38
534.614	12.38
534.737	13.38
534.86	26.38
534.984	18.38
535.107	22.38
535.23	26.38
535.354	17.38
535.477	1.38
535.6	14.38
535.723	22.38
535.847	33.38
535.97	27.38
536.093	24.38
536.216	13.38
536.34	11.38
536.463	12.38
536.586	32.38
536.709	27.38
536.833	38.38
536.956	15.38
537.079	24.38
537.202	44.38
537.325	26.38
537.449	18.38
537.572	16.38
537.695	13.38
537.818	24.38
537.941	8.38
538.065	29.38
538.188	25.38
538.311	26.38
538.434	33.38
538.558	28.38
538.681	31.38
538.804	9.38
538.927	38.38
539.05	32.38
539.173	22.38
539.297	23.38
539.42	35.38
539.543	13.38
539.666	35.38
539.789	31.38
539.913	28.38
540.036	18.38
540.159	22.38
540.282	14.38
540.405	16.38
540.528	19.38
540.651	29.38
540.775	16.38
540.898	27.38
541.021	18.38
541.144	35.38
541.267	39.38
541.39	30.38
541.513	19.38
541.637	34.38
541.76	35.38
541.883	46.38
542.006	56.38
542.129	60.38
542.252	36.38
542.375	20.38
542.498	51.38
542.622	51.38
542.745	38.38
542.868	34.38
542.991	57.38
543.114	47.38
543.237	54.38
543.36	65.38
543.483	49.38
543.606	68.38
543.73	76.38
543.853	51.38
543.976	76.38
544.099	118.38
544.222	147.38
544.345	141.38
544.468	167.38
544.591	235.38
544.714	278.38
544.837	356.38
544.96	461.38
545.083	674.38
545.206	1109.38
545.329	2442.38
545.453	11112.38
545.576	15281.38
545.699	15685.38
545.822	15685.38
545.945	15685.38
546.068	15685.38
546.191	15685.38
546.314	15685.38
546.437	15685.38
546.56	15685.38
546.683	15685.38
546.806	15685.38
546.929	15685.38
547.052	15685.38
547.175	15685.38
547.298	15685.38
547.421	15685.38
547.544	15685.38
547.667	3899.38
547.79	3858.38
547.913	1307.38
548.036	954.38
548.159	670.38
548.282	675.38
548.405	522.38
548.528	493.38
548.651	406.38
548.774	406.38
548.897	344.38
549.02	378.38
549.143	328.38
549.266	298.38
549.389	284.38
549.512	250.38
549.635	255.38
549.758	286.38
549.881	223.38
550.004	231.38
550.127	208.38
550.25	206.38
550.373	173.38
550.496	188.38
550.619	193.38
550.742	162.38
550.865	142.38
550.988	164.38
551.111	171.38
551.234	153.38
551.356	140.38
551.479	135.38
551.602	130.38
551.725	148.38
551.848	139.38
551.971	129.38
552.094	125.38
552.217	121.38
552.34	110.38
552.463	98.38
552.586	108.38
552.709	105.38
552.832	105.38
552.955	124.38
553.077	122.38
553.2	124.38
553.323	95.38
553.446	109.38
553.569	97.38
553.692	109.38
553.815	104.38
553.938	117.38
554.061	95.38
554.184	104.38
554.306	88.38
554.429	101.38
554.552	80.38
554.675	76.38
554.798	87.38
554.921	75.38
555.044	81.38
555.167	82.38
555.29	74.38
555.412	71.38
555.535	77.38
555.658	74.38
555.781	93.38
555.904	83.38
556.027	89.38
556.15	73.38
556.272	76.38
556.395	98.38
556.518	73.38
556.641	83.38
556.764	77.38
556.887	71.38
557.01	64.38
557.132	54.38
557.255	61.38
557.378	88.38
557.501	73.38
557.624	76.38
557.747	64.38
557.869	77.38
557.992	90.38
558.115	96.38
558.238	81.38
558.361	92.38
558.483	95.38
558.606	83.38
558.729	57.38
558.852	67.38
558.975	70.38
559.098	74.38
559.22	44.38
559.343	72.38
559.466	60.38
559.589	55.38
559.712	65.38
559.834	51.38
559.957	39.38
560.08	37.38
560.203	68.38
560.325	62.38
560.448	81.38
560.571	59.38
560.694	70.38
560.817	74.38
560.939	56.38
561.062	46.38
561.185	53.38
561.308	57.38
561.43	44.38
561.553	52.38
561.676	56.38
561.799	75.38
561.921	56.38
562.044	63.38
562.167	65.38
562.29	90.38
562.413	76.38
562.535	70.38
562.658	50.38
562.781	42.38
562.903	76.38
563.026	86.38
563.149	128.38
563.272	124.38
563.394	124.38
563.517	108.38
563.64	75.38
563.763	53.38
563.885	54.38
564.008	61.38
564.131	55.38
564.254	29.38
564.376	39.38
564.499	34.38
564.622	32.38
564.744	47.38
564.867	37.38
564.99	29.38
565.113	21.38
565.235	45.38
565.358	31.38
565.481	27.38
565.603	32.38
565.726	19.38
565.849	61.38
565.971	46.38
566.094	35.38
566.217	38.38
566.34	37.38
566.462	46.38
566.585	43.38
566.708	63.38
566.83	42.38
566.953	47.38
567.076	38.38
567.198	39.38
567.321	40.38
567.444	26.38
567.566	27.38
567.689	32.38
567.812	42.38
567.934	49.38
568.057	58.38
568.18	33.38
568.302	40.38
568.425	36.38
568.548	40.38
568.67	43.38
568.793	36.38
568.916	33.38
569.038	31.38
569.161	27.38
569.283	38.38
569.406	38.38
569.529	26.38
569.651	28.38
569.774	21.38
569.897	25.38
570.019	35.38
570.142	44.38
570.265	35.38
570.387	32.38
570.51	27.38
570.632	43.38
570.755	18.38
570.878	23.38
571	34.38
571.123	25.38
571.246	56.38
571.368	38.38
571.491	46.38
571.613	23.38
571.736	17.38
571.859	32.38
571.981	30.38
572.104	39.38
572.226	33.38
572.349	42.38
572.472	37.38
572.594	20.38
572.717	11.38
572.839	38.38
572.962	17.38
573.085	47.38
573.207	38.38
573.33	42.38
573.452	56.38
573.575	26.38
573.697	35.38
573.82	29.38
573.943	18.38
574.065	22.38
574.188	28.38
574.31	44.38
574.433	51.38
574.555	61.38
574.678	32.38
574.801	51.38
574.923	31.38
575.046	48.38
575.168	28.38
575.291	33.38
575.413	38.38
575.536	33.38
575.659	64.38
575.781	54.38
575.904	53.38
576.026	73.38
576.149	99.38
576.271	121.38
576.394	222.38
576.516	538.38
576.639	3683.38
576.761	10331.38
576.884	8869.38
577.007	8881.38
577.129	8109.38
577.252	3780.38
577.374	1322.38
577.497	530.38
577.619	289.38
577.742	183.38
577.864	157.38
577.987	125.38
578.109	142.38
578.232	136.38
578.354	144.38
578.477	199.38
578.599	393.38
578.722	1975.38
578.844	9168.38
578.967	9855.38
579.089	8784.38
579.212	9163.38
579.334	5347.38
579.457	1975.38
579.579	720.38
579.702	342.38
579.824	221.38
579.947	134.38
580.069	110.38
580.192	74.38
580.314	76.38
580.437	80.38
580.559	90.38
580.682	61.38
580.804	84.38
580.927	72.38
581.049	60.38
581.172	53.38
581.294	51.38
581.417	59.38
581.539	34.38
581.662	47.38
581.784	53.38
581.907	54.38
582.029	50.38
582.152	41.38
582.274	55.38
582.396	53.38
582.519	45.38
582.641	26.38
582.764	39.38
582.886	60.38
583.009	40.38
583.131	16.38
583.254	37.38
583.376	56.38
583.499	47.38
583.621	54.38
583.743	42.38
583.866	45.38
583.988	27.38
584.111	45.38
584.233	47.38
584.356	42.38
584.478	34.38
584.601	14.38
584.723	26.38
584.845	36.38
584.968	35.38
585.09	23.38
585.213	55.38
585.335	28.38
585.458	25.38
585.58	42.38
585.702	43.38
585.825	47.38
585.947	37.38
586.07	15.38
586.192	23.38
586.315	41.38
586.437	15.38
586.559	15.38
586.682	10.38
586.804	35.38
586.927	32.38
587.049	30.38
587.171	30.38
587.294	42.38
587.416	44.38
587.539	26.38
587.661	15.38
587.783	41.38
587.906	35.38
588.028	30.38
588.151	38.38
588.273	53.38
588.395	45.38
588.518	20.38
588.64	35.38
588.763	54.38
588.885	34.38
589.007	34.38
589.13	26.38
589.252	0.38
589.375	18.38
589.497	22.38
589.619	32.38
589.742	39.38
589.864	47.38
589.986	34.38
590.109	28.38
590.231	31.38
590.354	37.38
590.476	16.38
590.598	36.38
590.721	25.38
590.843	40.38
590.965	25.38
591.088	28.38
591.21	12.38
591.332	32.38
591.455	24.38
591.577	26.38
591.7	35.38
591.822	21.38
591.944	29.38
592.067	25.38
592.189	35.38
592.311	42.38
592.434	28.38
592.556	28.38
592.678	30.38
592.801	40.38
592.923	31.38
593.045	7.38
593.168	33.38
593.29	25.38
593.412	15.38
593.535	16.38
593.657	9.38
593.779	19.38
593.902	36.38
594.024	27.38
594.146	51.38
594.269	31.38
594.391	12.38
594.513	24.38
594.636	33.38
594.758	10.38
594.88	28.38
595.003	34.38
595.125	24.38
595.247	23.38
595.37	31.38
595.492	18.38
595.614	43.38
595.737	15.38
595.859	36.38
595.981	30.38
596.104	27.38
596.226	9.38
596.348	22.38
596.471	16.38
596.593	36.38
596.715	22.38
596.838	19.38
596.96	36.38
597.082	15.38
597.204	27.38
597.327	19.38
597.449	3.38
597.571	23.38
597.694	44.38
597.816	40.38
597.938	36.38
598.061	21.38
598.183	33.38
598.305	38.38
598.427	37.38
598.55	34.38
598.672	29.38
598.794	32.38
598.917	15.38
599.039	34.38
599.161	51.38
599.283	30.38
599.406	35.38
599.528	29.38
599.65	27.38
599.773	35.38
599.895	49.38
600.017	36.38
600.139	24.38
600.262	18.38
600.384	31.38
600.506	26.38
600.628	26.38
600.751	27.38
600.873	22.38
600.995	20.38
601.118	29.38
601.24	28.38
601.362	25.38
601.484	34.38
601.607	37.38
601.729	11.38
601.851	22.38
601.973	22.38
602.096	23.38
602.218	32.38
602.34	10.38
602.462	23.38
602.585	23.38
602.707	25.38
602.829	32.38
602.951	6.38
603.074	10.38
603.196	3.38
603.318	7.38
603.44	26.38
603.563	20.38
603.685	15.38
603.807	38.38
603.929	27.38
604.052	32.38
604.174	37.38
604.296	28.38
604.418	26.38
604.541	44.38
604.663	15.38
604.785	28.38
604.907	17.38
605.03	22.38
605.152	36.38
605.274	28.38
605.396	27.38
605.519	27.38
605.641	41.38
605.763	23.38
605.885	20.38
606.008	26.38
606.13	34.38
606.252	32.38
606.374	9.38
606.496	19.38
606.619	34.38
606.741	32.38
606.863	48.38
606.985	37.38
607.108	40.38
607.23	20.38
607.352	14.38
607.474	31.38
607.596	34.38
607.719	13.38
607.841	37.38
607.963	28.38
608.085	19.38
608.207	47.38
608.33	17.38
608.452	19.38
608.574	32.38
608.696	31.38
608.819	22.38
608.941	22.38
609.063	22.38
609.185	14.38
609.307	23.38
609.43	23.38
609.552	19.38
609.674	7.38
609.796	26.38
609.918	26.38
610.041	13.38
610.163	18.38
610.285	36.38
610.407	39.38
610.529	4.38
610.652	18.38
610.774	29.38
610.896	20.38
611.018	15.38
611.14	19.38
611.263	15.38
611.385	21.38
611.507	40.38
611.629	16.38
611.751	35.38
611.873	49.38
611.996	32.38
612.118	32.38
612.24	22.38
612.362	31.38
612.484	48.38
612.607	44.38
612.729	51.38
612.851	36.38
612.973	27.38
613.095	24.38
613.218	39.38
613.34	45.38
613.462	33.38
613.584	23.38
613.706	18.38
613.828	42.38
613.951	19.38
614.073	23.38
614.195	15.38
614.317	30.38
614.439	37.38
614.561	31.38
614.684	35.38
614.806	13.38
614.928	13.38
615.05	31.38
615.172	29.38
615.294	39.38
615.417	10.38
615.539	9.38
615.661	18.38
615.783	46.38
615.905	28.38
616.027	44.38
616.15	36.38
616.272	32.38
616.394	19.38
616.516	0.38
616.638	36.38
616.76	31.38
616.883	28.38
617.005	29.38
617.127	27.38
617.249	18.38
617.371	25.38
617.493	10.38
617.615	41.38
617.738	28.38
617.86	28.38
617.982	30.38
618.104	6.38
618.226	0.38
618.348	7.38
618.471	42.38
618.593	32.38
618.715	0.38
618.837	19.38
618.959	23.38
619.081	39.38
619.203	30.38
619.326	27.38
619.448	44.38
619.57	36.38
619.692	56.38
619.814	36.38
619.936	33.38
620.058	40.38
620.181	22.38
620.303	43.38
620.425	29.38
620.547	20.38
620.669	24.38
620.791	26.38
620.913	14.38
621.036	11.38
621.158	31.38
621.28	26.38
621.402	17.38
621.524	11.38
621.646	19.38
621.768	16.38
621.891	1.38
622.013	15.38
622.135	12.38
622.257	24.38
622.379	1.38
622.501	15.38
622.623	24.38
622.745	11.38
622.868	19.38
622.99	22.38
623.112	24.38
623.234	15.38
623.356	34.38
623.478	11.38
623.6	18.38
623.722	12.38
623.845	22.38
623.967	17.38
624.089	34.38
624.211	28.38
624.333	34.38
624.455	18.38
624.577	4.38
624.699	27.38
624.822	19.38
624.944	24.38
625.066	12.38
625.188	11.38
625.31	42.38
625.432	52.38
625.554	10.38
625.676	40.38
625.799	27.38
625.921	19.38
626.043	13.38
626.165	32.38
626.287	-4.62
626.409	41.38
626.531	8.38
626.653	10.38
626.775	15.38
626.898	27.38
627.02	38.38
627.142	41.38
627.264	47.38
627.386	34.38
627.508	30.38
627.63	14.38
627.752	43.38
627.874	16.38
627.997	13.38
628.119	13.38
628.241	36.38
628.363	27.38
628.485	14.38
628.607	24.38
628.729	17.38
628.851	7.38
628.973	12.38
629.096	-1.62
629.218	31.38
629.34	26.38
629.462	7.38
629.584	0.38
629.706	16.38
629.828	24.38
629.95	27.38
630.072	9.38
630.195	20.38
630.317	28.38
630.439	18.38
630.561	17.38
630.683	-5.62
630.805	22.38
630.927	22.38
631.049	33.38
631.171	8.38
631.293	18.38
631.416	26.38
631.538	9.38
631.66	7.38
631.782	32.38
631.904	35.38
632.026	18.38
632.148	16.38
632.27	14.38
632.392	8.38
632.514	24.38
632.637	29.38
632.759	4.38
632.881	-4.62
633.003	14.38
633.125	22.38
633.247	17.38
633.369	8.38
633.491	8.38
633.613	27.38
633.735	9.38
633.858	33.38
633.98	10.38
634.102	-1.62
634.224	16.38
634.346	20.38
634.468	10.38
634.59	15.38
634.712	14.38
634.834	12.38
634.956	-0.62
635.078	12.38
635.201	13.38
635.323	32.38
635.445	10.38
635.567	-7.62
635.689	23.38
635.811	22.38
635.933	10.38
636.055	22.38
636.177	22.38
636.299	26.38
636.421	8.38
636.544	0.38
636.666	23.38
636.788	25.38
636.91	16.38
637.032	7.38
637.154	25.38
637.276	50.38
637.398	25.38
637.52	16.38
637.642	31.38
637.764	22.38
637.887	6.38
638.009	24.38
638.131	22.38
638.253	0.38
638.375	21.38
638.497	9.38
638.619	2.38
638.741	-0.62
638.863	3.38
638.985	6.38
639.107	12.38
639.23	8.38
639.352	11.38
639.474	20.38
639.596	16.38
639.718	12.38
639.84	18.38
639.962	6.38
640.084	26.38
640.206	30.38
640.328	6.38
640.45	6.38
640.573	15.38
640.695	18.38
640.817	-0.62
640.939	18.38
641.061	13.38
641.183	9.38
641.305	-6.62
641.427	18.38
641.549	7.38
641.671	9.38
641.793	9.38
641.915	34.38
642.038	12.38
642.16	18.38
642.282	18.38
642.404	22.38
642.526	39.38
642.648	16.38
642.77	12.38
642.892	-0.62
643.014	30.38
643.136	14.38
643.258	8.38
643.381	27.38
643.503	31.38
643.625	3.38
643.747	-15.62
643.869	1.38
643.991	28.38
644.113	28.38
644.235	17.38
644.357	19.38
644.479	31.38
644.601	11.38
644.723	7.38
644.846	14.38
644.968	13.38
645.09	6.38
645.212	-0.62
645.334	14.38
645.456	9.38
645.578	18.38
645.7	2.38
645.822	14.38
645.944	32.38
646.066	26.38
646.188	16.38
646.311	38.38
646.433	-0.62
646.555	28.38
646.677	17.38
646.799	16.38
646.921	8.38
647.043	33.38
647.165	5.38
647.287	28.38
647.409	18.38
647.531	14.38
647.654	2.38
647.776	29.38
647.898	27.38
648.02	19.38
648.142	9.38
648.264	15.38
648.386	6.38
648.508	2.38
648.63	2.38
648.752	16.38
648.874	10.38
648.997	22.38
649.119	30.38
649.241	10.38
649.363	28.38
649.485	33.38
649.607	8.38
649.729	10.38
649.851	17.38
649.973	9.38
650.095	33.38
650.217	15.38
650.34	0.38
650.462	17.38
650.584	10.38
650.706	27.38
650.828	26.38
650.95	3.38
651.072	41.38
651.194	-5.62
651.316	10.38
651.438	17.38
651.56	8.38
651.683	14.38
651.805	2.38
651.927	-3.62
652.049	0.38
652.171	10.38
652.293	7.38
652.415	11.38
652.537	3.38
652.659	-7.62
652.781	16.38
652.903	30.38
653.026	32.38
653.148	4.38
653.27	17.38
653.392	12.38
653.514	3.38
653.636	-6.62
653.758	-1.62
653.88	-8.62
654.002	5.38
654.124	8.38
654.247	8.38
654.369	25.38
654.491	9.38
654.613	11.38
654.735	27.38
654.857	24.38
654.979	14.38
655.101	12.38
655.223	43.38
655.345	22.38
655.468	26.38
655.59	18.38
655.712	10.38
655.834	12.38
655.956	17.38
656.078	19.38
656.2	11.38
656.322	12.38
656.444	-9.62
656.566	18.38
656.689	2.38
656.811	-5.62
656.933	16.38
657.055	-3.62
657.177	9.38
657.299	1.38
657.421	14.38
657.543	35.38
657.665	12.38
657.787	1.38
657.91	18.38
658.032	7.38
658.154	7.38
658.276	12.38
658.398	-13.62
658.52	11.38
658.642	13.38
658.764	26.38
658.886	16.38
659.009	13.38
659.131	31.38
659.253	2.38
659.375	22.38
659.497	-3.62
659.619	12.38
659.741	18.38
659.863	8.38
659.985	1.38
660.108	20.38
660.23	11.38
660.352	3.38
660.474	26.38
660.596	25.38
660.718	14.38
660.84	17.38
660.962	9.38
661.084	11.38
661.207	-0.62
661.329	33.38
661.451	6.38
661.573	18.38
661.695	35.38
661.817	20.38
661.939	24.38
662.061	47.38
662.184	16.38
662.306	18.38
662.428	11.38
662.55	14.38
662.672	17.38
662.794	18.38
662.916	8.38
663.038	17.38
663.161	20.38
663.283	20.38
663.405	12.38
663.527	6.38
663.649	24.38
663.771	30.38
663.893	25.38
664.015	9.38
664.138	7.38
664.26	16.38
664.382	26.38
664.504	10.38
664.626	0.38
664.748	12.38
664.87	2.38
664.992	36.38
665.115	8.38
665.237	20.38
665.359	-5.62
665.481	13.38
665.603	10.38
665.725	7.38
665.847	-11.62
665.97	4.38
666.092	19.38
666.214	27.38
666.336	28.38
666.458	16.38
666.58	0.38
666.702	7.38
666.825	-7.62
666.947	-10.62
667.069	8.38
667.191	17.38
667.313	14.38
667.435	-1.62
667.557	8.38
667.68	12.38
667.802	9.38
667.924	15.38
668.046	14.38
668.168	18.38
668.29	19.38
668.412	10.38
668.535	2.38
668.657	6.38
668.779	15.38
668.901	12.38
669.023	-4.62
669.145	2.38
669.267	7.38
669.39	7.38
669.512	21.38
669.634	7.38
669.756	8.38
669.878	0.38
670	26.38
670.123	2.38
670.245	31.38
670.367	24.38
670.489	27.38
670.611	13.38
670.733	7.38
670.856	3.38
670.978	19.38
671.1	19.38
671.222	13.38
671.344	15.38
671.466	22.38
671.589	-0.62
671.711	9.38
671.833	-1.62
671.955	15.38
672.077	2.38
672.199	39.38
672.322	23.38
672.444	18.38
672.566	26.38
672.688	15.38
672.81	12.38
672.932	19.38
673.055	3.38
673.177	-12.62
673.299	25.38
673.421	7.38
673.543	11.38
673.665	22.38
673.788	34.38
673.91	-0.62
674.032	-3.62
674.154	3.38
674.276	7.38
674.399	1.38
674.521	21.38
674.643	14.38
674.765	7.38
674.887	20.38
675.009	18.38
675.132	3.38
675.254	-1.62
675.376	3.38
675.498	2.38
675.62	13.38
675.743	9.38
675.865	14.38
675.987	-0.62
676.109	18.38
676.231	22.38
676.354	30.38
676.476	-6.62
676.598	9.38
676.72	-0.62
676.842	7.38
676.965	-2.62
677.087	10.38
677.209	23.38
677.331	31.38
677.453	15.38
677.576	-5.62
677.698	12.38
677.82	8.38
677.942	22.38
678.064	16.38
678.187	26.38
678.309	13.38
678.431	12.38
678.553	22.38
678.675	22.38
678.798	16.38
678.92	9.38
679.042	6.38
679.164	-0.62
679.286	7.38
679.409	10.38
679.531	10.38
679.653	4.38
679.775	2.38
679.898	15.38
680.02	-4.62
680.142	-0.62
680.264	6.38
680.386	-8.62
680.509	9.38
680.631	20.38
680.753	15.38
680.875	1.38
680.998	26.38
681.12	3.38
681.242	21.38
681.364	1.38
681.486	-5.62
681.609	0.38
681.731	-9.62
681.853	-9.62
681.975	15.38
682.098	15.38
682.22	44.38
682.342	12.38
682.464	17.38
682.587	24.38
682.709	9.38
682.831	5.38
682.953	-1.62
683.076	7.38
683.198	9.38
683.32	19.38
683.442	6.38
683.565	20.38
683.687	-2.62
683.809	20.38
683.931	11.38
684.054	18.38
684.176	21.38
684.298	17.38
684.42	10.38
684.543	15.38
684.665	17.38
684.787	-0.62
684.909	-0.62
685.032	22.38
685.154	5.38
685.276	8.38
685.398	16.38
685.521	0.38
685.643	18.38
685.765	27.38
685.887	41.38
686.01	10.38
686.132	3.38
686.254	27.38
686.377	30.38
686.499	16.38
686.621	14.38
686.743	18.38
686.866	27.38
686.988	44.38
687.11	29.38
687.232	7.38
687.355	-6.62
687.477	3.38
687.599	15.38
687.722	12.38
687.844	4.38
687.966	18.38
688.088	10.38
688.211	31.38
688.333	21.38
688.455	4.38
688.578	35.38
688.7	6.38
688.822	-2.62
688.944	2.38
689.067	51.38
689.189	12.38
689.311	2.38
689.434	25.38
689.556	34.38
689.678	16.38
689.801	23.38
689.923	25.38
690.045	22.38
690.167	23.38
690.29	14.38
690.412	1.38
690.534	2.38
690.657	8.38
690.779	3.38
690.901	21.38
691.024	18.38
691.146	11.38
691.268	-0.62
691.391	18.38
691.513	19.38
691.635	20.38
691.758	23.38
691.88	34.38
692.002	-1.62
692.125	17.38
692.247	9.38
692.369	8.38
692.492	15.38
692.614	11.38
692.736	10.38
692.859	7.38
692.981	17.38
693.103	17.38
693.226	17.38
693.348	32.38
693.47	10.38
693.593	28.38
693.715	32.38
693.837	30.38
693.96	17.38
694.082	11.38
694.204	26.38
694.327	12.38
694.449	1.38
694.571	9.38
694.694	10.38
694.816	36.38
694.938	9.38
695.061	16.38
695.183	14.38
695.305	12.38
695.428	22.38
695.55	12.38
695.672	1.38
695.795	15.38
695.917	3.38
696.04	9.38
696.162	-1.62
696.284	26.38
696.407	20.38
696.529	17.38
696.651	26.38
696.774	8.38
696.896	15.38
697.019	8.38
697.141	6.38
697.263	7.38
697.386	9.38
697.508	14.38
697.63	24.38
697.753	14.38
697.875	3.38
697.998	9.38
698.12	11.38
698.242	8.38
698.365	26.38
698.487	11.38
698.61	17.38
698.732	9.38
698.854	18.38
698.977	17.38
699.099	23.38
699.221	6.38
699.344	31.38
699.466	23.38
699.589	18.38
699.711	21.38
699.834	6.38
699.956	15.38
700.078	10.38
700.201	8.38
700.323	18.38
700.446	15.38
700.568	9.38
700.69	31.38
700.813	26.38
700.935	12.38
701.058	25.38
701.18	18.38
701.302	21.38
701.425	6.38
701.547	12.38
701.67	14.38
701.792	1.38
701.915	2.38
702.037	2.38
702.159	-0.62
702.282	2.38
702.404	0.38
702.527	-3.62
702.649	26.38
702.772	20.38
702.894	34.38
703.017	16.38
703.139	28.38
703.261	23.38
703.384	20.38
703.506	-14.62
703.629	16.38
703.751	20.38
703.874	12.38
703.996	10.38
704.119	1.38
704.241	31.38
704.364	9.38
704.486	24.38
704.608	31.38
704.731	7.38
704.853	28.38
704.976	11.38
705.098	29.38
705.221	7.38
705.343	19.38
705.466	23.38
705.588	18.38
705.711	34.38
705.833	24.38
705.956	-4.62
706.078	22.38
706.201	8.38
706.323	12.38
706.446	16.38
