Data from LowRes_mercury_15_20_11_07_2024_HR4C61881__50__15-23-37-271.txt Node

Date: Thu Nov 07 15:23:37 EST 2024
User: crc00042
Spectrometer: HR4C6188
Trigger mode: 4
Integration Time (sec): 1.000000E-1
Scans to average: 1
Electric dark correction enabled: true
Nonlinearity correction enabled: false
Boxcar width: 0
XAxis mode: Wavelengths
Number of Pixels in Spectrum: 3648
>>>>>Begin Spectral Data<<<<<
245.66	-58.62
245.797	-58.62
245.934	-58.62
246.071	-68.62
246.208	7.38
246.344	-2.62
246.481	-19.62
246.618	-1.62
246.755	14.38
246.892	-2.62
247.029	-23.62
247.165	1.38
247.302	6.38
247.439	-7.62
247.576	16.38
247.713	-0.62
247.849	34.38
247.986	-14.62
248.123	22.38
248.26	-14.62
248.396	23.38
248.533	-1.62
248.67	-7.62
248.806	15.38
248.943	-11.62
249.08	-4.62
249.216	9.38
249.353	-8.62
249.49	3.38
249.626	2.38
249.763	-0.62
249.9	-8.62
250.036	3.38
250.173	18.38
250.309	0.38
250.446	-13.62
250.582	5.38
250.719	-6.62
250.856	-2.62
250.992	-15.62
251.129	6.38
251.265	-11.62
251.402	-0.62
251.538	-13.62
251.675	-5.62
251.811	3.38
251.948	32.38
252.084	-1.62
252.221	-0.62
252.357	-11.62
252.493	30.38
252.63	-3.62
252.766	17.38
252.903	8.38
253.039	-5.62
253.175	5.38
253.312	20.38
253.448	-3.62
253.585	1.38
253.721	10.38
253.857	7.38
253.994	11.38
254.13	-0.62
254.266	17.38
254.403	6.38
254.539	-12.62
254.675	-11.62
254.811	14.38
254.948	-7.62
255.084	1.38
255.22	-19.62
255.356	-6.62
255.493	17.38
255.629	2.38
255.765	16.38
255.901	24.38
256.037	19.38
256.174	17.38
256.31	20.38
256.446	-3.62
256.582	19.38
256.718	-1.62
256.854	-0.62
256.991	17.38
257.127	20.38
257.263	3.38
257.399	5.38
257.535	-12.62
257.671	2.38
257.807	1.38
257.943	-15.62
258.079	-9.62
258.215	-7.62
258.351	18.38
258.487	-3.62
258.623	26.38
258.759	2.38
258.895	-10.62
259.031	-5.62
259.167	-17.62
259.303	11.38
259.439	-13.62
259.575	-12.62
259.711	8.38
259.847	10.38
259.983	22.38
260.119	-7.62
260.255	8.38
260.391	20.38
260.527	19.38
260.663	-4.62
260.799	-1.62
260.934	-0.62
261.07	1.38
261.206	-12.62
261.342	-25.62
261.478	10.38
261.614	16.38
261.749	13.38
261.885	-2.62
262.021	6.38
262.157	12.38
262.293	-7.62
262.428	11.38
262.564	4.38
262.7	5.38
262.836	9.38
262.971	20.38
263.107	8.38
263.243	26.38
263.378	11.38
263.514	-19.62
263.65	-16.62
263.785	-10.62
263.921	-1.62
264.057	-0.62
264.192	34.38
264.328	24.38
264.464	-3.62
264.599	16.38
264.735	14.38
264.871	14.38
265.006	20.38
265.142	15.38
265.277	28.38
265.413	-3.62
265.548	20.38
265.684	13.38
265.819	12.38
265.955	-10.62
266.091	-6.62
266.226	-0.62
266.362	7.38
266.497	14.38
266.633	4.38
266.768	-0.62
266.903	22.38
267.039	7.38
267.174	13.38
267.31	-5.62
267.445	10.38
267.581	-6.62
267.716	-9.62
267.851	3.38
267.987	12.38
268.122	38.38
268.258	9.38
268.393	-9.62
268.528	14.38
268.664	11.38
268.799	-2.62
268.934	-8.62
269.07	-14.62
269.205	8.38
269.34	7.38
269.476	-0.62
269.611	6.38
269.746	10.38
269.881	4.38
270.017	10.38
270.152	14.38
270.287	14.38
270.422	15.38
270.558	-8.62
270.693	20.38
270.828	-8.62
270.963	0.38
271.098	8.38
271.234	1.38
271.369	22.38
271.504	21.38
271.639	-19.62
271.774	12.38
271.909	16.38
272.045	-3.62
272.18	6.38
272.315	0.38
272.45	29.38
272.585	-22.62
272.72	-9.62
272.855	-3.62
272.99	9.38
273.125	4.38
273.26	-4.62
273.395	3.38
273.53	-5.62
273.665	9.38
273.8	15.38
273.935	9.38
274.07	8.38
274.205	8.38
274.34	14.38
274.475	0.38
274.61	22.38
274.745	9.38
274.88	25.38
275.015	-21.62
275.15	11.38
275.285	10.38
275.42	11.38
275.555	22.38
275.69	10.38
275.825	1.38
275.959	30.38
276.094	-4.62
276.229	6.38
276.364	0.38
276.499	7.38
276.634	-2.62
276.768	4.38
276.903	16.38
277.038	16.38
277.173	15.38
277.308	3.38
277.442	5.38
277.577	-8.62
277.712	-14.62
277.847	6.38
277.981	7.38
278.116	-21.62
278.251	-0.62
278.386	6.38
278.52	17.38
278.655	2.38
278.79	5.38
278.924	-3.62
279.059	17.38
279.194	-8.62
279.328	23.38
279.463	9.38
279.598	30.38
279.732	9.38
279.867	8.38
280.001	0.38
280.136	-0.62
280.271	12.38
280.405	8.38
280.54	-5.62
280.674	-2.62
280.809	15.38
280.943	12.38
281.078	-2.62
281.213	13.38
281.347	18.38
281.482	10.38
281.616	13.38
281.751	-4.62
281.885	-20.62
282.02	-16.62
282.154	18.38
282.288	-17.62
282.423	-0.62
282.557	1.38
282.692	18.38
282.826	4.38
282.961	15.38
283.095	-2.62
283.229	-0.62
283.364	0.38
283.498	-0.62
283.633	14.38
283.767	16.38
283.901	11.38
284.036	-4.62
284.17	-9.62
284.304	3.38
284.439	9.38
284.573	12.38
284.707	10.38
284.842	-12.62
284.976	8.38
285.11	-10.62
285.244	6.38
285.379	47.38
285.513	0.38
285.647	18.38
285.781	23.38
285.916	28.38
286.05	6.38
286.184	38.38
286.318	14.38
286.453	-6.62
286.587	-21.62
286.721	-15.62
286.855	6.38
286.989	14.38
287.123	-4.62
287.258	7.38
287.392	5.38
287.526	17.38
287.66	-4.62
287.794	8.38
287.928	2.38
288.062	0.38
288.196	-5.62
288.33	8.38
288.464	23.38
288.598	4.38
288.733	13.38
288.867	13.38
289.001	21.38
289.135	11.38
289.269	15.38
289.403	19.38
289.537	22.38
289.671	6.38
289.805	-16.62
289.939	-6.62
290.073	-2.62
290.207	0.38
290.34	-8.62
290.474	21.38
290.608	10.38
290.742	1.38
290.876	0.38
291.01	4.38
291.144	7.38
291.278	10.38
291.412	6.38
291.546	3.38
291.679	-8.62
291.813	-1.62
291.947	7.38
292.081	-10.62
292.215	-4.62
292.349	5.38
292.482	5.38
292.616	-0.62
292.75	10.38
292.884	14.38
293.018	0.38
293.151	-19.62
293.285	7.38
293.419	6.38
293.553	-3.62
293.686	8.38
293.82	-2.62
293.954	13.38
294.088	25.38
294.221	2.38
294.355	-7.62
294.489	11.38
294.622	-12.62
294.756	-6.62
294.89	8.38
295.023	7.38
295.157	22.38
295.291	6.38
295.424	22.38
295.558	17.38
295.691	19.38
295.825	3.38
295.959	31.38
296.092	6.38
296.226	-16.62
296.359	5.38
296.493	-4.62
296.627	16.38
296.76	-0.62
296.894	6.38
297.027	-1.62
297.161	10.38
297.294	-15.62
297.428	18.38
297.561	30.38
297.695	11.38
297.828	8.38
297.962	5.38
298.095	-7.62
298.229	9.38
298.362	-12.62
298.495	-13.62
298.629	-11.62
298.762	-0.62
298.896	27.38
299.029	-9.62
299.162	-2.62
299.296	6.38
299.429	-7.62
299.563	7.38
299.696	11.38
299.829	2.38
299.963	29.38
300.096	24.38
300.229	16.38
300.363	11.38
300.496	4.38
300.629	-31.62
300.763	-5.62
300.896	-6.62
301.029	9.38
301.162	-4.62
301.296	-8.62
301.429	6.38
301.562	-21.62
301.695	9.38
301.829	-3.62
301.962	29.38
302.095	-6.62
302.228	-7.62
302.362	-4.62
302.495	-1.62
302.628	12.38
302.761	7.38
302.894	16.38
303.027	25.38
303.161	1.38
303.294	-14.62
303.427	20.38
303.56	11.38
303.693	17.38
303.826	1.38
303.959	3.38
304.092	15.38
304.225	-15.62
304.359	3.38
304.492	8.38
304.625	1.38
304.758	2.38
304.891	3.38
305.024	-2.62
305.157	-6.62
305.29	-16.62
305.423	-6.62
305.556	11.38
305.689	47.38
305.822	2.38
305.955	-5.62
306.088	4.38
306.221	9.38
306.354	3.38
306.487	-32.62
306.62	-21.62
306.752	-10.62
306.885	11.38
307.018	1.38
307.151	10.38
307.284	-7.62
307.417	-13.62
307.55	-3.62
307.683	9.38
307.816	20.38
307.948	9.38
308.081	10.38
308.214	35.38
308.347	14.38
308.48	-6.62
308.613	-12.62
308.745	14.38
308.878	7.38
309.011	7.38
309.144	1.38
309.277	5.38
309.409	20.38
309.542	5.38
309.675	25.38
309.808	12.38
309.94	8.38
310.073	-4.62
310.206	-9.62
310.339	11.38
310.471	0.38
310.604	2.38
310.737	-9.62
310.869	12.38
311.002	3.38
311.135	-7.62
311.267	-8.62
311.4	-5.62
311.533	4.38
311.665	-1.62
311.798	12.38
311.93	2.38
312.063	27.38
312.196	44.38
312.328	79.38
312.461	55.38
312.593	39.38
312.726	52.38
312.859	94.38
312.991	172.38
313.124	37.38
313.256	13.38
313.389	8.38
313.521	6.38
313.654	-0.62
313.786	-5.62
313.919	-9.62
314.051	22.38
314.184	21.38
314.316	4.38
314.449	-15.62
314.581	-2.62
314.714	0.38
314.846	6.38
314.978	-3.62
315.111	-8.62
315.243	14.38
315.376	21.38
315.508	7.38
315.641	5.38
315.773	32.38
315.905	30.38
316.038	3.38
316.17	6.38
316.302	19.38
316.435	14.38
316.567	-9.62
316.699	12.38
316.832	-15.62
316.964	-3.62
317.096	-6.62
317.229	-23.62
317.361	-14.62
317.493	-22.62
317.625	-13.62
317.758	12.38
317.89	10.38
318.022	-2.62
318.155	-1.62
318.287	-0.62
318.419	6.38
318.551	17.38
318.683	10.38
318.816	19.38
318.948	-8.62
319.08	-4.62
319.212	3.38
319.344	7.38
319.477	-11.62
319.609	-9.62
319.741	13.38
319.873	-1.62
320.005	1.38
320.137	5.38
320.269	5.38
320.401	-4.62
320.534	-8.62
320.666	-12.62
320.798	-5.62
320.93	8.38
321.062	2.38
321.194	3.38
321.326	-6.62
321.458	13.38
321.59	-5.62
321.722	2.38
321.854	3.38
321.986	0.38
322.118	-6.62
322.25	-18.62
322.382	11.38
322.514	2.38
322.646	-13.62
322.778	18.38
322.91	-3.62
323.042	13.38
323.174	7.38
323.306	-1.62
323.438	-14.62
323.57	-0.62
323.702	3.38
323.834	16.38
323.966	-7.62
324.097	-5.62
324.229	14.38
324.361	15.38
324.493	10.38
324.625	1.38
324.757	-3.62
324.889	1.38
325.021	18.38
325.152	9.38
325.284	9.38
325.416	9.38
325.548	16.38
325.68	-0.62
325.811	9.38
325.943	-2.62
326.075	-15.62
326.207	15.38
326.339	6.38
326.47	26.38
326.602	7.38
326.734	25.38
326.866	27.38
326.997	15.38
327.129	1.38
327.261	3.38
327.392	-8.62
327.524	4.38
327.656	-14.62
327.787	13.38
327.919	6.38
328.051	3.38
328.182	37.38
328.314	40.38
328.446	-1.62
328.577	15.38
328.709	1.38
328.841	-15.62
328.972	-1.62
329.104	11.38
329.235	15.38
329.367	14.38
329.499	8.38
329.63	10.38
329.762	1.38
329.893	15.38
330.025	8.38
330.156	-7.62
330.288	19.38
330.419	22.38
330.551	21.38
330.683	15.38
330.814	6.38
330.946	24.38
331.077	0.38
331.208	-13.62
331.34	-2.62
331.471	-21.62
331.603	11.38
331.734	3.38
331.866	7.38
331.997	7.38
332.129	-8.62
332.26	18.38
332.392	31.38
332.523	18.38
332.654	-8.62
332.786	9.38
332.917	13.38
333.048	11.38
333.18	13.38
333.311	7.38
333.443	10.38
333.574	21.38
333.705	24.38
333.837	49.38
333.968	123.38
334.099	207.38
334.231	215.38
334.362	50.38
334.493	18.38
334.624	28.38
334.756	25.38
334.887	7.38
335.018	6.38
335.15	11.38
335.281	3.38
335.412	22.38
335.543	26.38
335.675	0.38
335.806	8.38
335.937	29.38
336.068	36.38
336.199	26.38
336.331	-7.62
336.462	-13.62
336.593	26.38
336.724	16.38
336.855	17.38
336.986	25.38
337.118	34.38
337.249	5.38
337.38	7.38
337.511	14.38
337.642	21.38
337.773	10.38
337.904	16.38
338.035	13.38
338.166	-5.62
338.298	2.38
338.429	4.38
338.56	24.38
338.691	19.38
338.822	15.38
338.953	36.38
339.084	35.38
339.215	-1.62
339.346	7.38
339.477	22.38
339.608	10.38
339.739	21.38
339.87	18.38
340.001	-4.62
340.132	42.38
340.263	4.38
340.394	11.38
340.525	30.38
340.656	13.38
340.787	-8.62
340.918	14.38
341.049	15.38
341.179	5.38
341.31	17.38
341.441	19.38
341.572	28.38
341.703	25.38
341.834	17.38
341.965	31.38
342.096	-1.62
342.227	25.38
342.357	14.38
342.488	12.38
342.619	10.38
342.75	19.38
342.881	11.38
343.012	47.38
343.142	38.38
343.273	17.38
343.404	38.38
343.535	64.38
343.666	27.38
343.796	30.38
343.927	26.38
344.058	47.38
344.189	23.38
344.319	31.38
344.45	22.38
344.581	30.38
344.712	7.38
344.842	21.38
344.973	15.38
345.104	23.38
345.234	20.38
345.365	17.38
345.496	26.38
345.626	33.38
345.757	26.38
345.888	6.38
346.018	25.38
346.149	23.38
346.28	51.38
346.41	17.38
346.541	34.38
346.672	17.38
346.802	30.38
346.933	25.38
347.063	35.38
347.194	23.38
347.325	37.38
347.455	51.38
347.586	39.38
347.716	31.38
347.847	62.38
347.977	37.38
348.108	49.38
348.238	42.38
348.369	48.38
348.499	49.38
348.63	40.38
348.76	49.38
348.891	63.38
349.021	33.38
349.152	56.38
349.282	62.38
349.413	38.38
349.543	51.38
349.674	32.38
349.804	35.38
349.935	28.38
350.065	23.38
350.196	28.38
350.326	19.38
350.456	14.38
350.587	44.38
350.717	29.38
350.848	29.38
350.978	30.38
351.108	17.38
351.239	44.38
351.369	13.38
351.499	10.38
351.63	20.38
351.76	27.38
351.89	31.38
352.021	22.38
352.151	9.38
352.281	29.38
352.412	29.38
352.542	28.38
352.672	26.38
352.803	9.38
352.933	28.38
353.063	24.38
353.193	26.38
353.324	32.38
353.454	14.38
353.584	27.38
353.714	19.38
353.845	29.38
353.975	22.38
354.105	39.38
354.235	26.38
354.365	27.38
354.496	25.38
354.626	40.38
354.756	24.38
354.886	34.38
355.016	35.38
355.146	34.38
355.277	28.38
355.407	24.38
355.537	26.38
355.667	25.38
355.797	2.38
355.927	34.38
356.057	26.38
356.187	24.38
356.318	23.38
356.448	18.38
356.578	38.38
356.708	35.38
356.838	27.38
356.968	13.38
357.098	14.38
357.228	42.38
357.358	24.38
357.488	25.38
357.618	45.38
357.748	47.38
357.878	21.38
358.008	36.38
358.138	38.38
358.268	21.38
358.398	30.38
358.528	14.38
358.658	31.38
358.788	16.38
358.918	30.38
359.048	43.38
359.178	42.38
359.308	17.38
359.438	43.38
359.568	21.38
359.698	30.38
359.827	28.38
359.957	25.38
360.087	20.38
360.217	23.38
360.347	51.38
360.477	58.38
360.607	27.38
360.737	38.38
360.866	14.38
360.996	24.38
361.126	21.38
361.256	41.38
361.386	47.38
361.516	45.38
361.645	20.38
361.775	34.38
361.905	11.38
362.035	54.38
362.165	34.38
362.294	47.38
362.424	45.38
362.554	45.38
362.684	20.38
362.813	42.38
362.943	53.38
363.073	62.38
363.203	69.38
363.332	74.38
363.462	89.38
363.592	95.38
363.721	126.38
363.851	178.38
363.981	188.38
364.111	247.38
364.24	303.38
364.37	467.38
364.5	838.38
364.629	1790.38
364.759	3804.38
364.888	6188.38
365.018	9229.38
365.148	14742.38
365.277	12737.38
365.407	4657.38
365.537	3007.38
365.666	3990.38
365.796	1818.38
365.925	798.38
366.055	744.38
366.184	1030.38
366.314	1389.38
366.444	2456.38
366.573	2076.38
366.703	626.38
366.832	230.38
366.962	131.38
367.091	100.38
367.221	79.38
367.35	66.38
367.48	84.38
367.609	46.38
367.739	62.38
367.868	35.38
367.998	57.38
368.127	48.38
368.257	58.38
368.386	57.38
368.516	46.38
368.645	32.38
368.775	45.38
368.904	39.38
369.033	34.38
369.163	27.38
369.292	35.38
369.422	39.38
369.551	43.38
369.68	34.38
369.81	46.38
369.939	19.38
370.069	61.38
370.198	22.38
370.327	22.38
370.457	39.38
370.586	47.38
370.715	39.38
370.845	31.38
370.974	32.38
371.103	53.38
371.233	54.38
371.362	44.38
371.491	26.38
371.621	72.38
371.75	62.38
371.879	55.38
372.008	43.38
372.138	59.38
372.267	70.38
372.396	62.38
372.525	38.38
372.655	24.38
372.784	39.38
372.913	39.38
373.042	32.38
373.172	38.38
373.301	20.38
373.43	17.38
373.559	30.38
373.688	26.38
373.818	19.38
373.947	27.38
374.076	24.38
374.205	25.38
374.334	17.38
374.463	10.38
374.593	44.38
374.722	31.38
374.851	46.38
374.98	14.38
375.109	13.38
375.238	48.38
375.367	50.38
375.496	15.38
375.625	-2.62
375.755	30.38
375.884	48.38
376.013	44.38
376.142	11.38
376.271	32.38
376.4	35.38
376.529	22.38
376.658	30.38
376.787	25.38
376.916	25.38
377.045	25.38
377.174	35.38
377.303	22.38
377.432	25.38
377.561	39.38
377.69	4.38
377.819	36.38
377.948	21.38
378.077	-0.62
378.206	4.38
378.335	13.38
378.464	5.38
378.593	34.38
378.722	17.38
378.851	12.38
378.98	12.38
379.108	-2.62
379.237	2.38
379.366	28.38
379.495	15.38
379.624	0.38
379.753	11.38
379.882	13.38
380.011	3.38
380.14	22.38
380.268	46.38
380.397	16.38
380.526	50.38
380.655	15.38
380.784	4.38
380.913	21.38
381.041	14.38
381.17	2.38
381.299	11.38
381.428	22.38
381.557	29.38
381.685	22.38
381.814	27.38
381.943	23.38
382.072	0.38
382.2	13.38
382.329	2.38
382.458	16.38
382.587	30.38
382.715	41.38
382.844	41.38
382.973	30.38
383.102	17.38
383.23	17.38
383.359	2.38
383.488	21.38
383.616	18.38
383.745	5.38
383.874	18.38
384.003	24.38
384.131	7.38
384.26	24.38
384.389	27.38
384.517	19.38
384.646	17.38
384.774	6.38
384.903	42.38
385.032	36.38
385.16	23.38
385.289	19.38
385.418	1.38
385.546	22.38
385.675	26.38
385.803	24.38
385.932	18.38
386.06	18.38
386.189	29.38
386.318	17.38
386.446	16.38
386.575	31.38
386.703	27.38
386.832	29.38
386.96	3.38
387.089	28.38
387.217	30.38
387.346	27.38
387.474	35.38
387.603	26.38
387.731	28.38
387.86	32.38
387.988	29.38
388.117	32.38
388.245	30.38
388.374	8.38
388.502	36.38
388.631	23.38
388.759	8.38
388.888	15.38
389.016	14.38
389.144	2.38
389.273	13.38
389.401	17.38
389.53	1.38
389.658	39.38
389.786	27.38
389.915	0.38
390.043	9.38
390.172	15.38
390.3	45.38
390.428	46.38
390.557	5.38
390.685	35.38
390.813	54.38
390.942	51.38
391.07	22.38
391.198	26.38
391.327	17.38
391.455	16.38
391.583	41.38
391.712	37.38
391.84	31.38
391.968	10.38
392.096	15.38
392.225	31.38
392.353	20.38
392.481	20.38
392.609	34.38
392.738	27.38
392.866	20.38
392.994	25.38
393.122	29.38
393.251	29.38
393.379	20.38
393.507	25.38
393.635	24.38
393.764	16.38
393.892	33.38
394.02	28.38
394.148	29.38
394.276	15.38
394.404	44.38
394.533	13.38
394.661	23.38
394.789	47.38
394.917	39.38
395.045	15.38
395.173	18.38
395.302	28.38
395.43	14.38
395.558	34.38
395.686	25.38
395.814	42.38
395.942	23.38
396.07	34.38
396.198	38.38
396.326	41.38
396.454	28.38
396.582	33.38
396.711	34.38
396.839	46.38
396.967	33.38
397.095	12.38
397.223	37.38
397.351	53.38
397.479	47.38
397.607	47.38
397.735	47.38
397.863	53.38
397.991	46.38
398.119	38.38
398.247	49.38
398.375	67.38
398.503	50.38
398.631	59.38
398.759	55.38
398.887	61.38
399.015	32.38
399.143	49.38
399.271	72.38
399.399	80.38
399.526	58.38
399.654	88.38
399.782	47.38
399.91	92.38
400.038	102.38
400.166	84.38
400.294	81.38
400.422	86.38
400.55	115.38
400.678	106.38
400.805	110.38
400.933	99.38
401.061	133.38
401.189	114.38
401.317	126.38
401.445	116.38
401.573	73.38
401.7	71.38
401.828	66.38
401.956	61.38
402.084	57.38
402.212	39.38
402.34	50.38
402.467	41.38
402.595	27.38
402.723	44.38
402.851	61.38
402.978	52.38
403.106	83.38
403.234	76.38
403.362	114.38
403.489	135.38
403.617	149.38
403.745	200.38
403.873	286.38
404	568.38
404.128	1430.38
404.256	3836.38
404.384	4982.38
404.511	5379.38
404.639	6972.38
404.767	11225.38
404.894	14507.38
405.022	4863.38
405.15	1260.38
405.277	411.38
405.405	210.38
405.533	140.38
405.66	99.38
405.788	55.38
405.916	58.38
406.043	51.38
406.171	61.38
406.299	56.38
406.426	61.38
406.554	60.38
406.681	62.38
406.809	51.38
406.937	75.38
407.064	60.38
407.192	123.38
407.319	286.38
407.447	518.38
407.574	528.38
407.702	599.38
407.83	867.38
407.957	1569.38
408.085	947.38
408.212	278.38
408.34	95.38
408.467	58.38
408.595	46.38
408.722	62.38
408.85	57.38
408.977	21.38
409.105	27.38
409.232	31.38
409.36	42.38
409.487	31.38
409.615	14.38
409.742	37.38
409.87	32.38
409.997	49.38
410.125	39.38
410.252	35.38
410.379	32.38
410.507	32.38
410.634	49.38
410.762	24.38
410.889	31.38
411.017	30.38
411.144	39.38
411.271	29.38
411.399	38.38
411.526	44.38
411.653	29.38
411.781	34.38
411.908	30.38
412.036	23.38
412.163	32.38
412.29	33.38
412.418	24.38
412.545	36.38
412.672	35.38
412.8	56.38
412.927	42.38
413.054	56.38
413.182	30.38
413.309	34.38
413.436	34.38
413.564	26.38
413.691	23.38
413.818	38.38
413.945	17.38
414.073	23.38
414.2	14.38
414.327	20.38
414.454	40.38
414.582	42.38
414.709	14.38
414.836	9.38
414.963	38.38
415.091	31.38
415.218	18.38
415.345	16.38
415.472	26.38
415.6	20.38
415.727	25.38
415.854	35.38
415.981	30.38
416.108	16.38
416.236	24.38
416.363	34.38
416.49	25.38
416.617	46.38
416.744	41.38
416.871	29.38
416.998	31.38
417.126	41.38
417.253	45.38
417.38	34.38
417.507	36.38
417.634	42.38
417.761	25.38
417.888	41.38
418.015	27.38
418.143	35.38
418.27	54.38
418.397	31.38
418.524	45.38
418.651	14.38
418.778	29.38
418.905	73.38
419.032	53.38
419.159	32.38
419.286	70.38
419.413	73.38
419.54	63.38
419.667	31.38
419.794	36.38
419.921	64.38
420.048	45.38
420.175	57.38
420.302	46.38
420.429	52.38
420.556	62.38
420.683	70.38
420.81	67.38
420.937	63.38
421.064	48.38
421.191	50.38
421.318	80.38
421.445	71.38
421.572	52.38
421.699	52.38
421.826	53.38
421.953	33.38
422.08	27.38
422.207	4.38
422.334	2.38
422.461	37.38
422.588	7.38
422.714	35.38
422.841	38.38
422.968	29.38
423.095	23.38
423.222	5.38
423.349	16.38
423.476	23.38
423.603	15.38
423.729	22.38
423.856	25.38
423.983	42.38
424.11	15.38
424.237	19.38
424.364	40.38
424.491	24.38
424.617	9.38
424.744	9.38
424.871	35.38
424.998	18.38
425.125	21.38
425.251	18.38
425.378	27.38
425.505	26.38
425.632	19.38
425.758	1.38
425.885	25.38
426.012	29.38
426.139	46.38
426.266	26.38
426.392	26.38
426.519	46.38
426.646	0.38
426.772	30.38
426.899	26.38
427.026	22.38
427.153	9.38
427.279	45.38
427.406	18.38
427.533	31.38
427.659	23.38
427.786	30.38
427.913	33.38
428.039	38.38
428.166	7.38
428.293	22.38
428.419	46.38
428.546	35.38
428.673	31.38
428.799	12.38
428.926	22.38
429.053	51.38
429.179	33.38
429.306	43.38
429.433	43.38
429.559	36.38
429.686	17.38
429.812	17.38
429.939	29.38
430.066	34.38
430.192	19.38
430.319	26.38
430.445	38.38
430.572	14.38
430.699	15.38
430.825	37.38
430.952	39.38
431.078	31.38
431.205	28.38
431.331	18.38
431.458	24.38
431.584	33.38
431.711	25.38
431.837	26.38
431.964	17.38
432.09	35.38
432.217	23.38
432.343	27.38
432.47	58.38
432.596	27.38
432.723	26.38
432.849	33.38
432.976	42.38
433.102	41.38
433.229	29.38
433.355	55.38
433.482	74.38
433.608	102.38
433.735	101.38
433.861	118.38
433.987	151.38
434.114	193.38
434.24	183.38
434.367	224.38
434.493	210.38
434.62	275.38
434.746	376.38
434.872	611.38
434.999	832.38
435.125	1722.38
435.252	5362.38
435.378	13281.38
435.504	15148.38
435.631	15341.38
435.757	15684.38
435.883	15684.38
436.01	15684.38
436.136	15684.38
436.262	15684.38
436.389	3409.38
436.515	1900.38
436.641	763.38
436.768	611.38
436.894	380.38
437.02	375.38
437.147	291.38
437.273	291.38
437.399	220.38
437.526	231.38
437.652	181.38
437.778	179.38
437.904	152.38
438.031	182.38
438.157	145.38
438.283	154.38
438.409	102.38
438.536	123.38
438.662	106.38
438.788	147.38
438.914	112.38
439.041	110.38
439.167	117.38
439.293	100.38
439.419	85.38
439.546	101.38
439.672	84.38
439.798	96.38
439.924	95.38
440.05	102.38
440.177	71.38
440.303	94.38
440.429	73.38
440.555	64.38
440.681	63.38
440.807	70.38
440.934	51.38
441.06	72.38
441.186	64.38
441.312	56.38
441.438	73.38
441.564	73.38
441.69	77.38
441.816	72.38
441.943	62.38
442.069	48.38
442.195	60.38
442.321	78.38
442.447	38.38
442.573	46.38
442.699	33.38
442.825	42.38
442.951	67.38
443.077	46.38
443.203	54.38
443.33	54.38
443.456	35.38
443.582	48.38
443.708	42.38
443.834	67.38
443.96	50.38
444.086	61.38
444.212	66.38
444.338	67.38
444.464	43.38
444.59	66.38
444.716	45.38
444.842	48.38
444.968	47.38
445.094	37.38
445.22	22.38
445.346	29.38
445.472	36.38
445.598	37.38
445.724	28.38
445.85	39.38
445.976	21.38
446.102	57.38
446.228	34.38
446.354	22.38
446.48	19.38
446.605	40.38
446.731	44.38
446.857	49.38
446.983	47.38
447.109	40.38
447.235	55.38
447.361	12.38
447.487	41.38
447.613	47.38
447.739	34.38
447.865	16.38
447.99	51.38
448.116	33.38
448.242	52.38
448.368	31.38
448.494	28.38
448.62	28.38
448.746	26.38
448.872	31.38
448.997	24.38
449.123	32.38
449.249	52.38
449.375	38.38
449.501	13.38
449.627	30.38
449.752	43.38
449.878	31.38
450.004	15.38
450.13	26.38
450.256	22.38
450.381	43.38
450.507	28.38
450.633	37.38
450.759	46.38
450.884	34.38
451.01	25.38
451.136	21.38
451.262	38.38
451.388	30.38
451.513	15.38
451.639	26.38
451.765	40.38
451.89	29.38
452.016	34.38
452.142	34.38
452.268	28.38
452.393	38.38
452.519	15.38
452.645	27.38
452.771	40.38
452.896	18.38
453.022	9.38
453.148	43.38
453.273	23.38
453.399	24.38
453.525	23.38
453.65	10.38
453.776	54.38
453.902	56.38
454.027	44.38
454.153	26.38
454.279	33.38
454.404	33.38
454.53	20.38
454.656	47.38
454.781	35.38
454.907	39.38
455.032	26.38
455.158	30.38
455.284	30.38
455.409	30.38
455.535	42.38
455.66	50.38
455.786	34.38
455.912	17.38
456.037	7.38
456.163	31.38
456.288	32.38
456.414	23.38
456.539	12.38
456.665	40.38
456.791	30.38
456.916	39.38
457.042	49.38
457.167	27.38
457.293	43.38
457.418	18.38
457.544	16.38
457.669	9.38
457.795	22.38
457.92	19.38
458.046	22.38
458.171	41.38
458.297	32.38
458.422	27.38
458.548	25.38
458.673	22.38
458.799	27.38
458.924	5.38
459.05	15.38
459.175	23.38
459.301	15.38
459.426	45.38
459.552	27.38
459.677	1.38
459.803	46.38
459.928	26.38
460.053	29.38
460.179	29.38
460.304	42.38
460.43	22.38
460.555	35.38
460.681	17.38
460.806	38.38
460.931	27.38
461.057	21.38
461.182	45.38
461.308	42.38
461.433	32.38
461.558	7.38
461.684	42.38
461.809	33.38
461.934	23.38
462.06	28.38
462.185	16.38
462.311	37.38
462.436	53.38
462.561	16.38
462.687	41.38
462.812	29.38
462.937	42.38
463.063	23.38
463.188	6.38
463.313	34.38
463.439	29.38
463.564	20.38
463.689	24.38
463.814	42.38
463.94	34.38
464.065	32.38
464.19	39.38
464.316	19.38
464.441	14.38
464.566	22.38
464.692	12.38
464.817	17.38
464.942	28.38
465.067	13.38
465.193	6.38
465.318	21.38
465.443	13.38
465.568	18.38
465.694	29.38
465.819	41.38
465.944	36.38
466.069	27.38
466.194	35.38
466.32	27.38
466.445	25.38
466.57	32.38
466.695	31.38
466.82	35.38
466.946	50.38
467.071	33.38
467.196	21.38
467.321	32.38
467.446	25.38
467.572	33.38
467.697	31.38
467.822	32.38
467.947	51.38
468.072	35.38
468.197	24.38
468.323	25.38
468.448	31.38
468.573	27.38
468.698	29.38
468.823	39.38
468.948	35.38
469.073	37.38
469.198	52.38
469.324	47.38
469.449	39.38
469.574	66.38
469.699	55.38
469.824	26.38
469.949	45.38
470.074	31.38
470.199	60.38
470.324	41.38
470.449	49.38
470.574	28.38
470.7	34.38
470.825	56.38
470.95	56.38
471.075	10.38
471.2	47.38
471.325	44.38
471.45	21.38
471.575	14.38
471.7	29.38
471.825	15.38
471.95	39.38
472.075	25.38
472.2	32.38
472.325	25.38
472.45	30.38
472.575	23.38
472.7	37.38
472.825	37.38
472.95	33.38
473.075	39.38
473.2	45.38
473.325	30.38
473.45	38.38
473.575	44.38
473.7	36.38
473.825	21.38
473.95	28.38
474.075	38.38
474.2	16.38
474.325	27.38
474.45	34.38
474.574	28.38
474.699	42.38
474.824	31.38
474.949	9.38
475.074	3.38
475.199	29.38
475.324	36.38
475.449	22.38
475.574	11.38
475.699	35.38
475.824	13.38
475.949	50.38
476.073	21.38
476.198	17.38
476.323	40.38
476.448	33.38
476.573	17.38
476.698	27.38
476.823	15.38
476.947	30.38
477.072	14.38
477.197	15.38
477.322	20.38
477.447	28.38
477.572	33.38
477.697	30.38
477.821	24.38
477.946	39.38
478.071	25.38
478.196	28.38
478.321	30.38
478.445	11.38
478.57	12.38
478.695	10.38
478.82	34.38
478.945	47.38
479.069	6.38
479.194	10.38
479.319	17.38
479.444	26.38
479.569	12.38
479.693	11.38
479.818	26.38
479.943	29.38
480.068	44.38
480.192	34.38
480.317	43.38
480.442	31.38
480.567	37.38
480.691	18.38
480.816	5.38
480.941	15.38
481.066	24.38
481.19	39.38
481.315	26.38
481.44	14.38
481.564	22.38
481.689	34.38
481.814	38.38
481.938	35.38
482.063	16.38
482.188	24.38
482.313	26.38
482.437	21.38
482.562	32.38
482.687	37.38
482.811	39.38
482.936	15.38
483.061	23.38
483.185	24.38
483.31	21.38
483.435	31.38
483.559	14.38
483.684	27.38
483.808	47.38
483.933	24.38
484.058	18.38
484.182	21.38
484.307	19.38
484.432	29.38
484.556	17.38
484.681	12.38
484.805	25.38
484.93	24.38
485.055	40.38
485.179	45.38
485.304	22.38
485.428	15.38
485.553	12.38
485.678	10.38
485.802	21.38
485.927	39.38
486.051	57.38
486.176	24.38
486.3	22.38
486.425	25.38
486.549	28.38
486.674	24.38
486.799	19.38
486.923	29.38
487.048	5.38
487.172	0.38
487.297	21.38
487.421	25.38
487.546	14.38
487.67	36.38
487.795	10.38
487.919	16.38
488.044	17.38
488.168	33.38
488.293	23.38
488.417	14.38
488.542	38.38
488.666	29.38
488.791	28.38
488.915	21.38
489.04	16.38
489.164	25.38
489.289	31.38
489.413	3.38
489.538	15.38
489.662	37.38
489.786	17.38
489.911	21.38
490.035	3.38
490.16	21.38
490.284	14.38
490.409	3.38
490.533	9.38
490.658	52.38
490.782	27.38
490.906	55.38
491.031	113.38
491.155	138.38
491.28	152.38
491.404	145.38
491.528	258.38
491.653	157.38
491.777	87.38
491.902	33.38
492.026	27.38
492.15	25.38
492.275	52.38
492.399	24.38
492.524	28.38
492.648	31.38
492.772	28.38
492.897	41.38
493.021	24.38
493.145	24.38
493.27	31.38
493.394	33.38
493.518	10.38
493.643	1.38
493.767	25.38
493.891	16.38
494.016	14.38
494.14	1.38
494.264	17.38
494.389	22.38
494.513	19.38
494.637	30.38
494.762	34.38
494.886	41.38
495.01	33.38
495.134	14.38
495.259	34.38
495.383	17.38
495.507	18.38
495.632	36.38
495.756	56.38
495.88	23.38
496.004	17.38
496.129	24.38
496.253	20.38
496.377	18.38
496.501	40.38
496.626	29.38
496.75	24.38
496.874	19.38
496.998	10.38
497.123	32.38
497.247	29.38
497.371	19.38
497.495	22.38
497.62	23.38
497.744	26.38
497.868	27.38
497.992	26.38
498.116	19.38
498.241	21.38
498.365	25.38
498.489	21.38
498.613	38.38
498.737	37.38
498.862	10.38
498.986	13.38
499.11	18.38
499.234	28.38
499.358	29.38
499.482	14.38
499.607	29.38
499.731	27.38
499.855	31.38
499.979	10.38
500.103	34.38
500.227	31.38
500.351	17.38
500.476	-1.62
500.6	22.38
500.724	42.38
500.848	29.38
500.972	21.38
501.096	22.38
501.22	34.38
501.344	22.38
501.469	22.38
501.593	29.38
501.717	5.38
501.841	9.38
501.965	11.38
502.089	23.38
502.213	17.38
502.337	5.38
502.461	14.38
502.585	10.38
502.709	30.38
502.834	12.38
502.958	39.38
503.082	36.38
503.206	17.38
503.33	21.38
503.454	26.38
503.578	30.38
503.702	19.38
503.826	26.38
503.95	49.38
504.074	39.38
504.198	33.38
504.322	20.38
504.446	30.38
504.57	16.38
504.694	10.38
504.818	30.38
504.942	50.38
505.066	23.38
505.19	26.38
505.314	35.38
505.438	27.38
505.562	18.38
505.686	39.38
505.81	13.38
505.934	23.38
506.058	29.38
506.182	23.38
506.306	39.38
506.43	27.38
506.554	6.38
506.678	3.38
506.802	25.38
506.926	17.38
507.05	24.38
507.174	31.38
507.298	43.38
507.422	34.38
507.546	17.38
507.67	24.38
507.794	3.38
507.918	24.38
508.042	29.38
508.165	25.38
508.289	20.38
508.413	15.38
508.537	22.38
508.661	43.38
508.785	31.38
508.909	26.38
509.033	27.38
509.157	23.38
509.281	27.38
509.405	35.38
509.528	54.38
509.652	35.38
509.776	33.38
509.9	33.38
510.024	45.38
510.148	41.38
510.272	32.38
510.396	39.38
510.519	36.38
510.643	40.38
510.767	29.38
510.891	50.38
511.015	28.38
511.139	62.38
511.263	49.38
511.386	41.38
511.51	20.38
511.634	35.38
511.758	45.38
511.882	47.38
512.006	51.38
512.129	63.38
512.253	105.38
512.377	78.38
512.501	82.38
512.625	79.38
512.748	79.38
512.872	84.38
512.996	39.38
513.12	59.38
513.244	69.38
513.367	80.38
513.491	62.38
513.615	85.38
513.739	65.38
513.862	71.38
513.986	80.38
514.11	100.38
514.234	79.38
514.358	104.38
514.481	117.38
514.605	102.38
514.729	119.38
514.853	105.38
514.976	96.38
515.1	92.38
515.224	106.38
515.348	98.38
515.471	65.38
515.595	102.38
515.719	118.38
515.842	219.38
515.966	272.38
516.09	293.38
516.214	298.38
516.337	335.38
516.461	223.38
516.585	95.38
516.708	48.38
516.832	26.38
516.956	13.38
517.08	15.38
517.203	28.38
517.327	34.38
517.451	25.38
517.574	41.38
517.698	10.38
517.822	25.38
517.945	16.38
518.069	32.38
518.193	48.38
518.316	14.38
518.44	34.38
518.564	17.38
518.687	3.38
518.811	11.38
518.935	43.38
519.058	27.38
519.182	21.38
519.306	20.38
519.429	30.38
519.553	38.38
519.676	27.38
519.8	24.38
519.924	26.38
520.047	37.38
520.171	25.38
520.294	12.38
520.418	32.38
520.542	20.38
520.665	43.38
520.789	22.38
520.913	11.38
521.036	-12.62
521.16	15.38
521.283	9.38
521.407	22.38
521.53	14.38
521.654	-7.62
521.778	30.38
521.901	19.38
522.025	22.38
522.148	13.38
522.272	21.38
522.395	15.38
522.519	27.38
522.643	8.38
522.766	8.38
522.89	28.38
523.013	35.38
523.137	4.38
523.26	35.38
523.384	10.38
523.507	14.38
523.631	28.38
523.754	5.38
523.878	11.38
524.002	16.38
524.125	17.38
524.249	6.38
524.372	6.38
524.496	20.38
524.619	14.38
524.743	9.38
524.866	7.38
524.99	17.38
525.113	-6.62
525.237	19.38
525.36	35.38
525.484	34.38
525.607	15.38
525.731	3.38
525.854	24.38
525.978	45.38
526.101	9.38
526.224	9.38
526.348	23.38
526.471	28.38
526.595	27.38
526.718	21.38
526.842	5.38
526.965	11.38
527.089	9.38
527.212	27.38
527.336	26.38
527.459	4.38
527.582	31.38
527.706	21.38
527.829	28.38
527.953	11.38
528.076	0.38
528.2	3.38
528.323	24.38
528.446	26.38
528.57	17.38
528.693	33.38
528.817	8.38
528.94	28.38
529.064	30.38
529.187	3.38
529.31	13.38
529.434	22.38
529.557	28.38
529.68	18.38
529.804	9.38
529.927	10.38
530.051	3.38
530.174	-3.62
530.297	21.38
530.421	30.38
530.544	41.38
530.668	22.38
530.791	14.38
530.914	16.38
531.038	17.38
531.161	36.38
531.284	1.38
531.408	8.38
531.531	17.38
531.654	14.38
531.778	33.38
531.901	21.38
532.024	28.38
532.148	10.38
532.271	11.38
532.394	19.38
532.518	8.38
532.641	26.38
532.764	15.38
532.888	0.38
533.011	2.38
533.134	13.38
533.258	36.38
533.381	12.38
533.504	24.38
533.628	1.38
533.751	42.38
533.874	27.38
533.997	12.38
534.121	13.38
534.244	11.38
534.367	3.38
534.491	21.38
534.614	9.38
534.737	16.38
534.86	11.38
534.984	29.38
535.107	21.38
535.23	35.38
535.354	18.38
535.477	3.38
535.6	23.38
535.723	20.38
535.847	16.38
535.97	17.38
536.093	22.38
536.216	29.38
536.34	38.38
536.463	19.38
536.586	34.38
536.709	40.38
536.833	24.38
536.956	33.38
537.079	31.38
537.202	34.38
537.325	-0.62
537.449	15.38
537.572	19.38
537.695	6.38
537.818	4.38
537.941	14.38
538.065	14.38
538.188	18.38
538.311	18.38
538.434	25.38
538.558	26.38
538.681	22.38
538.804	41.38
538.927	16.38
539.05	24.38
539.173	2.38
539.297	0.38
539.42	30.38
539.543	24.38
539.666	47.38
539.789	34.38
539.913	21.38
540.036	15.38
540.159	31.38
540.282	12.38
540.405	5.38
540.528	26.38
540.651	48.38
540.775	29.38
540.898	33.38
541.021	20.38
541.144	35.38
541.267	23.38
541.39	9.38
541.513	50.38
541.637	45.38
541.76	40.38
541.883	22.38
542.006	30.38
542.129	40.38
542.252	27.38
542.375	33.38
542.498	47.38
542.622	65.38
542.745	59.38
542.868	29.38
542.991	64.38
543.114	63.38
543.237	70.38
543.36	70.38
543.483	58.38
543.606	51.38
543.73	91.38
543.853	75.38
543.976	84.38
544.099	133.38
544.222	135.38
544.345	141.38
544.468	166.38
544.591	227.38
544.714	285.38
544.837	349.38
544.96	437.38
545.083	644.38
545.206	1085.38
545.329	2399.38
545.453	10842.38
545.576	15242.38
545.699	15684.38
545.822	15684.38
545.945	15684.38
546.068	15684.38
546.191	15684.38
546.314	15684.38
546.437	15684.38
546.56	15684.38
546.683	15684.38
546.806	15684.38
546.929	15684.38
547.052	15684.38
547.175	15684.38
547.298	15684.38
547.421	15684.38
547.544	15684.38
547.667	3390.38
547.79	1669.38
547.913	894.38
548.036	792.38
548.159	598.38
548.282	572.38
548.405	463.38
548.528	472.38
548.651	377.38
548.774	387.38
548.897	351.38
549.02	339.38
549.143	303.38
549.266	299.38
549.389	253.38
549.512	248.38
549.635	257.38
549.758	253.38
549.881	207.38
550.004	226.38
550.127	204.38
550.25	202.38
550.373	171.38
550.496	189.38
550.619	167.38
550.742	156.38
550.865	130.38
550.988	150.38
551.111	152.38
551.234	168.38
551.356	118.38
551.479	117.38
551.602	106.38
551.725	124.38
551.848	134.38
551.971	137.38
552.094	111.38
552.217	119.38
552.34	102.38
552.463	103.38
552.586	104.38
552.709	105.38
552.832	101.38
552.955	114.38
553.077	102.38
553.2	116.38
553.323	86.38
553.446	106.38
553.569	104.38
553.692	104.38
553.815	106.38
553.938	101.38
554.061	110.38
554.184	84.38
554.306	81.38
554.429	83.38
554.552	85.38
554.675	78.38
554.798	75.38
554.921	89.38
555.044	91.38
555.167	64.38
555.29	63.38
555.412	74.38
555.535	73.38
555.658	64.38
555.781	80.38
555.904	96.38
556.027	78.38
556.15	81.38
556.272	50.38
556.395	83.38
556.518	58.38
556.641	69.38
556.764	83.38
556.887	76.38
557.01	58.38
557.132	49.38
557.255	75.38
557.378	98.38
557.501	84.38
557.624	54.38
557.747	69.38
557.869	86.38
557.992	88.38
558.115	87.38
558.238	93.38
558.361	82.38
558.483	91.38
558.606	72.38
558.729	54.38
558.852	79.38
558.975	70.38
559.098	57.38
559.22	60.38
559.343	56.38
559.466	46.38
559.589	39.38
559.712	46.38
559.834	70.38
559.957	75.38
560.08	57.38
560.203	77.38
560.325	66.38
560.448	64.38
560.571	50.38
560.694	49.38
560.817	78.38
560.939	38.38
561.062	54.38
561.185	79.38
561.308	65.38
561.43	72.38
561.553	55.38
561.676	58.38
561.799	61.38
561.921	59.38
562.044	61.38
562.167	59.38
562.29	81.38
562.413	63.38
562.535	79.38
562.658	65.38
562.781	69.38
562.903	72.38
563.026	100.38
563.149	140.38
563.272	123.38
563.394	109.38
563.517	121.38
563.64	59.38
563.763	53.38
563.885	36.38
564.008	70.38
564.131	51.38
564.254	31.38
564.376	34.38
564.499	24.38
564.622	32.38
564.744	35.38
564.867	48.38
564.99	42.38
565.113	46.38
565.235	47.38
565.358	35.38
565.481	29.38
565.603	36.38
565.726	28.38
565.849	45.38
565.971	47.38
566.094	31.38
566.217	43.38
566.34	47.38
566.462	35.38
566.585	46.38
566.708	34.38
566.83	39.38
566.953	66.38
567.076	42.38
567.198	40.38
567.321	4.38
567.444	32.38
567.566	42.38
567.689	35.38
567.812	34.38
567.934	35.38
568.057	34.38
568.18	42.38
568.302	38.38
568.425	34.38
568.548	46.38
568.67	47.38
568.793	37.38
568.916	48.38
569.038	43.38
569.161	42.38
569.283	35.38
569.406	27.38
569.529	45.38
569.651	16.38
569.774	24.38
569.897	32.38
570.019	71.38
570.142	49.38
570.265	17.38
570.387	30.38
570.51	40.38
570.632	53.38
570.755	23.38
570.878	23.38
571	35.38
571.123	11.38
571.246	40.38
571.368	40.38
571.491	32.38
571.613	32.38
571.736	14.38
571.859	25.38
571.981	29.38
572.104	22.38
572.226	38.38
572.349	42.38
572.472	48.38
572.594	36.38
572.717	36.38
572.839	30.38
572.962	41.38
573.085	35.38
573.207	50.38
573.33	50.38
573.452	65.38
573.575	52.38
573.697	47.38
573.82	34.38
573.943	29.38
574.065	38.38
574.188	40.38
574.31	47.38
574.433	37.38
574.555	58.38
574.678	54.38
574.801	53.38
574.923	33.38
575.046	49.38
575.168	53.38
575.291	45.38
575.413	41.38
575.536	33.38
575.659	51.38
575.781	51.38
575.904	58.38
576.026	77.38
576.149	86.38
576.271	138.38
576.394	201.38
576.516	530.38
576.639	3615.38
576.761	10019.38
576.884	8639.38
577.007	8618.38
577.129	7851.38
577.252	3627.38
577.374	1274.38
577.497	507.38
577.619	266.38
577.742	173.38
577.864	165.38
577.987	126.38
578.109	131.38
578.232	143.38
578.354	174.38
578.477	183.38
578.599	366.38
578.722	1928.38
578.844	8990.38
578.967	9691.38
579.089	8624.38
579.212	8874.38
579.334	5195.38
579.457	1887.38
579.579	710.38
579.702	343.38
579.824	217.38
579.947	146.38
580.069	105.38
580.192	86.38
580.314	101.38
580.437	76.38
580.559	95.38
580.682	74.38
580.804	70.38
580.927	55.38
581.049	68.38
581.172	62.38
581.294	51.38
581.417	49.38
581.539	44.38
581.662	60.38
581.784	49.38
581.907	50.38
582.029	57.38
582.152	44.38
582.274	35.38
582.396	54.38
582.519	52.38
582.641	33.38
582.764	37.38
582.886	64.38
583.009	43.38
583.131	34.38
583.254	42.38
583.376	35.38
583.499	50.38
583.621	34.38
583.743	48.38
583.866	29.38
583.988	41.38
584.111	50.38
584.233	42.38
584.356	40.38
584.478	34.38
584.601	17.38
584.723	42.38
584.845	35.38
584.968	29.38
585.09	19.38
585.213	24.38
585.335	13.38
585.458	32.38
585.58	38.38
585.702	37.38
585.825	43.38
585.947	35.38
586.07	20.38
586.192	11.38
586.315	47.38
586.437	26.38
586.559	33.38
586.682	15.38
586.804	31.38
586.927	17.38
587.049	22.38
587.171	36.38
587.294	41.38
587.416	57.38
587.539	34.38
587.661	15.38
587.783	20.38
587.906	27.38
588.028	35.38
588.151	31.38
588.273	46.38
588.395	16.38
588.518	21.38
588.64	30.38
588.763	51.38
588.885	30.38
589.007	37.38
589.13	9.38
589.252	12.38
589.375	25.38
589.497	39.38
589.619	39.38
589.742	40.38
589.864	50.38
589.986	22.38
590.109	29.38
590.231	29.38
590.354	35.38
590.476	17.38
590.598	33.38
590.721	28.38
590.843	38.38
590.965	32.38
591.088	56.38
591.21	42.38
591.332	24.38
591.455	19.38
591.577	36.38
591.7	32.38
591.822	25.38
591.944	29.38
592.067	30.38
592.189	26.38
592.311	44.38
592.434	21.38
592.556	27.38
592.678	31.38
592.801	23.38
592.923	17.38
593.045	-5.62
593.168	27.38
593.29	17.38
593.412	26.38
593.535	10.38
593.657	16.38
593.779	30.38
593.902	33.38
594.024	38.38
594.146	30.38
594.269	30.38
594.391	23.38
594.513	20.38
594.636	21.38
594.758	22.38
594.88	27.38
595.003	39.38
595.125	35.38
595.247	44.38
595.37	35.38
595.492	23.38
595.614	53.38
595.737	24.38
595.859	27.38
595.981	29.38
596.104	31.38
596.226	12.38
596.348	18.38
596.471	13.38
596.593	35.38
596.715	21.38
596.838	32.38
596.96	6.38
597.082	24.38
597.204	23.38
597.327	19.38
597.449	26.38
597.571	35.38
597.694	30.38
597.816	36.38
597.938	33.38
598.061	25.38
598.183	44.38
598.305	42.38
598.427	24.38
598.55	18.38
598.672	41.38
598.794	42.38
598.917	23.38
599.039	17.38
599.161	16.38
599.283	22.38
599.406	12.38
599.528	19.38
599.65	41.38
599.773	27.38
599.895	32.38
600.017	38.38
600.139	32.38
600.262	26.38
600.384	27.38
600.506	33.38
600.628	36.38
600.751	43.38
600.873	18.38
600.995	9.38
601.118	41.38
601.24	33.38
601.362	48.38
601.484	27.38
601.607	39.38
601.729	27.38
601.851	16.38
601.973	15.38
602.096	16.38
602.218	35.38
602.34	45.38
602.462	21.38
602.585	29.38
602.707	30.38
602.829	34.38
602.951	14.38
603.074	0.38
603.196	23.38
603.318	0.38
603.44	30.38
603.563	17.38
603.685	10.38
603.807	33.38
603.929	32.38
604.052	42.38
604.174	34.38
604.296	24.38
604.418	51.38
604.541	26.38
604.663	21.38
604.785	23.38
604.907	22.38
605.03	9.38
605.152	29.38
605.274	10.38
605.396	28.38
605.519	9.38
605.641	32.38
605.763	22.38
605.885	21.38
606.008	29.38
606.13	30.38
606.252	25.38
606.374	15.38
606.496	12.38
606.619	28.38
606.741	12.38
606.863	40.38
606.985	45.38
607.108	38.38
607.23	19.38
607.352	21.38
607.474	33.38
607.596	37.38
607.719	7.38
607.841	23.38
607.963	23.38
608.085	12.38
608.207	45.38
608.33	21.38
608.452	6.38
608.574	31.38
608.696	21.38
608.819	33.38
608.941	25.38
609.063	29.38
609.185	18.38
609.307	17.38
609.43	25.38
609.552	36.38
609.674	7.38
609.796	21.38
609.918	19.38
610.041	15.38
610.163	31.38
610.285	18.38
610.407	32.38
610.529	11.38
610.652	27.38
610.774	25.38
610.896	33.38
611.018	31.38
611.14	36.38
611.263	31.38
611.385	26.38
611.507	33.38
611.629	9.38
611.751	23.38
611.873	32.38
611.996	30.38
612.118	21.38
612.24	28.38
612.362	30.38
612.484	39.38
612.607	26.38
612.729	40.38
612.851	35.38
612.973	15.38
613.095	19.38
613.218	7.38
613.34	33.38
613.462	19.38
613.584	21.38
613.706	26.38
613.828	40.38
613.951	16.38
614.073	16.38
614.195	13.38
614.317	32.38
614.439	25.38
614.561	21.38
614.684	26.38
614.806	19.38
614.928	21.38
615.05	28.38
615.172	39.38
615.294	29.38
615.417	21.38
615.539	5.38
615.661	24.38
615.783	43.38
615.905	29.38
616.027	29.38
616.15	33.38
616.272	26.38
616.394	13.38
616.516	9.38
616.638	26.38
616.76	26.38
616.883	21.38
617.005	0.38
617.127	19.38
617.249	41.38
617.371	31.38
617.493	30.38
617.615	30.38
617.738	15.38
617.86	34.38
617.982	27.38
618.104	15.38
618.226	17.38
618.348	7.38
618.471	28.38
618.593	29.38
618.715	3.38
618.837	29.38
618.959	21.38
619.081	31.38
619.203	25.38
619.326	35.38
619.448	38.38
619.57	47.38
619.692	37.38
619.814	47.38
619.936	41.38
620.058	26.38
620.181	25.38
620.303	9.38
620.425	31.38
620.547	25.38
620.669	26.38
620.791	12.38
620.913	17.38
621.036	8.38
621.158	19.38
621.28	20.38
621.402	7.38
621.524	3.38
621.646	34.38
621.768	16.38
621.891	1.38
622.013	19.38
622.135	17.38
622.257	18.38
622.379	10.38
622.501	15.38
622.623	32.38
622.745	11.38
622.868	10.38
622.99	14.38
623.112	19.38
623.234	17.38
623.356	36.38
623.478	6.38
623.6	26.38
623.722	22.38
623.845	20.38
623.967	13.38
624.089	19.38
624.211	13.38
624.333	27.38
624.455	8.38
624.577	23.38
624.699	21.38
624.822	8.38
624.944	13.38
625.066	24.38
625.188	-0.62
625.31	33.38
625.432	29.38
625.554	29.38
625.676	49.38
625.799	22.38
625.921	37.38
626.043	21.38
626.165	29.38
626.287	8.38
626.409	16.38
626.531	1.38
626.653	15.38
626.775	21.38
626.898	44.38
627.02	40.38
627.142	69.38
627.264	38.38
627.386	43.38
627.508	27.38
627.63	23.38
627.752	31.38
627.874	33.38
627.997	11.38
628.119	25.38
628.241	29.38
628.363	45.38
628.485	38.38
628.607	14.38
628.729	24.38
628.851	-6.62
628.973	-1.62
629.096	2.38
629.218	27.38
629.34	32.38
629.462	18.38
629.584	8.38
629.706	21.38
629.828	16.38
629.95	20.38
630.072	16.38
630.195	27.38
630.317	19.38
630.439	26.38
630.561	21.38
630.683	11.38
630.805	20.38
630.927	28.38
631.049	22.38
631.171	5.38
631.293	12.38
631.416	24.38
631.538	31.38
631.66	15.38
631.782	34.38
631.904	19.38
632.026	6.38
632.148	20.38
632.27	-3.62
632.392	2.38
632.514	9.38
632.637	23.38
632.759	14.38
632.881	15.38
633.003	23.38
633.125	5.38
633.247	5.38
633.369	10.38
633.491	7.38
633.613	46.38
633.735	22.38
633.858	8.38
633.98	15.38
634.102	2.38
634.224	24.38
634.346	13.38
634.468	22.38
634.59	13.38
634.712	9.38
634.834	10.38
634.956	0.38
635.078	2.38
635.201	6.38
635.323	10.38
635.445	18.38
635.567	4.38
635.689	31.38
635.811	17.38
635.933	9.38
636.055	6.38
636.177	11.38
636.299	26.38
636.421	10.38
636.544	3.38
636.666	3.38
636.788	25.38
636.91	12.38
637.032	9.38
637.154	20.38
637.276	43.38
637.398	39.38
637.52	21.38
637.642	14.38
637.764	25.38
637.887	16.38
638.009	20.38
638.131	11.38
638.253	17.38
638.375	34.38
638.497	19.38
638.619	2.38
638.741	14.38
638.863	12.38
638.985	2.38
639.107	7.38
639.23	4.38
639.352	24.38
639.474	16.38
639.596	25.38
639.718	22.38
639.84	23.38
639.962	1.38
640.084	21.38
640.206	17.38
640.328	15.38
640.45	13.38
640.573	9.38
640.695	20.38
640.817	6.38
640.939	25.38
641.061	3.38
641.183	21.38
641.305	15.38
641.427	17.38
641.549	6.38
641.671	20.38
641.793	14.38
641.915	38.38
642.038	13.38
642.16	15.38
642.282	17.38
642.404	22.38
642.526	15.38
642.648	5.38
642.77	19.38
642.892	17.38
643.014	32.38
643.136	19.38
643.258	14.38
643.381	17.38
643.503	45.38
643.625	16.38
643.747	-0.62
643.869	-3.62
643.991	15.38
644.113	15.38
644.235	5.38
644.357	18.38
644.479	34.38
644.601	6.38
644.723	9.38
644.846	14.38
644.968	24.38
645.09	24.38
645.212	7.38
645.334	17.38
645.456	8.38
645.578	27.38
645.7	33.38
645.822	35.38
645.944	27.38
646.066	18.38
646.188	-0.62
646.311	41.38
646.433	16.38
646.555	25.38
646.677	19.38
646.799	15.38
646.921	19.38
647.043	25.38
647.165	-1.62
647.287	8.38
647.409	13.38
647.531	42.38
647.654	16.38
647.776	21.38
647.898	19.38
648.02	24.38
648.142	3.38
648.264	13.38
648.386	8.38
648.508	2.38
648.63	13.38
648.752	9.38
648.874	10.38
648.997	22.38
649.119	31.38
649.241	30.38
649.363	25.38
649.485	7.38
649.607	18.38
649.729	1.38
649.851	27.38
649.973	11.38
650.095	27.38
650.217	-2.62
650.34	5.38
650.462	9.38
650.584	17.38
650.706	16.38
650.828	6.38
650.95	-5.62
651.072	15.38
651.194	7.38
651.316	5.38
651.438	18.38
651.56	11.38
651.683	2.38
651.805	3.38
651.927	18.38
652.049	3.38
652.171	16.38
652.293	3.38
652.415	-1.62
652.537	13.38
652.659	11.38
652.781	9.38
652.903	13.38
653.026	23.38
653.148	21.38
653.27	7.38
653.392	15.38
653.514	13.38
653.636	6.38
653.758	17.38
653.88	2.38
654.002	4.38
654.124	11.38
654.247	9.38
654.369	39.38
654.491	5.38
654.613	12.38
654.735	2.38
654.857	26.38
654.979	12.38
655.101	16.38
655.223	59.38
655.345	23.38
655.468	28.38
655.59	9.38
655.712	-7.62
655.834	31.38
655.956	25.38
656.078	6.38
656.2	22.38
656.322	11.38
656.444	15.38
656.566	10.38
656.689	8.38
656.811	7.38
656.933	12.38
657.055	0.38
657.177	16.38
657.299	15.38
657.421	-5.62
657.543	19.38
657.665	14.38
657.787	20.38
657.91	14.38
658.032	9.38
658.154	9.38
658.276	11.38
658.398	-1.62
658.52	-6.62
658.642	13.38
658.764	-0.62
658.886	-8.62
659.009	30.38
659.131	30.38
659.253	8.38
659.375	13.38
659.497	17.38
659.619	18.38
659.741	13.38
659.863	16.38
659.985	25.38
660.108	25.38
660.23	8.38
660.352	15.38
660.474	13.38
660.596	30.38
660.718	12.38
660.84	6.38
660.962	9.38
661.084	-9.62
661.207	-2.62
661.329	17.38
661.451	-1.62
661.573	0.38
661.695	25.38
661.817	32.38
661.939	43.38
662.061	40.38
662.184	10.38
662.306	15.38
662.428	14.38
662.55	30.38
662.672	17.38
662.794	11.38
662.916	1.38
663.038	18.38
663.161	21.38
663.283	15.38
663.405	18.38
663.527	11.38
663.649	27.38
663.771	3.38
663.893	6.38
664.015	31.38
664.138	3.38
664.26	16.38
664.382	-6.62
664.504	14.38
664.626	-13.62
664.748	1.38
664.87	-6.62
664.992	7.38
665.115	13.38
665.237	-6.62
665.359	8.38
665.481	7.38
665.603	17.38
665.725	27.38
665.847	-4.62
665.97	10.38
666.092	19.38
666.214	30.38
666.336	32.38
666.458	25.38
666.58	27.38
666.702	6.38
666.825	13.38
666.947	11.38
667.069	12.38
667.191	16.38
667.313	5.38
667.435	5.38
667.557	-9.62
667.68	6.38
667.802	19.38
667.924	1.38
668.046	34.38
668.168	28.38
668.29	29.38
668.412	17.38
668.535	37.38
668.657	26.38
668.779	0.38
668.901	22.38
669.023	23.38
669.145	-4.62
669.267	32.38
669.39	14.38
669.512	25.38
669.634	17.38
669.756	23.38
669.878	10.38
670	19.38
670.123	9.38
670.245	40.38
670.367	16.38
670.489	17.38
670.611	23.38
670.733	7.38
670.856	0.38
670.978	11.38
671.1	24.38
671.222	22.38
671.344	18.38
671.466	13.38
671.589	-9.62
671.711	-4.62
671.833	10.38
671.955	-1.62
672.077	16.38
672.199	21.38
672.322	25.38
672.444	11.38
672.566	14.38
672.688	8.38
672.81	13.38
672.932	21.38
673.055	3.38
673.177	-0.62
673.299	21.38
673.421	13.38
673.543	21.38
673.665	28.38
673.788	14.38
673.91	11.38
674.032	-9.62
674.154	10.38
674.276	20.38
674.399	11.38
674.521	8.38
674.643	-4.62
674.765	-10.62
674.887	18.38
675.009	7.38
675.132	7.38
675.254	14.38
675.376	19.38
675.498	9.38
675.62	27.38
675.743	0.38
675.865	26.38
675.987	14.38
676.109	3.38
676.231	19.38
676.354	21.38
676.476	12.38
676.598	10.38
676.72	25.38
676.842	25.38
676.965	9.38
677.087	25.38
677.209	22.38
677.331	27.38
677.453	12.38
677.576	25.38
677.698	17.38
677.82	5.38
677.942	5.38
678.064	2.38
678.187	3.38
678.309	20.38
678.431	25.38
678.553	1.38
678.675	23.38
678.798	40.38
678.92	30.38
679.042	8.38
679.164	-4.62
679.286	18.38
679.409	14.38
679.531	7.38
679.653	-5.62
679.775	8.38
679.898	9.38
680.02	7.38
680.142	-2.62
680.264	25.38
680.386	5.38
680.509	7.38
680.631	19.38
680.753	0.38
680.875	6.38
680.998	11.38
681.12	5.38
681.242	8.38
681.364	7.38
681.486	18.38
681.609	-4.62
681.731	1.38
681.853	12.38
681.975	6.38
682.098	25.38
682.22	43.38
682.342	16.38
682.464	36.38
682.587	9.38
682.709	9.38
682.831	-5.62
682.953	-8.62
683.076	3.38
683.198	15.38
683.32	27.38
683.442	23.38
683.565	9.38
683.687	5.38
683.809	22.38
683.931	0.38
684.054	17.38
684.176	31.38
684.298	28.38
684.42	12.38
684.543	9.38
684.665	11.38
684.787	-4.62
684.909	5.38
685.032	33.38
685.154	-2.62
685.276	9.38
685.398	13.38
685.521	11.38
685.643	15.38
685.765	6.38
685.887	3.38
686.01	23.38
686.132	13.38
686.254	21.38
686.377	10.38
686.499	16.38
686.621	45.38
686.743	25.38
686.866	11.38
686.988	33.38
687.11	33.38
687.232	12.38
687.355	1.38
687.477	-5.62
687.599	10.38
687.722	8.38
687.844	11.38
687.966	1.38
688.088	10.38
688.211	22.38
688.333	17.38
688.455	14.38
688.578	27.38
688.7	18.38
688.822	-5.62
688.944	-3.62
689.067	44.38
689.189	11.38
689.311	7.38
689.434	14.38
689.556	19.38
689.678	25.38
689.801	-9.62
689.923	18.38
690.045	35.38
690.167	25.38
690.29	17.38
690.412	12.38
690.534	18.38
690.657	5.38
690.779	7.38
690.901	16.38
691.024	18.38
691.146	-1.62
691.268	9.38
691.391	39.38
691.513	27.38
691.635	7.38
691.758	22.38
691.88	15.38
692.002	5.38
692.125	17.38
692.247	5.38
692.369	11.38
692.492	6.38
692.614	12.38
692.736	5.38
692.859	2.38
692.981	6.38
693.103	16.38
693.226	23.38
693.348	33.38
693.47	32.38
693.593	37.38
693.715	45.38
693.837	37.38
693.96	27.38
694.082	13.38
694.204	14.38
694.327	-4.62
694.449	-7.62
694.571	11.38
694.694	13.38
694.816	7.38
694.938	-2.62
695.061	7.38
695.183	9.38
695.305	3.38
695.428	21.38
695.55	1.38
695.672	2.38
695.795	26.38
695.917	22.38
696.04	13.38
696.162	11.38
696.284	7.38
696.407	8.38
696.529	11.38
696.651	40.38
696.774	0.38
696.896	31.38
697.019	9.38
697.141	14.38
697.263	14.38
697.386	-2.62
697.508	8.38
697.63	19.38
697.753	21.38
697.875	17.38
697.998	5.38
698.12	21.38
698.242	24.38
698.365	6.38
698.487	-5.62
698.61	-6.62
698.732	10.38
698.854	12.38
698.977	8.38
699.099	15.38
699.221	9.38
699.344	6.38
699.466	15.38
699.589	16.38
699.711	-0.62
699.834	1.38
699.956	25.38
700.078	11.38
700.201	6.38
700.323	30.38
700.446	6.38
700.568	9.38
700.69	30.38
700.813	21.38
700.935	1.38
701.058	12.38
701.18	2.38
701.302	7.38
701.425	14.38
701.547	22.38
701.67	14.38
701.792	14.38
701.915	17.38
702.037	-3.62
702.159	5.38
702.282	9.38
702.404	9.38
702.527	30.38
702.649	20.38
702.772	19.38
702.894	-2.62
703.017	18.38
703.139	30.38
703.261	25.38
703.384	21.38
703.506	3.38
703.629	-3.62
703.751	16.38
703.874	7.38
703.996	14.38
704.119	-3.62
704.241	9.38
704.364	7.38
704.486	13.38
704.608	21.38
704.731	3.38
704.853	18.38
704.976	6.38
705.098	1.38
705.221	12.38
705.343	16.38
705.466	21.38
705.588	12.38
705.711	7.38
705.833	6.38
705.956	22.38
706.078	11.38
706.201	9.38
706.323	11.38
706.446	3.38
