Data from LowRes_mercury_15_20_11_07_2024_HR4C61881__93__15-23-41-570.txt Node

Date: Thu Nov 07 15:23:41 EST 2024
User: crc00042
Spectrometer: HR4C6188
Trigger mode: 4
Integration Time (sec): 1.000000E-1
Scans to average: 1
Electric dark correction enabled: true
Nonlinearity correction enabled: false
Boxcar width: 0
XAxis mode: Wavelengths
Number of Pixels in Spectrum: 3648
>>>>>Begin Spectral Data<<<<<
245.66	-70.08
245.797	-70.08
245.934	-70.08
246.071	-76.08
246.208	16.92
246.344	0.92
246.481	-8.08
246.618	-12.08
246.755	22.92
246.892	-12.08
247.029	-12.08
247.165	-10.08
247.302	13.92
247.439	-3.08
247.576	1.92
247.713	-10.08
247.849	31.92
247.986	-4.08
248.123	11.92
248.26	12.92
248.396	17.92
248.533	-0.08
248.67	-8.08
248.806	0.92
248.943	-10.08
249.08	0.92
249.216	9.92
249.353	-2.08
249.49	11.92
249.626	-0.08
249.763	7.92
249.9	-0.08
250.036	-7.08
250.173	17.92
250.309	7.92
250.446	8.92
250.582	2.92
250.719	-9.08
250.856	5.92
250.992	8.92
251.129	3.92
251.265	-2.08
251.402	2.92
251.538	-12.08
251.675	1.92
251.811	26.92
251.948	26.92
252.084	2.92
252.221	12.92
252.357	6.92
252.493	33.92
252.63	19.92
252.766	25.92
252.903	10.92
253.039	10.92
253.175	-3.08
253.312	4.92
253.448	-4.08
253.585	-16.08
253.721	22.92
253.857	-15.08
253.994	10.92
254.13	17.92
254.266	4.92
254.403	16.92
254.539	14.92
254.675	11.92
254.811	0.92
254.948	2.92
255.084	-7.08
255.22	-12.08
255.356	-3.08
255.493	7.92
255.629	19.92
255.765	19.92
255.901	23.92
256.037	12.92
256.174	9.92
256.31	2.92
256.446	-1.08
256.582	-0.08
256.718	14.92
256.854	24.92
256.991	12.92
257.127	17.92
257.263	0.92
257.399	-1.08
257.535	2.92
257.671	5.92
257.807	1.92
257.943	-2.08
258.079	15.92
258.215	6.92
258.351	11.92
258.487	-0.08
258.623	27.92
258.759	11.92
258.895	17.92
259.031	0.92
259.167	2.92
259.303	15.92
259.439	-5.08
259.575	10.92
259.711	-5.08
259.847	-18.08
259.983	19.92
260.119	-5.08
260.255	0.92
260.391	9.92
260.527	4.92
260.663	16.92
260.799	-0.08
260.934	-0.08
261.07	-3.08
261.206	-10.08
261.342	-21.08
261.478	20.92
261.614	7.92
261.749	3.92
261.885	-11.08
262.021	6.92
262.157	10.92
262.293	0.92
262.428	-13.08
262.564	11.92
262.7	22.92
262.836	10.92
262.971	18.92
263.107	12.92
263.243	15.92
263.378	8.92
263.514	-1.08
263.65	-14.08
263.785	-29.08
263.921	-4.08
264.057	0.92
264.192	2.92
264.328	4.92
264.464	-14.08
264.599	18.92
264.735	9.92
264.871	-2.08
265.006	15.92
265.142	11.92
265.277	15.92
265.413	10.92
265.548	25.92
265.684	4.92
265.819	2.92
265.955	-7.08
266.091	-5.08
266.226	-11.08
266.362	26.92
266.497	-6.08
266.633	5.92
266.768	2.92
266.903	4.92
267.039	16.92
267.174	20.92
267.31	-10.08
267.445	-9.08
267.581	3.92
267.716	-0.08
267.851	12.92
267.987	24.92
268.122	29.92
268.258	8.92
268.393	-9.08
268.528	25.92
268.664	13.92
268.799	13.92
268.934	11.92
269.07	-3.08
269.205	14.92
269.34	25.92
269.476	-7.08
269.611	-12.08
269.746	2.92
269.881	10.92
270.017	26.92
270.152	7.92
270.287	11.92
270.422	18.92
270.558	5.92
270.693	8.92
270.828	-4.08
270.963	5.92
271.098	-0.08
271.234	20.92
271.369	15.92
271.504	7.92
271.639	1.92
271.774	16.92
271.909	29.92
272.045	6.92
272.18	18.92
272.315	5.92
272.45	17.92
272.585	-13.08
272.72	-3.08
272.855	15.92
272.99	14.92
273.125	6.92
273.26	4.92
273.395	-1.08
273.53	9.92
273.665	22.92
273.8	22.92
273.935	12.92
274.07	2.92
274.205	17.92
274.34	2.92
274.475	11.92
274.61	23.92
274.745	5.92
274.88	34.92
275.015	-6.08
275.15	15.92
275.285	2.92
275.42	13.92
275.555	23.92
275.69	29.92
275.825	3.92
275.959	9.92
276.094	-1.08
276.229	16.92
276.364	-7.08
276.499	17.92
276.634	-3.08
276.768	11.92
276.903	8.92
277.038	19.92
277.173	-14.08
277.308	-7.08
277.442	-16.08
277.577	-6.08
277.712	3.92
277.847	-3.08
277.981	19.92
278.116	-11.08
278.251	24.92
278.386	20.92
278.52	5.92
278.655	7.92
278.79	28.92
278.924	9.92
279.059	26.92
279.194	3.92
279.328	36.92
279.463	28.92
279.598	15.92
279.732	21.92
279.867	19.92
280.001	20.92
280.136	9.92
280.271	27.92
280.405	14.92
280.54	16.92
280.674	1.92
280.809	27.92
280.943	-9.08
281.078	1.92
281.213	34.92
281.347	27.92
281.482	28.92
281.616	-0.08
281.751	5.92
281.885	0.92
282.02	-8.08
282.154	-4.08
282.288	-10.08
282.423	1.92
282.557	-22.08
282.692	9.92
282.826	8.92
282.961	20.92
283.095	27.92
283.229	1.92
283.364	-16.08
283.498	10.92
283.633	18.92
283.767	0.92
283.901	2.92
284.036	-0.08
284.17	8.92
284.304	-1.08
284.439	24.92
284.573	-7.08
284.707	4.92
284.842	4.92
284.976	2.92
285.11	0.92
285.244	23.92
285.379	54.92
285.513	-6.08
285.647	17.92
285.781	-0.08
285.916	20.92
286.05	-2.08
286.184	27.92
286.318	11.92
286.453	3.92
286.587	-1.08
286.721	-0.08
286.855	12.92
286.989	26.92
287.123	13.92
287.258	-1.08
287.392	-0.08
287.526	15.92
287.66	9.92
287.794	3.92
287.928	19.92
288.062	14.92
288.196	2.92
288.33	-0.08
288.464	13.92
288.598	27.92
288.733	0.92
288.867	20.92
289.001	14.92
289.135	21.92
289.269	-3.08
289.403	12.92
289.537	6.92
289.671	18.92
289.805	14.92
289.939	-7.08
290.073	4.92
290.207	19.92
290.34	4.92
290.474	15.92
290.608	35.92
290.742	1.92
290.876	1.92
291.01	-8.08
291.144	33.92
291.278	8.92
291.412	20.92
291.546	10.92
291.679	-1.08
291.813	19.92
291.947	13.92
292.081	5.92
292.215	-4.08
292.349	23.92
292.482	16.92
292.616	-2.08
292.75	0.92
292.884	5.92
293.018	23.92
293.151	-13.08
293.285	13.92
293.419	-4.08
293.553	18.92
293.686	0.92
293.82	7.92
293.954	32.92
294.088	28.92
294.221	-2.08
294.355	-16.08
294.489	-0.08
294.622	4.92
294.756	7.92
294.89	16.92
295.023	-1.08
295.157	-1.08
295.291	-5.08
295.424	24.92
295.558	16.92
295.691	16.92
295.825	3.92
295.959	13.92
296.092	5.92
296.226	15.92
296.359	14.92
296.493	28.92
296.627	25.92
296.76	20.92
296.894	2.92
297.027	11.92
297.161	-5.08
297.294	-0.08
297.428	2.92
297.561	28.92
297.695	-3.08
297.828	11.92
297.962	7.92
298.095	2.92
298.229	17.92
298.362	-14.08
298.495	-3.08
298.629	0.92
298.762	-2.08
298.896	15.92
299.029	-1.08
299.162	9.92
299.296	29.92
299.429	-4.08
299.563	5.92
299.696	13.92
299.829	15.92
299.963	29.92
300.096	17.92
300.229	11.92
300.363	25.92
300.496	6.92
300.629	-23.08
300.763	8.92
300.896	1.92
301.029	2.92
301.162	3.92
301.296	-5.08
301.429	10.92
301.562	-0.08
301.695	4.92
301.829	2.92
301.962	33.92
302.095	7.92
302.228	-10.08
302.362	16.92
302.495	13.92
302.628	22.92
302.761	2.92
302.894	12.92
303.027	24.92
303.161	-5.08
303.294	-8.08
303.427	8.92
303.56	5.92
303.693	19.92
303.826	17.92
303.959	16.92
304.092	6.92
304.225	-4.08
304.359	4.92
304.492	16.92
304.625	-7.08
304.758	16.92
304.891	-16.08
305.024	-11.08
305.157	15.92
305.29	-23.08
305.423	-10.08
305.556	17.92
305.689	12.92
305.822	1.92
305.955	8.92
306.088	11.92
306.221	-5.08
306.354	-6.08
306.487	20.92
306.62	5.92
306.752	3.92
306.885	6.92
307.018	8.92
307.151	11.92
307.284	15.92
307.417	12.92
307.55	8.92
307.683	9.92
307.816	31.92
307.948	13.92
308.081	34.92
308.214	28.92
308.347	23.92
308.48	-6.08
308.613	-9.08
308.745	4.92
308.878	11.92
309.011	5.92
309.144	19.92
309.277	7.92
309.409	15.92
309.542	26.92
309.675	25.92
309.808	2.92
309.94	30.92
310.073	6.92
310.206	5.92
310.339	13.92
310.471	-11.08
310.604	17.92
310.737	7.92
310.869	3.92
311.002	-8.08
311.135	-4.08
311.267	0.92
311.4	7.92
311.533	12.92
311.665	22.92
311.798	-0.08
311.93	14.92
312.063	24.92
312.196	47.92
312.328	96.92
312.461	56.92
312.593	29.92
312.726	44.92
312.859	110.92
312.991	151.92
313.124	46.92
313.256	35.92
313.389	37.92
313.521	-0.08
313.654	-18.08
313.786	4.92
313.919	-19.08
314.051	18.92
314.184	9.92
314.316	23.92
314.449	-15.08
314.581	-7.08
314.714	0.92
314.846	28.92
314.978	-19.08
315.111	2.92
315.243	12.92
315.376	-2.08
315.508	24.92
315.641	15.92
315.773	16.92
315.905	17.92
316.038	7.92
316.17	15.92
316.302	-1.08
316.435	-12.08
316.567	9.92
316.699	8.92
316.832	-12.08
316.964	10.92
317.096	-7.08
317.229	3.92
317.361	-11.08
317.493	2.92
317.625	2.92
317.758	13.92
317.89	16.92
318.022	1.92
318.155	-6.08
318.287	-0.08
318.419	19.92
318.551	7.92
318.683	3.92
318.816	-6.08
318.948	14.92
319.08	3.92
319.212	7.92
319.344	21.92
319.477	-7.08
319.609	18.92
319.741	8.92
319.873	-1.08
320.005	16.92
320.137	11.92
320.269	1.92
320.401	-3.08
320.534	-3.08
320.666	-5.08
320.798	-11.08
320.93	5.92
321.062	-5.08
321.194	13.92
321.326	5.92
321.458	10.92
321.59	-7.08
321.722	-6.08
321.854	-1.08
321.986	-2.08
322.118	2.92
322.25	4.92
322.382	11.92
322.514	15.92
322.646	0.92
322.778	19.92
322.91	4.92
323.042	-4.08
323.174	2.92
323.306	1.92
323.438	-10.08
323.57	1.92
323.702	-0.08
323.834	5.92
323.966	-2.08
324.097	22.92
324.229	10.92
324.361	5.92
324.493	7.92
324.625	-4.08
324.757	-0.08
324.889	12.92
325.021	15.92
325.152	24.92
325.284	26.92
325.416	17.92
325.548	29.92
325.68	8.92
325.811	24.92
325.943	22.92
326.075	7.92
326.207	20.92
326.339	26.92
326.47	8.92
326.602	4.92
326.734	5.92
326.866	30.92
326.997	6.92
327.129	-4.08
327.261	-13.08
327.392	18.92
327.524	15.92
327.656	8.92
327.787	15.92
327.919	19.92
328.051	11.92
328.182	16.92
328.314	12.92
328.446	6.92
328.577	20.92
328.709	20.92
328.841	5.92
328.972	-5.08
329.104	7.92
329.235	16.92
329.367	-13.08
329.499	8.92
329.63	1.92
329.762	5.92
329.893	11.92
330.025	22.92
330.156	-15.08
330.288	22.92
330.419	31.92
330.551	11.92
330.683	-0.08
330.814	21.92
330.946	11.92
331.077	-17.08
331.208	-1.08
331.34	-6.08
331.471	-4.08
331.603	2.92
331.734	-16.08
331.866	13.92
331.997	8.92
332.129	7.92
332.26	-10.08
332.392	17.92
332.523	14.92
332.654	5.92
332.786	13.92
332.917	1.92
333.048	19.92
333.18	35.92
333.311	7.92
333.443	4.92
333.574	17.92
333.705	35.92
333.837	40.92
333.968	124.92
334.099	222.92
334.231	219.92
334.362	61.92
334.493	40.92
334.624	13.92
334.756	7.92
334.887	10.92
335.018	1.92
335.15	21.92
335.281	12.92
335.412	27.92
335.543	-0.08
335.675	8.92
335.806	9.92
335.937	1.92
336.068	17.92
336.199	43.92
336.331	15.92
336.462	7.92
336.593	7.92
336.724	-1.08
336.855	17.92
336.986	14.92
337.118	19.92
337.249	11.92
337.38	12.92
337.511	23.92
337.642	17.92
337.773	22.92
337.904	14.92
338.035	10.92
338.166	-13.08
338.298	18.92
338.429	18.92
338.56	20.92
338.691	42.92
338.822	13.92
338.953	9.92
339.084	28.92
339.215	26.92
339.346	4.92
339.477	15.92
339.608	20.92
339.739	13.92
339.87	7.92
340.001	17.92
340.132	27.92
340.263	25.92
340.394	33.92
340.525	11.92
340.656	6.92
340.787	4.92
340.918	29.92
341.049	15.92
341.179	11.92
341.31	17.92
341.441	18.92
341.572	26.92
341.703	18.92
341.834	-0.08
341.965	7.92
342.096	11.92
342.227	18.92
342.357	25.92
342.488	39.92
342.619	18.92
342.75	13.92
342.881	0.92
343.012	36.92
343.142	34.92
343.273	4.92
343.404	15.92
343.535	42.92
343.666	45.92
343.796	29.92
343.927	26.92
344.058	49.92
344.189	35.92
344.319	25.92
344.45	27.92
344.581	21.92
344.712	14.92
344.842	9.92
344.973	13.92
345.104	21.92
345.234	16.92
345.365	14.92
345.496	12.92
345.626	42.92
345.757	23.92
345.888	5.92
346.018	25.92
346.149	20.92
346.28	43.92
346.41	30.92
346.541	57.92
346.672	44.92
346.802	36.92
346.933	24.92
347.063	34.92
347.194	25.92
347.325	17.92
347.455	38.92
347.586	33.92
347.716	12.92
347.847	42.92
347.977	32.92
348.108	39.92
348.238	52.92
348.369	27.92
348.499	53.92
348.63	51.92
348.76	37.92
348.891	50.92
349.021	66.92
349.152	53.92
349.282	56.92
349.413	36.92
349.543	38.92
349.674	33.92
349.804	48.92
349.935	26.92
350.065	33.92
350.196	11.92
350.326	40.92
350.456	8.92
350.587	41.92
350.717	21.92
350.848	40.92
350.978	20.92
351.108	8.92
351.239	49.92
351.369	15.92
351.499	30.92
351.63	45.92
351.76	26.92
351.89	14.92
352.021	32.92
352.151	3.92
352.281	30.92
352.412	24.92
352.542	23.92
352.672	28.92
352.803	0.92
352.933	27.92
353.063	35.92
353.193	17.92
353.324	28.92
353.454	34.92
353.584	40.92
353.714	30.92
353.845	14.92
353.975	11.92
354.105	17.92
354.235	31.92
354.365	34.92
354.496	20.92
354.626	29.92
354.756	26.92
354.886	17.92
355.016	34.92
355.146	31.92
355.277	18.92
355.407	30.92
355.537	23.92
355.667	28.92
355.797	29.92
355.927	8.92
356.057	15.92
356.187	26.92
356.318	-0.08
356.448	22.92
356.578	34.92
356.708	36.92
356.838	26.92
356.968	33.92
357.098	41.92
357.228	47.92
357.358	24.92
357.488	34.92
357.618	50.92
357.748	35.92
357.878	45.92
358.008	28.92
358.138	33.92
358.268	38.92
358.398	53.92
358.528	11.92
358.658	37.92
358.788	20.92
358.918	28.92
359.048	28.92
359.178	40.92
359.308	43.92
359.438	42.92
359.568	38.92
359.698	32.92
359.827	27.92
359.957	36.92
360.087	16.92
360.217	20.92
360.347	28.92
360.477	34.92
360.607	15.92
360.737	42.92
360.866	31.92
360.996	26.92
361.126	19.92
361.256	57.92
361.386	39.92
361.516	50.92
361.645	31.92
361.775	38.92
361.905	8.92
362.035	46.92
362.165	33.92
362.294	51.92
362.424	35.92
362.554	38.92
362.684	23.92
362.813	41.92
362.943	62.92
363.073	59.92
363.203	53.92
363.332	66.92
363.462	68.92
363.592	94.92
363.721	121.92
363.851	148.92
363.981	207.92
364.111	264.92
364.24	315.92
364.37	482.92
364.5	852.92
364.629	1806.92
364.759	3843.92
364.888	6211.92
365.018	9353.92
365.148	14802.92
365.277	12892.92
365.407	4740.92
365.537	3095.92
365.666	4020.92
365.796	1848.92
365.925	825.92
366.055	747.92
366.184	1040.92
366.314	1389.92
366.444	2435.92
366.573	2115.92
366.703	663.92
366.832	210.92
366.962	121.92
367.091	86.92
367.221	81.92
367.35	45.92
367.48	80.92
367.609	44.92
367.739	50.92
367.868	28.92
367.998	52.92
368.127	58.92
368.257	71.92
368.386	55.92
368.516	63.92
368.645	28.92
368.775	51.92
368.904	41.92
369.033	30.92
369.163	29.92
369.292	65.92
369.422	44.92
369.551	42.92
369.68	38.92
369.81	37.92
369.939	29.92
370.069	38.92
370.198	47.92
370.327	29.92
370.457	38.92
370.586	31.92
370.715	40.92
370.845	43.92
370.974	40.92
371.103	51.92
371.233	52.92
371.362	45.92
371.491	35.92
371.621	80.92
371.75	42.92
371.879	37.92
372.008	44.92
372.138	60.92
372.267	72.92
372.396	59.92
372.525	43.92
372.655	24.92
372.784	24.92
372.913	13.92
373.042	35.92
373.172	38.92
373.301	10.92
373.43	16.92
373.559	31.92
373.688	32.92
373.818	39.92
373.947	25.92
374.076	36.92
374.205	37.92
374.334	28.92
374.463	4.92
374.593	24.92
374.722	21.92
374.851	29.92
374.98	18.92
375.109	22.92
375.238	30.92
375.367	53.92
375.496	7.92
375.625	5.92
375.755	32.92
375.884	28.92
376.013	41.92
376.142	18.92
376.271	29.92
376.4	15.92
376.529	30.92
376.658	34.92
376.787	27.92
376.916	34.92
377.045	17.92
377.174	8.92
377.303	27.92
377.432	49.92
377.561	37.92
377.69	29.92
377.819	47.92
377.948	31.92
378.077	15.92
378.206	20.92
378.335	26.92
378.464	23.92
378.593	38.92
378.722	7.92
378.851	24.92
378.98	27.92
379.108	12.92
379.237	5.92
379.366	20.92
379.495	46.92
379.624	36.92
379.753	21.92
379.882	26.92
380.011	8.92
380.14	20.92
380.268	19.92
380.397	11.92
380.526	31.92
380.655	14.92
380.784	5.92
380.913	25.92
381.041	36.92
381.17	26.92
381.299	30.92
381.428	19.92
381.557	26.92
381.685	20.92
381.814	30.92
381.943	19.92
382.072	14.92
382.2	3.92
382.329	10.92
382.458	16.92
382.587	38.92
382.715	37.92
382.844	38.92
382.973	16.92
383.102	25.92
383.23	7.92
383.359	-5.08
383.488	21.92
383.616	27.92
383.745	8.92
383.874	14.92
384.003	12.92
384.131	7.92
384.26	20.92
384.389	40.92
384.517	19.92
384.646	19.92
384.774	12.92
384.903	22.92
385.032	37.92
385.16	32.92
385.289	23.92
385.418	15.92
385.546	13.92
385.675	39.92
385.803	23.92
385.932	25.92
386.06	14.92
386.189	38.92
386.318	48.92
386.446	26.92
386.575	23.92
386.703	30.92
386.832	23.92
386.96	13.92
387.089	26.92
387.217	6.92
387.346	15.92
387.474	34.92
387.603	25.92
387.731	21.92
387.86	31.92
387.988	32.92
388.117	26.92
388.245	31.92
388.374	25.92
388.502	28.92
388.631	12.92
388.759	31.92
388.888	19.92
389.016	19.92
389.144	21.92
389.273	41.92
389.401	25.92
389.53	15.92
389.658	38.92
389.786	19.92
389.915	6.92
390.043	24.92
390.172	39.92
390.3	30.92
390.428	40.92
390.557	29.92
390.685	40.92
390.813	56.92
390.942	52.92
391.07	32.92
391.198	30.92
391.327	19.92
391.455	6.92
391.583	41.92
391.712	29.92
391.84	23.92
391.968	30.92
392.096	25.92
392.225	9.92
392.353	17.92
392.481	36.92
392.609	30.92
392.738	38.92
392.866	36.92
392.994	29.92
393.122	43.92
393.251	29.92
393.379	10.92
393.507	8.92
393.635	27.92
393.764	15.92
393.892	30.92
394.02	20.92
394.148	14.92
394.276	25.92
394.404	59.92
394.533	36.92
394.661	38.92
394.789	44.92
394.917	52.92
395.045	11.92
395.173	18.92
395.302	9.92
395.43	34.92
395.558	46.92
395.686	52.92
395.814	45.92
395.942	32.92
396.07	30.92
396.198	28.92
396.326	32.92
396.454	58.92
396.582	43.92
396.711	31.92
396.839	47.92
396.967	60.92
397.095	43.92
397.223	34.92
397.351	56.92
397.479	62.92
397.607	39.92
397.735	46.92
397.863	59.92
397.991	58.92
398.119	23.92
398.247	39.92
398.375	52.92
398.503	48.92
398.631	65.92
398.759	76.92
398.887	53.92
399.015	50.92
399.143	64.92
399.271	69.92
399.399	61.92
399.526	88.92
399.654	80.92
399.782	57.92
399.91	94.92
400.038	99.92
400.166	95.92
400.294	98.92
400.422	72.92
400.55	117.92
400.678	122.92
400.805	115.92
400.933	123.92
401.061	121.92
401.189	116.92
401.317	117.92
401.445	101.92
401.573	90.92
401.7	59.92
401.828	68.92
401.956	49.92
402.084	55.92
402.212	45.92
402.34	48.92
402.467	38.92
402.595	50.92
402.723	54.92
402.851	50.92
402.978	58.92
403.106	71.92
403.234	105.92
403.362	123.92
403.489	127.92
403.617	173.92
403.745	193.92
403.873	284.92
404	560.92
404.128	1422.92
404.256	3884.92
404.384	5091.92
404.511	5429.92
404.639	7168.92
404.767	11413.92
404.894	14604.92
405.022	4881.92
405.15	1306.92
405.277	417.92
405.405	229.92
405.533	116.92
405.66	115.92
405.788	55.92
405.916	60.92
406.043	43.92
406.171	70.92
406.299	81.92
406.426	55.92
406.554	69.92
406.681	74.92
406.809	35.92
406.937	54.92
407.064	70.92
407.192	147.92
407.319	290.92
407.447	488.92
407.574	558.92
407.702	645.92
407.83	861.92
407.957	1595.92
408.085	948.92
408.212	282.92
408.34	103.92
408.467	62.92
408.595	63.92
408.722	50.92
408.85	53.92
408.977	37.92
409.105	36.92
409.232	39.92
409.36	32.92
409.487	47.92
409.615	23.92
409.742	42.92
409.87	33.92
409.997	41.92
410.125	45.92
410.252	35.92
410.379	40.92
410.507	48.92
410.634	33.92
410.762	30.92
410.889	29.92
411.017	36.92
411.144	38.92
411.271	29.92
411.399	34.92
411.526	23.92
411.653	20.92
411.781	34.92
411.908	27.92
412.036	35.92
412.163	67.92
412.29	32.92
412.418	20.92
412.545	48.92
412.672	26.92
412.8	61.92
412.927	45.92
413.054	44.92
413.182	44.92
413.309	42.92
413.436	15.92
413.564	37.92
413.691	39.92
413.818	41.92
413.945	35.92
414.073	32.92
414.2	16.92
414.327	18.92
414.454	48.92
414.582	34.92
414.709	25.92
414.836	25.92
414.963	23.92
415.091	45.92
415.218	26.92
415.345	18.92
415.472	33.92
415.6	23.92
415.727	44.92
415.854	36.92
415.981	25.92
416.108	21.92
416.236	29.92
416.363	31.92
416.49	7.92
416.617	13.92
416.744	36.92
416.871	46.92
416.998	12.92
417.126	49.92
417.253	34.92
417.38	30.92
417.507	38.92
417.634	47.92
417.761	58.92
417.888	34.92
418.015	42.92
418.143	61.92
418.27	57.92
418.397	35.92
418.524	46.92
418.651	41.92
418.778	34.92
418.905	46.92
419.032	50.92
419.159	32.92
419.286	56.92
419.413	50.92
419.54	51.92
419.667	29.92
419.794	44.92
419.921	55.92
420.048	45.92
420.175	63.92
420.302	60.92
420.429	50.92
420.556	53.92
420.683	34.92
420.81	52.92
420.937	79.92
421.064	76.92
421.191	62.92
421.318	91.92
421.445	94.92
421.572	72.92
421.699	65.92
421.826	37.92
421.953	25.92
422.08	36.92
422.207	13.92
422.334	11.92
422.461	24.92
422.588	26.92
422.714	36.92
422.841	36.92
422.968	44.92
423.095	18.92
423.222	4.92
423.349	20.92
423.476	31.92
423.603	20.92
423.729	23.92
423.856	26.92
423.983	31.92
424.11	8.92
424.237	10.92
424.364	28.92
424.491	28.92
424.617	2.92
424.744	10.92
424.871	32.92
424.998	19.92
425.125	21.92
425.251	32.92
425.378	17.92
425.505	18.92
425.632	36.92
425.758	14.92
425.885	30.92
426.012	41.92
426.139	29.92
426.266	17.92
426.392	33.92
426.519	27.92
426.646	19.92
426.772	41.92
426.899	24.92
427.026	19.92
427.153	27.92
427.279	34.92
427.406	33.92
427.533	20.92
427.659	24.92
427.786	23.92
427.913	50.92
428.039	34.92
428.166	29.92
428.293	32.92
428.419	40.92
428.546	22.92
428.673	19.92
428.799	9.92
428.926	33.92
429.053	35.92
429.179	43.92
429.306	48.92
429.433	47.92
429.559	29.92
429.686	29.92
429.812	13.92
429.939	22.92
430.066	27.92
430.192	38.92
430.319	32.92
430.445	32.92
430.572	16.92
430.699	3.92
430.825	17.92
430.952	19.92
431.078	31.92
431.205	30.92
431.331	42.92
431.458	34.92
431.584	35.92
431.711	17.92
431.837	31.92
431.964	31.92
432.09	32.92
432.217	5.92
432.343	21.92
432.47	37.92
432.596	18.92
432.723	28.92
432.849	23.92
432.976	41.92
433.102	26.92
433.229	25.92
433.355	59.92
433.482	76.92
433.608	120.92
433.735	124.92
433.861	126.92
433.987	179.92
434.114	201.92
434.24	171.92
434.367	224.92
434.493	232.92
434.62	303.92
434.746	396.92
434.872	618.92
434.999	850.92
435.125	1711.92
435.252	5499.92
435.378	13411.92
435.504	15194.92
435.631	15418.92
435.757	15686.92
435.883	15686.92
436.01	15686.92
436.136	15686.92
436.262	15686.92
436.389	3447.92
436.515	2052.92
436.641	791.92
436.768	637.92
436.894	408.92
437.02	388.92
437.147	329.92
437.273	307.92
437.399	213.92
437.526	244.92
437.652	179.92
437.778	193.92
437.904	151.92
438.031	175.92
438.157	147.92
438.283	158.92
438.409	115.92
438.536	137.92
438.662	141.92
438.788	127.92
438.914	115.92
439.041	108.92
439.167	122.92
439.293	111.92
439.419	105.92
439.546	95.92
439.672	69.92
439.798	85.92
439.924	87.92
440.05	93.92
440.177	72.92
440.303	77.92
440.429	68.92
440.555	100.92
440.681	71.92
440.807	86.92
440.934	71.92
441.06	85.92
441.186	61.92
441.312	66.92
441.438	68.92
441.564	66.92
441.69	42.92
441.816	68.92
441.943	43.92
442.069	68.92
442.195	58.92
442.321	74.92
442.447	47.92
442.573	50.92
442.699	40.92
442.825	43.92
442.951	59.92
443.077	63.92
443.203	52.92
443.33	57.92
443.456	29.92
443.582	51.92
443.708	58.92
443.834	51.92
443.96	46.92
444.086	43.92
444.212	51.92
444.338	67.92
444.464	52.92
444.59	71.92
444.716	43.92
444.842	48.92
444.968	37.92
445.094	35.92
445.22	24.92
445.346	27.92
445.472	33.92
445.598	55.92
445.724	24.92
445.85	43.92
445.976	47.92
446.102	46.92
446.228	52.92
446.354	43.92
446.48	31.92
446.605	44.92
446.731	50.92
446.857	38.92
446.983	45.92
447.109	42.92
447.235	46.92
447.361	26.92
447.487	46.92
447.613	35.92
447.739	55.92
447.865	37.92
447.99	28.92
448.116	21.92
448.242	46.92
448.368	45.92
448.494	26.92
448.62	38.92
448.746	35.92
448.872	41.92
448.997	16.92
449.123	27.92
449.249	48.92
449.375	48.92
449.501	27.92
449.627	25.92
449.752	36.92
449.878	19.92
450.004	7.92
450.13	56.92
450.256	41.92
450.381	28.92
450.507	37.92
450.633	23.92
450.759	42.92
450.884	36.92
451.01	50.92
451.136	19.92
451.262	34.92
451.388	36.92
451.513	23.92
451.639	27.92
451.765	46.92
451.89	40.92
452.016	25.92
452.142	17.92
452.268	35.92
452.393	14.92
452.519	9.92
452.645	23.92
452.771	34.92
452.896	29.92
453.022	25.92
453.148	41.92
453.273	26.92
453.399	14.92
453.525	13.92
453.65	13.92
453.776	34.92
453.902	45.92
454.027	37.92
454.153	43.92
454.279	58.92
454.404	21.92
454.53	47.92
454.656	44.92
454.781	-3.08
454.907	26.92
455.032	20.92
455.158	34.92
455.284	41.92
455.409	29.92
455.535	32.92
455.66	42.92
455.786	63.92
455.912	45.92
456.037	35.92
456.163	42.92
456.288	41.92
456.414	10.92
456.539	20.92
456.665	32.92
456.791	24.92
456.916	10.92
457.042	36.92
457.167	26.92
457.293	34.92
457.418	42.92
457.544	27.92
457.669	29.92
457.795	41.92
457.92	33.92
458.046	29.92
458.171	40.92
458.297	25.92
458.422	19.92
458.548	17.92
458.673	24.92
458.799	49.92
458.924	13.92
459.05	29.92
459.175	39.92
459.301	28.92
459.426	35.92
459.552	36.92
459.677	37.92
459.803	37.92
459.928	37.92
460.053	25.92
460.179	28.92
460.304	38.92
460.43	17.92
460.555	18.92
460.681	27.92
460.806	42.92
460.931	42.92
461.057	42.92
461.182	33.92
461.308	28.92
461.433	47.92
461.558	27.92
461.684	31.92
461.809	34.92
461.934	28.92
462.06	41.92
462.185	2.92
462.311	38.92
462.436	24.92
462.561	38.92
462.687	29.92
462.812	11.92
462.937	23.92
463.063	18.92
463.188	16.92
463.313	37.92
463.439	27.92
463.564	25.92
463.689	48.92
463.814	31.92
463.94	23.92
464.065	48.92
464.19	33.92
464.316	12.92
464.441	26.92
464.566	19.92
464.692	26.92
464.817	32.92
464.942	15.92
465.067	23.92
465.193	15.92
465.318	27.92
465.443	28.92
465.568	30.92
465.694	18.92
465.819	48.92
465.944	27.92
466.069	33.92
466.194	30.92
466.32	33.92
466.445	26.92
466.57	38.92
466.695	26.92
466.82	29.92
466.946	34.92
467.071	27.92
467.196	24.92
467.321	43.92
467.446	27.92
467.572	46.92
467.697	26.92
467.822	45.92
467.947	43.92
468.072	20.92
468.197	42.92
468.323	30.92
468.448	46.92
468.573	29.92
468.698	35.92
468.823	57.92
468.948	47.92
469.073	36.92
469.198	56.92
469.324	50.92
469.449	29.92
469.574	29.92
469.699	46.92
469.824	51.92
469.949	34.92
470.074	36.92
470.199	69.92
470.324	29.92
470.449	42.92
470.574	32.92
470.7	37.92
470.825	54.92
470.95	57.92
471.075	44.92
471.2	59.92
471.325	58.92
471.45	55.92
471.575	35.92
471.7	42.92
471.825	5.92
471.95	35.92
472.075	33.92
472.2	32.92
472.325	34.92
472.45	36.92
472.575	49.92
472.7	37.92
472.825	39.92
472.95	41.92
473.075	44.92
473.2	25.92
473.325	55.92
473.45	55.92
473.575	43.92
473.7	57.92
473.825	47.92
473.95	27.92
474.075	38.92
474.2	15.92
474.325	11.92
474.45	47.92
474.574	20.92
474.699	25.92
474.824	27.92
474.949	4.92
475.074	3.92
475.199	34.92
475.324	35.92
475.449	37.92
475.574	22.92
475.699	37.92
475.824	35.92
475.949	27.92
476.073	18.92
476.198	21.92
476.323	32.92
476.448	15.92
476.573	24.92
476.698	17.92
476.823	46.92
476.947	38.92
477.072	37.92
477.197	37.92
477.322	14.92
477.447	23.92
477.572	33.92
477.697	27.92
477.821	23.92
477.946	34.92
478.071	36.92
478.196	24.92
478.321	40.92
478.445	23.92
478.57	20.92
478.695	21.92
478.82	26.92
478.945	31.92
479.069	29.92
479.194	16.92
479.319	30.92
479.444	33.92
479.569	19.92
479.693	34.92
479.818	45.92
479.943	37.92
480.068	40.92
480.192	37.92
480.317	17.92
480.442	21.92
480.567	19.92
480.691	25.92
480.816	19.92
480.941	12.92
481.066	36.92
481.19	31.92
481.315	22.92
481.44	19.92
481.564	-3.08
481.689	24.92
481.814	21.92
481.938	25.92
482.063	13.92
482.188	12.92
482.313	35.92
482.437	2.92
482.562	13.92
482.687	25.92
482.811	32.92
482.936	25.92
483.061	27.92
483.185	25.92
483.31	44.92
483.435	28.92
483.559	9.92
483.684	19.92
483.808	49.92
483.933	22.92
484.058	26.92
484.182	37.92
484.307	31.92
484.432	25.92
484.556	23.92
484.681	32.92
484.805	23.92
484.93	40.92
485.055	31.92
485.179	47.92
485.304	48.92
485.428	5.92
485.553	5.92
485.678	27.92
485.802	8.92
485.927	35.92
486.051	41.92
486.176	32.92
486.3	4.92
486.425	24.92
486.549	34.92
486.674	33.92
486.799	19.92
486.923	21.92
487.048	12.92
487.172	24.92
487.297	33.92
487.421	44.92
487.546	33.92
487.67	33.92
487.795	17.92
487.919	30.92
488.044	43.92
488.168	39.92
488.293	31.92
488.417	17.92
488.542	24.92
488.666	42.92
488.791	46.92
488.915	17.92
489.04	26.92
489.164	30.92
489.289	31.92
489.413	24.92
489.538	38.92
489.662	31.92
489.786	14.92
489.911	24.92
490.035	20.92
490.16	20.92
490.284	9.92
490.409	12.92
490.533	18.92
490.658	23.92
490.782	45.92
490.906	49.92
491.031	114.92
491.155	137.92
491.28	155.92
491.404	167.92
491.528	264.92
491.653	160.92
491.777	66.92
491.902	27.92
492.026	35.92
492.15	46.92
492.275	52.92
492.399	23.92
492.524	17.92
492.648	39.92
492.772	28.92
492.897	34.92
493.021	22.92
493.145	32.92
493.27	23.92
493.394	4.92
493.518	9.92
493.643	24.92
493.767	34.92
493.891	24.92
494.016	36.92
494.14	27.92
494.264	34.92
494.389	39.92
494.513	19.92
494.637	18.92
494.762	33.92
494.886	23.92
495.01	29.92
495.134	27.92
495.259	43.92
495.383	11.92
495.507	33.92
495.632	43.92
495.756	48.92
495.88	44.92
496.004	12.92
496.129	25.92
496.253	23.92
496.377	19.92
496.501	44.92
496.626	24.92
496.75	28.92
496.874	18.92
496.998	12.92
497.123	50.92
497.247	22.92
497.371	40.92
497.495	18.92
497.62	27.92
497.744	25.92
497.868	17.92
497.992	35.92
498.116	47.92
498.241	29.92
498.365	30.92
498.489	12.92
498.613	41.92
498.737	24.92
498.862	23.92
498.986	9.92
499.11	27.92
499.234	19.92
499.358	22.92
499.482	7.92
499.607	28.92
499.731	34.92
499.855	16.92
499.979	20.92
500.103	18.92
500.227	40.92
500.351	33.92
500.476	18.92
500.6	20.92
500.724	19.92
500.848	31.92
500.972	35.92
501.096	36.92
501.22	43.92
501.344	17.92
501.469	23.92
501.593	21.92
501.717	19.92
501.841	15.92
501.965	22.92
502.089	33.92
502.213	33.92
502.337	19.92
502.461	33.92
502.585	13.92
502.709	25.92
502.834	17.92
502.958	32.92
503.082	18.92
503.206	23.92
503.33	35.92
503.454	32.92
503.578	37.92
503.702	27.92
503.826	33.92
503.95	35.92
504.074	31.92
504.198	5.92
504.322	7.92
504.446	16.92
504.57	20.92
504.694	44.92
504.818	29.92
504.942	47.92
505.066	37.92
505.19	21.92
505.314	39.92
505.438	33.92
505.562	34.92
505.686	36.92
505.81	30.92
505.934	38.92
506.058	53.92
506.182	26.92
506.306	42.92
506.43	23.92
506.554	17.92
506.678	23.92
506.802	33.92
506.926	39.92
507.05	37.92
507.174	34.92
507.298	27.92
507.422	32.92
507.546	29.92
507.67	31.92
507.794	15.92
507.918	16.92
508.042	33.92
508.165	25.92
508.289	20.92
508.413	33.92
508.537	29.92
508.661	28.92
508.785	31.92
508.909	19.92
509.033	42.92
509.157	21.92
509.281	24.92
509.405	43.92
509.528	49.92
509.652	47.92
509.776	37.92
509.9	43.92
510.024	28.92
510.148	47.92
510.272	46.92
510.396	55.92
510.519	26.92
510.643	65.92
510.767	49.92
510.891	42.92
511.015	25.92
511.139	52.92
511.263	68.92
511.386	36.92
511.51	53.92
511.634	57.92
511.758	40.92
511.882	36.92
512.006	54.92
512.129	49.92
512.253	98.92
512.377	83.92
512.501	132.92
512.625	111.92
512.748	76.92
512.872	78.92
512.996	66.92
513.12	61.92
513.244	66.92
513.367	74.92
513.491	78.92
513.615	63.92
513.739	76.92
513.862	96.92
513.986	104.92
514.11	102.92
514.234	81.92
514.358	113.92
514.481	117.92
514.605	101.92
514.729	109.92
514.853	115.92
514.976	106.92
515.1	95.92
515.224	119.92
515.348	85.92
515.471	62.92
515.595	105.92
515.719	146.92
515.842	235.92
515.966	288.92
516.09	310.92
516.214	306.92
516.337	355.92
516.461	250.92
516.585	97.92
516.708	51.92
516.832	30.92
516.956	36.92
517.08	28.92
517.203	5.92
517.327	31.92
517.451	43.92
517.574	37.92
517.698	11.92
517.822	17.92
517.945	40.92
518.069	33.92
518.193	47.92
518.316	30.92
518.44	37.92
518.564	14.92
518.687	9.92
518.811	29.92
518.935	51.92
519.058	7.92
519.182	20.92
519.306	18.92
519.429	28.92
519.553	51.92
519.676	48.92
519.8	23.92
519.924	7.92
520.047	27.92
520.171	23.92
520.294	16.92
520.418	14.92
520.542	26.92
520.665	19.92
520.789	25.92
520.913	10.92
521.036	13.92
521.16	24.92
521.283	27.92
521.407	11.92
521.53	28.92
521.654	-3.08
521.778	34.92
521.901	16.92
522.025	29.92
522.148	11.92
522.272	32.92
522.395	22.92
522.519	37.92
522.643	13.92
522.766	5.92
522.89	29.92
523.013	28.92
523.137	7.92
523.26	12.92
523.384	29.92
523.507	29.92
523.631	19.92
523.754	23.92
523.878	36.92
524.002	31.92
524.125	26.92
524.249	16.92
524.372	25.92
524.496	21.92
524.619	38.92
524.743	16.92
524.866	14.92
524.99	4.92
525.113	11.92
525.237	29.92
525.36	27.92
525.484	28.92
525.607	5.92
525.731	2.92
525.854	36.92
525.978	25.92
526.101	13.92
526.224	14.92
526.348	18.92
526.471	21.92
526.595	29.92
526.718	26.92
526.842	16.92
526.965	35.92
527.089	23.92
527.212	24.92
527.336	17.92
527.459	38.92
527.582	20.92
527.706	20.92
527.829	47.92
527.953	38.92
528.076	14.92
528.2	35.92
528.323	24.92
528.446	40.92
528.57	18.92
528.693	41.92
528.817	22.92
528.94	-2.08
529.064	37.92
529.187	24.92
529.31	27.92
529.434	24.92
529.557	18.92
529.68	33.92
529.804	24.92
529.927	32.92
530.051	18.92
530.174	5.92
530.297	10.92
530.421	22.92
530.544	29.92
530.668	34.92
530.791	20.92
530.914	47.92
531.038	30.92
531.161	16.92
531.284	5.92
531.408	27.92
531.531	15.92
531.654	21.92
531.778	31.92
531.901	9.92
532.024	39.92
532.148	24.92
532.271	34.92
532.394	24.92
532.518	19.92
532.641	17.92
532.764	35.92
532.888	13.92
533.011	4.92
533.134	3.92
533.258	39.92
533.381	9.92
533.504	33.92
533.628	24.92
533.751	35.92
533.874	19.92
533.997	14.92
534.121	17.92
534.244	33.92
534.367	16.92
534.491	14.92
534.614	25.92
534.737	51.92
534.86	35.92
534.984	21.92
535.107	15.92
535.23	12.92
535.354	9.92
535.477	11.92
535.6	28.92
535.723	21.92
535.847	22.92
535.97	-6.08
536.093	16.92
536.216	13.92
536.34	30.92
536.463	13.92
536.586	17.92
536.709	17.92
536.833	27.92
536.956	20.92
537.079	11.92
537.202	37.92
537.325	24.92
537.449	7.92
537.572	19.92
537.695	30.92
537.818	33.92
537.941	7.92
538.065	47.92
538.188	4.92
538.311	41.92
538.434	27.92
538.558	35.92
538.681	39.92
538.804	29.92
538.927	30.92
539.05	8.92
539.173	22.92
539.297	28.92
539.42	43.92
539.543	24.92
539.666	35.92
539.789	24.92
539.913	19.92
540.036	16.92
540.159	27.92
540.282	17.92
540.405	16.92
540.528	20.92
540.651	33.92
540.775	24.92
540.898	33.92
541.021	32.92
541.144	37.92
541.267	35.92
541.39	25.92
541.513	32.92
541.637	28.92
541.76	27.92
541.883	22.92
542.006	51.92
542.129	61.92
542.252	36.92
542.375	43.92
542.498	45.92
542.622	68.92
542.745	59.92
542.868	60.92
542.991	69.92
543.114	54.92
543.237	59.92
543.36	67.92
543.483	57.92
543.606	72.92
543.73	94.92
543.853	71.92
543.976	85.92
544.099	121.92
544.222	123.92
544.345	131.92
544.468	187.92
544.591	220.92
544.714	259.92
544.837	351.92
544.96	458.92
545.083	655.92
545.206	1067.92
545.329	2426.92
545.453	10974.92
545.576	15266.92
545.699	15686.92
545.822	15686.92
545.945	15686.92
546.068	15686.92
546.191	15686.92
546.314	15686.92
546.437	15686.92
546.56	15686.92
546.683	15686.92
546.806	15686.92
546.929	15686.92
547.052	15686.92
547.175	15686.92
547.298	15686.92
547.421	15686.92
547.544	15686.92
547.667	3561.92
547.79	2257.92
547.913	988.92
548.036	871.92
548.159	633.92
548.282	619.92
548.405	496.92
548.528	498.92
548.651	413.92
548.774	419.92
548.897	351.92
549.02	359.92
549.143	311.92
549.266	323.92
549.389	287.92
549.512	254.92
549.635	254.92
549.758	263.92
549.881	209.92
550.004	227.92
550.127	186.92
550.25	184.92
550.373	170.92
550.496	199.92
550.619	171.92
550.742	160.92
550.865	152.92
550.988	172.92
551.111	143.92
551.234	148.92
551.356	116.92
551.479	128.92
551.602	127.92
551.725	145.92
551.848	119.92
551.971	149.92
552.094	126.92
552.217	113.92
552.34	97.92
552.463	96.92
552.586	104.92
552.709	106.92
552.832	129.92
552.955	105.92
553.077	117.92
553.2	103.92
553.323	79.92
553.446	109.92
553.569	107.92
553.692	113.92
553.815	101.92
553.938	104.92
554.061	116.92
554.184	89.92
554.306	88.92
554.429	83.92
554.552	71.92
554.675	80.92
554.798	91.92
554.921	91.92
555.044	73.92
555.167	71.92
555.29	64.92
555.412	86.92
555.535	84.92
555.658	73.92
555.781	84.92
555.904	80.92
556.027	82.92
556.15	65.92
556.272	64.92
556.395	93.92
556.518	81.92
556.641	84.92
556.764	96.92
556.887	83.92
557.01	66.92
557.132	57.92
557.255	61.92
557.378	75.92
557.501	55.92
557.624	61.92
557.747	73.92
557.869	69.92
557.992	92.92
558.115	112.92
558.238	101.92
558.361	92.92
558.483	108.92
558.606	72.92
558.729	47.92
558.852	71.92
558.975	72.92
559.098	79.92
559.22	63.92
559.343	53.92
559.466	50.92
559.589	53.92
559.712	41.92
559.834	48.92
559.957	45.92
560.08	65.92
560.203	63.92
560.325	66.92
560.448	63.92
560.571	55.92
560.694	65.92
560.817	84.92
560.939	85.92
561.062	60.92
561.185	65.92
561.308	67.92
561.43	69.92
561.553	62.92
561.676	70.92
561.799	70.92
561.921	69.92
562.044	76.92
562.167	39.92
562.29	70.92
562.413	74.92
562.535	67.92
562.658	31.92
562.781	65.92
562.903	88.92
563.026	97.92
563.149	137.92
563.272	137.92
563.394	123.92
563.517	100.92
563.64	65.92
563.763	48.92
563.885	47.92
564.008	69.92
564.131	67.92
564.254	38.92
564.376	44.92
564.499	25.92
564.622	35.92
564.744	59.92
564.867	37.92
564.99	35.92
565.113	32.92
565.235	19.92
565.358	32.92
565.481	25.92
565.603	36.92
565.726	34.92
565.849	67.92
565.971	68.92
566.094	44.92
566.217	32.92
566.34	51.92
566.462	48.92
566.585	49.92
566.708	55.92
566.83	49.92
566.953	44.92
567.076	41.92
567.198	33.92
567.321	31.92
567.444	43.92
567.566	47.92
567.689	20.92
567.812	19.92
567.934	43.92
568.057	39.92
568.18	47.92
568.302	30.92
568.425	44.92
568.548	25.92
568.67	42.92
568.793	34.92
568.916	36.92
569.038	37.92
569.161	31.92
569.283	35.92
569.406	42.92
569.529	35.92
569.651	31.92
569.774	33.92
569.897	38.92
570.019	56.92
570.142	34.92
570.265	43.92
570.387	42.92
570.51	39.92
570.632	41.92
570.755	45.92
570.878	23.92
571	46.92
571.123	34.92
571.246	47.92
571.368	29.92
571.491	44.92
571.613	45.92
571.736	22.92
571.859	52.92
571.981	34.92
572.104	21.92
572.226	20.92
572.349	21.92
572.472	33.92
572.594	28.92
572.717	35.92
572.839	26.92
572.962	30.92
573.085	46.92
573.207	30.92
573.33	36.92
573.452	50.92
573.575	43.92
573.697	22.92
573.82	39.92
573.943	36.92
574.065	46.92
574.188	45.92
574.31	43.92
574.433	47.92
574.555	46.92
574.678	33.92
574.801	38.92
574.923	21.92
575.046	49.92
575.168	32.92
575.291	29.92
575.413	36.92
575.536	61.92
575.659	50.92
575.781	42.92
575.904	39.92
576.026	58.92
576.149	70.92
576.271	140.92
576.394	194.92
576.516	525.92
576.639	3584.92
576.761	10124.92
576.884	8811.92
577.007	8779.92
577.129	7984.92
577.252	3724.92
577.374	1302.92
577.497	524.92
577.619	296.92
577.742	186.92
577.864	155.92
577.987	135.92
578.109	143.92
578.232	136.92
578.354	158.92
578.477	180.92
578.599	360.92
578.722	1984.92
578.844	9161.92
578.967	9831.92
579.089	8731.92
579.212	9122.92
579.334	5239.92
579.457	1904.92
579.579	721.92
579.702	328.92
579.824	218.92
579.947	133.92
580.069	112.92
580.192	91.92
580.314	100.92
580.437	81.92
580.559	104.92
580.682	59.92
580.804	52.92
580.927	65.92
581.049	77.92
581.172	76.92
581.294	60.92
581.417	56.92
581.539	49.92
581.662	47.92
581.784	47.92
581.907	57.92
582.029	45.92
582.152	52.92
582.274	59.92
582.396	43.92
582.519	41.92
582.641	29.92
582.764	23.92
582.886	58.92
583.009	38.92
583.131	56.92
583.254	42.92
583.376	56.92
583.499	42.92
583.621	38.92
583.743	32.92
583.866	41.92
583.988	40.92
584.111	40.92
584.233	54.92
584.356	54.92
584.478	37.92
584.601	35.92
584.723	32.92
584.845	49.92
584.968	40.92
585.09	40.92
585.213	31.92
585.335	22.92
585.458	31.92
585.58	25.92
585.702	49.92
585.825	40.92
585.947	51.92
586.07	31.92
586.192	23.92
586.315	47.92
586.437	39.92
586.559	32.92
586.682	26.92
586.804	43.92
586.927	23.92
587.049	37.92
587.171	38.92
587.294	40.92
587.416	42.92
587.539	38.92
587.661	17.92
587.783	11.92
587.906	33.92
588.028	45.92
588.151	51.92
588.273	41.92
588.395	30.92
588.518	27.92
588.64	27.92
588.763	37.92
588.885	37.92
589.007	43.92
589.13	27.92
589.252	27.92
589.375	34.92
589.497	24.92
589.619	31.92
589.742	33.92
589.864	35.92
589.986	25.92
590.109	25.92
590.231	23.92
590.354	44.92
590.476	25.92
590.598	12.92
590.721	7.92
590.843	30.92
590.965	23.92
591.088	41.92
591.21	33.92
591.332	33.92
591.455	15.92
591.577	18.92
591.7	40.92
591.822	21.92
591.944	29.92
592.067	28.92
592.189	27.92
592.311	25.92
592.434	28.92
592.556	43.92
592.678	37.92
592.801	19.92
592.923	19.92
593.045	20.92
593.168	32.92
593.29	29.92
593.412	40.92
593.535	29.92
593.657	29.92
593.779	18.92
593.902	20.92
594.024	21.92
594.146	37.92
594.269	42.92
594.391	21.92
594.513	36.92
594.636	24.92
594.758	10.92
594.88	51.92
595.003	25.92
595.125	33.92
595.247	33.92
595.37	51.92
595.492	30.92
595.614	44.92
595.737	35.92
595.859	31.92
595.981	34.92
596.104	43.92
596.226	32.92
596.348	20.92
596.471	24.92
596.593	44.92
596.715	23.92
596.838	37.92
596.96	33.92
597.082	30.92
597.204	24.92
597.327	40.92
597.449	17.92
597.571	27.92
597.694	43.92
597.816	32.92
597.938	29.92
598.061	13.92
598.183	31.92
598.305	38.92
598.427	30.92
598.55	47.92
598.672	41.92
598.794	34.92
598.917	32.92
599.039	30.92
599.161	48.92
599.283	36.92
599.406	31.92
599.528	22.92
599.65	51.92
599.773	35.92
599.895	39.92
600.017	28.92
600.139	26.92
600.262	21.92
600.384	18.92
600.506	34.92
600.628	47.92
600.751	44.92
600.873	29.92
600.995	23.92
601.118	34.92
601.24	23.92
601.362	63.92
601.484	42.92
601.607	34.92
601.729	19.92
601.851	6.92
601.973	15.92
602.096	39.92
602.218	31.92
602.34	23.92
602.462	32.92
602.585	33.92
602.707	37.92
602.829	41.92
602.951	20.92
603.074	12.92
603.196	12.92
603.318	15.92
603.44	27.92
603.563	18.92
603.685	10.92
603.807	19.92
603.929	25.92
604.052	41.92
604.174	12.92
604.296	31.92
604.418	32.92
604.541	44.92
604.663	25.92
604.785	35.92
604.907	30.92
605.03	22.92
605.152	46.92
605.274	22.92
605.396	29.92
605.519	26.92
605.641	11.92
605.763	24.92
605.885	20.92
606.008	39.92
606.13	33.92
606.252	27.92
606.374	19.92
606.496	11.92
606.619	19.92
606.741	34.92
606.863	47.92
606.985	33.92
607.108	13.92
607.23	24.92
607.352	28.92
607.474	17.92
607.596	37.92
607.719	33.92
607.841	33.92
607.963	35.92
608.085	34.92
608.207	51.92
608.33	35.92
608.452	20.92
608.574	24.92
608.696	44.92
608.819	25.92
608.941	28.92
609.063	25.92
609.185	23.92
609.307	25.92
609.43	39.92
609.552	35.92
609.674	17.92
609.796	44.92
609.918	31.92
610.041	37.92
610.163	32.92
610.285	21.92
610.407	11.92
610.529	19.92
610.652	21.92
610.774	27.92
610.896	45.92
611.018	31.92
611.14	24.92
611.263	26.92
611.385	26.92
611.507	31.92
611.629	4.92
611.751	35.92
611.873	35.92
611.996	15.92
612.118	52.92
612.24	33.92
612.362	38.92
612.484	49.92
612.607	29.92
612.729	44.92
612.851	35.92
612.973	29.92
613.095	17.92
613.218	20.92
613.34	34.92
613.462	23.92
613.584	26.92
613.706	29.92
613.828	41.92
613.951	18.92
614.073	20.92
614.195	20.92
614.317	33.92
614.439	37.92
614.561	29.92
614.684	28.92
614.806	41.92
614.928	23.92
615.05	39.92
615.172	23.92
615.294	41.92
615.417	35.92
615.539	28.92
615.661	39.92
615.783	34.92
615.905	28.92
616.027	23.92
616.15	41.92
616.272	28.92
616.394	24.92
616.516	35.92
616.638	37.92
616.76	31.92
616.883	35.92
617.005	34.92
617.127	22.92
617.249	19.92
617.371	39.92
617.493	24.92
617.615	22.92
617.738	40.92
617.86	21.92
617.982	18.92
618.104	17.92
618.226	31.92
618.348	27.92
618.471	39.92
618.593	26.92
618.715	12.92
618.837	21.92
618.959	19.92
619.081	32.92
619.203	16.92
619.326	28.92
619.448	35.92
619.57	39.92
619.692	35.92
619.814	35.92
619.936	47.92
620.058	31.92
620.181	32.92
620.303	16.92
620.425	17.92
620.547	25.92
620.669	19.92
620.791	24.92
620.913	4.92
621.036	13.92
621.158	26.92
621.28	44.92
621.402	5.92
621.524	32.92
621.646	39.92
621.768	20.92
621.891	-0.08
622.013	19.92
622.135	8.92
622.257	5.92
622.379	20.92
622.501	36.92
622.623	30.92
622.745	12.92
622.868	24.92
622.99	11.92
623.112	5.92
623.234	27.92
623.356	28.92
623.478	10.92
623.6	41.92
623.722	26.92
623.845	19.92
623.967	3.92
624.089	36.92
624.211	20.92
624.333	11.92
624.455	24.92
624.577	9.92
624.699	15.92
624.822	15.92
624.944	22.92
625.066	29.92
625.188	21.92
625.31	18.92
625.432	37.92
625.554	7.92
625.676	34.92
625.799	23.92
625.921	33.92
626.043	21.92
626.165	20.92
626.287	-7.08
626.409	36.92
626.531	27.92
626.653	23.92
626.775	40.92
626.898	49.92
627.02	36.92
627.142	43.92
627.264	35.92
627.386	42.92
627.508	39.92
627.63	21.92
627.752	38.92
627.874	26.92
627.997	31.92
628.119	42.92
628.241	37.92
628.363	30.92
628.485	29.92
628.607	20.92
628.729	15.92
628.851	19.92
628.973	23.92
629.096	0.92
629.218	5.92
629.34	16.92
629.462	16.92
629.584	27.92
629.706	19.92
629.828	33.92
629.95	11.92
630.072	16.92
630.195	28.92
630.317	26.92
630.439	23.92
630.561	13.92
630.683	4.92
630.805	20.92
630.927	17.92
631.049	17.92
631.171	18.92
631.293	28.92
631.416	19.92
631.538	27.92
631.66	21.92
631.782	31.92
631.904	33.92
632.026	17.92
632.148	37.92
632.27	15.92
632.392	14.92
632.514	20.92
632.637	26.92
632.759	15.92
632.881	11.92
633.003	10.92
633.125	23.92
633.247	27.92
633.369	28.92
633.491	8.92
633.613	17.92
633.735	14.92
633.858	16.92
633.98	33.92
634.102	0.92
634.224	23.92
634.346	33.92
634.468	12.92
634.59	26.92
634.712	19.92
634.834	24.92
634.956	8.92
635.078	-5.08
635.201	25.92
635.323	24.92
635.445	12.92
635.567	12.92
635.689	28.92
635.811	15.92
635.933	9.92
636.055	18.92
636.177	21.92
636.299	16.92
636.421	9.92
636.544	7.92
636.666	26.92
636.788	35.92
636.91	20.92
637.032	16.92
637.154	39.92
637.276	46.92
637.398	23.92
637.52	23.92
637.642	30.92
637.764	20.92
637.887	13.92
638.009	7.92
638.131	22.92
638.253	18.92
638.375	14.92
638.497	31.92
638.619	11.92
638.741	18.92
638.863	10.92
638.985	9.92
639.107	9.92
639.23	11.92
639.352	23.92
639.474	12.92
639.596	15.92
639.718	19.92
639.84	26.92
639.962	22.92
640.084	32.92
640.206	32.92
640.328	18.92
640.45	30.92
640.573	32.92
640.695	7.92
640.817	12.92
640.939	20.92
641.061	26.92
641.183	3.92
641.305	13.92
641.427	4.92
641.549	3.92
641.671	12.92
641.793	17.92
641.915	30.92
642.038	20.92
642.16	9.92
642.282	12.92
642.404	4.92
642.526	13.92
642.648	28.92
642.77	23.92
642.892	21.92
643.014	30.92
643.136	20.92
643.258	29.92
643.381	46.92
643.503	34.92
643.625	5.92
643.747	-8.08
643.869	12.92
643.991	13.92
644.113	9.92
644.235	19.92
644.357	19.92
644.479	33.92
644.601	21.92
644.723	2.92
644.846	26.92
644.968	16.92
645.09	2.92
645.212	-5.08
645.334	36.92
645.456	28.92
645.578	24.92
645.7	22.92
645.822	20.92
645.944	19.92
646.066	7.92
646.188	-0.08
646.311	32.92
646.433	26.92
646.555	21.92
646.677	37.92
646.799	28.92
646.921	19.92
647.043	21.92
647.165	11.92
647.287	8.92
647.409	5.92
647.531	14.92
647.654	-11.08
647.776	22.92
647.898	11.92
648.02	23.92
648.142	13.92
648.264	10.92
648.386	10.92
648.508	18.92
648.63	1.92
648.752	10.92
648.874	18.92
648.997	25.92
649.119	36.92
649.241	20.92
649.363	40.92
649.485	20.92
649.607	17.92
649.729	3.92
649.851	15.92
649.973	19.92
650.095	18.92
650.217	1.92
650.34	12.92
650.462	18.92
650.584	27.92
650.706	31.92
650.828	31.92
650.95	13.92
651.072	29.92
651.194	4.92
651.316	19.92
651.438	21.92
651.56	11.92
651.683	-8.08
651.805	3.92
651.927	1.92
652.049	12.92
652.171	30.92
652.293	30.92
652.415	19.92
652.537	-2.08
652.659	2.92
652.781	9.92
652.903	25.92
653.026	23.92
653.148	12.92
653.27	9.92
653.392	38.92
653.514	10.92
653.636	9.92
653.758	6.92
653.88	-4.08
654.002	3.92
654.124	30.92
654.247	-2.08
654.369	20.92
654.491	8.92
654.613	11.92
654.735	8.92
654.857	21.92
654.979	17.92
655.101	24.92
655.223	59.92
655.345	4.92
655.468	23.92
655.59	2.92
655.712	19.92
655.834	24.92
655.956	41.92
656.078	25.92
656.2	0.92
656.322	2.92
656.444	-14.08
656.566	29.92
656.689	-4.08
656.811	9.92
656.933	16.92
657.055	-0.08
657.177	13.92
657.299	11.92
657.421	-1.08
657.543	19.92
657.665	15.92
657.787	3.92
657.91	24.92
658.032	15.92
658.154	6.92
658.276	11.92
658.398	7.92
658.52	9.92
658.642	20.92
658.764	14.92
658.886	-20.08
659.009	13.92
659.131	19.92
659.253	23.92
659.375	5.92
659.497	17.92
659.619	23.92
659.741	11.92
659.863	8.92
659.985	0.92
660.108	23.92
660.23	-12.08
660.352	12.92
660.474	9.92
660.596	16.92
660.718	17.92
660.84	12.92
660.962	31.92
661.084	15.92
661.207	5.92
661.329	11.92
661.451	4.92
661.573	19.92
661.695	41.92
661.817	35.92
661.939	53.92
662.061	37.92
662.184	9.92
662.306	7.92
662.428	12.92
662.55	19.92
662.672	23.92
662.794	-1.08
662.916	10.92
663.038	5.92
663.161	23.92
663.283	33.92
663.405	26.92
663.527	20.92
663.649	17.92
663.771	15.92
663.893	5.92
664.015	2.92
664.138	5.92
664.26	22.92
664.382	20.92
664.504	3.92
664.626	0.92
664.748	10.92
664.87	1.92
664.992	20.92
665.115	24.92
665.237	11.92
665.359	-0.08
665.481	11.92
665.603	29.92
665.725	8.92
665.847	16.92
665.97	4.92
666.092	30.92
666.214	21.92
666.336	35.92
666.458	28.92
666.58	12.92
666.702	-4.08
666.825	-3.08
666.947	1.92
667.069	25.92
667.191	13.92
667.313	18.92
667.435	9.92
667.557	-1.08
667.68	7.92
667.802	-7.08
667.924	14.92
668.046	20.92
668.168	26.92
668.29	37.92
668.412	8.92
668.535	21.92
668.657	15.92
668.779	-3.08
668.901	9.92
669.023	28.92
669.145	12.92
669.267	26.92
669.39	32.92
669.512	11.92
669.634	18.92
669.756	7.92
669.878	8.92
670	20.92
670.123	13.92
670.245	34.92
670.367	34.92
670.489	24.92
670.611	16.92
670.733	8.92
670.856	3.92
670.978	-4.08
671.1	6.92
671.222	18.92
671.344	12.92
671.466	3.92
671.589	-8.08
671.711	18.92
671.833	5.92
671.955	11.92
672.077	11.92
672.199	33.92
672.322	22.92
672.444	20.92
672.566	36.92
672.688	13.92
672.81	20.92
672.932	23.92
673.055	31.92
673.177	-0.08
673.299	15.92
673.421	9.92
673.543	4.92
673.665	39.92
673.788	25.92
673.91	20.92
674.032	-4.08
674.154	26.92
674.276	3.92
674.399	3.92
674.521	23.92
674.643	13.92
674.765	3.92
674.887	5.92
675.009	4.92
675.132	5.92
675.254	8.92
675.376	9.92
675.498	14.92
675.62	36.92
675.743	4.92
675.865	29.92
675.987	9.92
676.109	36.92
676.231	27.92
676.354	39.92
676.476	15.92
676.598	37.92
676.72	16.92
676.842	11.92
676.965	10.92
677.087	4.92
677.209	23.92
677.331	37.92
677.453	24.92
677.576	12.92
677.698	16.92
677.82	16.92
677.942	13.92
678.064	16.92
678.187	27.92
678.309	16.92
678.431	25.92
678.553	14.92
678.675	33.92
678.798	44.92
678.92	17.92
679.042	15.92
679.164	-10.08
679.286	25.92
679.409	12.92
679.531	-0.08
679.653	4.92
679.775	7.92
679.898	-3.08
680.02	10.92
680.142	13.92
680.264	11.92
680.386	-5.08
680.509	8.92
680.631	18.92
680.753	21.92
680.875	11.92
680.998	21.92
681.12	11.92
681.242	15.92
681.364	15.92
681.486	15.92
681.609	-4.08
681.731	2.92
681.853	-1.08
681.975	-0.08
682.098	3.92
682.22	27.92
682.342	17.92
682.464	29.92
682.587	24.92
682.709	18.92
682.831	12.92
682.953	10.92
683.076	-0.08
683.198	32.92
683.32	18.92
683.442	29.92
683.565	36.92
683.687	-10.08
683.809	17.92
683.931	-2.08
684.054	33.92
684.176	21.92
684.298	4.92
684.42	9.92
684.543	-2.08
684.665	19.92
684.787	16.92
684.909	11.92
685.032	28.92
685.154	-14.08
685.276	10.92
685.398	-4.08
685.521	-8.08
685.643	10.92
685.765	13.92
685.887	18.92
686.01	21.92
686.132	-9.08
686.254	27.92
686.377	23.92
686.499	13.92
686.621	23.92
686.743	17.92
686.866	10.92
686.988	16.92
687.11	21.92
687.232	21.92
687.355	8.92
687.477	4.92
687.599	8.92
687.722	-5.08
687.844	4.92
687.966	22.92
688.088	28.92
688.211	50.92
688.333	29.92
688.455	11.92
688.578	24.92
688.7	18.92
688.822	26.92
688.944	16.92
689.067	53.92
689.189	14.92
689.311	-2.08
689.434	24.92
689.556	25.92
689.678	24.92
689.801	15.92
689.923	26.92
690.045	26.92
690.167	25.92
690.29	20.92
690.412	8.92
690.534	13.92
690.657	10.92
690.779	14.92
690.901	7.92
691.024	-1.08
691.146	3.92
691.268	-14.08
691.391	10.92
691.513	24.92
691.635	32.92
691.758	33.92
691.88	28.92
692.002	14.92
692.125	18.92
692.247	12.92
692.369	15.92
692.492	24.92
692.614	10.92
692.736	8.92
692.859	13.92
692.981	5.92
693.103	21.92
693.226	12.92
693.348	42.92
693.47	5.92
693.593	37.92
693.715	27.92
693.837	48.92
693.96	9.92
694.082	12.92
694.204	18.92
694.327	30.92
694.449	24.92
694.571	23.92
694.694	18.92
694.816	23.92
694.938	12.92
695.061	4.92
695.183	15.92
695.305	24.92
695.428	17.92
695.55	4.92
695.672	17.92
695.795	4.92
695.917	24.92
696.04	13.92
696.162	22.92
696.284	20.92
696.407	19.92
696.529	16.92
696.651	41.92
696.774	9.92
696.896	31.92
697.019	2.92
697.141	15.92
697.263	-4.08
697.386	3.92
697.508	18.92
697.63	18.92
697.753	15.92
697.875	29.92
697.998	1.92
698.12	12.92
698.242	30.92
698.365	17.92
698.487	20.92
698.61	15.92
698.732	21.92
698.854	22.92
698.977	10.92
699.099	14.92
699.221	7.92
699.344	12.92
699.466	16.92
699.589	11.92
699.711	3.92
699.834	9.92
699.956	14.92
700.078	21.92
700.201	-3.08
700.323	31.92
700.446	13.92
700.568	8.92
700.69	23.92
700.813	18.92
700.935	9.92
701.058	7.92
701.18	15.92
701.302	21.92
701.425	6.92
701.547	9.92
701.67	17.92
701.792	21.92
701.915	9.92
702.037	-7.08
702.159	-2.08
702.282	15.92
702.404	15.92
702.527	20.92
702.649	43.92
702.772	24.92
702.894	15.92
703.017	11.92
703.139	34.92
703.261	15.92
703.384	12.92
703.506	10.92
703.629	14.92
703.751	6.92
703.874	12.92
703.996	0.92
704.119	13.92
704.241	19.92
704.364	1.92
704.486	8.92
704.608	11.92
704.731	6.92
704.853	21.92
704.976	2.92
705.098	20.92
705.221	5.92
705.343	7.92
705.466	17.92
705.588	20.92
705.711	20.92
705.833	6.92
705.956	21.92
706.078	28.92
706.201	16.92
706.323	21.92
706.446	15.92
