Data from LowRes_mercury_15_20_11_07_2024_HR4C61881__11__15-23-33-372.txt Node

Date: Thu Nov 07 15:23:33 EST 2024
User: crc00042
Spectrometer: HR4C6188
Trigger mode: 4
Integration Time (sec): 1.000000E-1
Scans to average: 1
Electric dark correction enabled: true
Nonlinearity correction enabled: false
Boxcar width: 0
XAxis mode: Wavelengths
Number of Pixels in Spectrum: 3648
>>>>>Begin Spectral Data<<<<<
245.66	-77.92
245.797	-77.92
245.934	-77.92
246.071	-82.92
246.208	14.08
246.344	13.08
246.481	-11.92
246.618	-7.92
246.755	8.08
246.892	-15.92
247.029	-18.92
247.165	-14.92
247.302	5.08
247.439	1.08
247.576	5.08
247.713	3.08
247.849	27.08
247.986	7.08
248.123	-8.92
248.26	3.08
248.396	19.08
248.533	-2.92
248.67	-25.92
248.806	-10.92
248.943	-13.92
249.08	6.08
249.216	21.08
249.353	-12.92
249.49	-8.92
249.626	9.08
249.763	19.08
249.9	-3.92
250.036	-5.92
250.173	3.08
250.309	12.08
250.446	-8.92
250.582	-19.92
250.719	-8.92
250.856	-7.92
250.992	-13.92
251.129	5.08
251.265	-8.92
251.402	-2.92
251.538	12.08
251.675	-21.92
251.811	11.08
251.948	5.08
252.084	-9.92
252.221	-7.92
252.357	-13.92
252.493	25.08
252.63	-3.92
252.766	29.08
252.903	-1.92
253.039	-23.92
253.175	-7.92
253.312	8.08
253.448	-6.92
253.585	-21.92
253.721	-14.92
253.857	-16.92
253.994	-1.92
254.13	4.08
254.266	-4.92
254.403	-5.92
254.539	-5.92
254.675	0.08
254.811	-4.92
254.948	10.08
255.084	1.08
255.22	-6.92
255.356	2.08
255.493	-1.92
255.629	-4.92
255.765	-12.92
255.901	9.08
256.037	-6.92
256.174	1.08
256.31	-15.92
256.446	-7.92
256.582	14.08
256.718	12.08
256.854	22.08
256.991	11.08
257.127	-5.92
257.263	-2.92
257.399	-6.92
257.535	-20.92
257.671	-25.92
257.807	-27.92
257.943	-13.92
258.079	-10.92
258.215	2.08
258.351	21.08
258.487	2.08
258.623	12.08
258.759	2.08
258.895	-15.92
259.031	-19.92
259.167	-2.92
259.303	-1.92
259.439	-9.92
259.575	3.08
259.711	-8.92
259.847	-6.92
259.983	3.08
260.119	-0.92
260.255	-10.92
260.391	5.08
260.527	16.08
260.663	-6.92
260.799	-3.92
260.934	7.08
261.07	-15.92
261.206	-20.92
261.342	-8.92
261.478	13.08
261.614	7.08
261.749	17.08
261.885	7.08
262.021	-4.92
262.157	13.08
262.293	-2.92
262.428	-23.92
262.564	-21.92
262.7	7.08
262.836	-14.92
262.971	10.08
263.107	13.08
263.243	23.08
263.378	-0.92
263.514	-18.92
263.65	-16.92
263.785	-24.92
263.921	0.08
264.057	4.08
264.192	12.08
264.328	18.08
264.464	-9.92
264.599	-9.92
264.735	1.08
264.871	-15.92
265.006	4.08
265.142	5.08
265.277	-0.92
265.413	6.08
265.548	4.08
265.684	20.08
265.819	-4.92
265.955	-13.92
266.091	-8.92
266.226	-13.92
266.362	-15.92
266.497	10.08
266.633	-7.92
266.768	9.08
266.903	6.08
267.039	-2.92
267.174	2.08
267.31	-15.92
267.445	-15.92
267.581	-6.92
267.716	5.08
267.851	-3.92
267.987	16.08
268.122	6.08
268.258	5.08
268.393	-14.92
268.528	-9.92
268.664	-2.92
268.799	3.08
268.934	12.08
269.07	-22.92
269.205	-8.92
269.34	9.08
269.476	2.08
269.611	-17.92
269.746	21.08
269.881	5.08
270.017	15.08
270.152	3.08
270.287	7.08
270.422	12.08
270.558	-9.92
270.693	-3.92
270.828	-18.92
270.963	-2.92
271.098	-10.92
271.234	-6.92
271.369	7.08
271.504	0.08
271.639	-12.92
271.774	-4.92
271.909	-21.92
272.045	-25.92
272.18	-14.92
272.315	-3.92
272.45	7.08
272.585	-5.92
272.72	5.08
272.855	-13.92
272.99	7.08
273.125	-21.92
273.26	-20.92
273.395	-22.92
273.53	-12.92
273.665	9.08
273.8	9.08
273.935	-2.92
274.07	1.08
274.205	7.08
274.34	13.08
274.475	-4.92
274.61	11.08
274.745	-5.92
274.88	23.08
275.015	-4.92
275.15	0.08
275.285	23.08
275.42	-10.92
275.555	-2.92
275.69	1.08
275.825	4.08
275.959	8.08
276.094	-5.92
276.229	-18.92
276.364	-12.92
276.499	-14.92
276.634	-21.92
276.768	-2.92
276.903	-3.92
277.038	4.08
277.173	-3.92
277.308	-4.92
277.442	-0.92
277.577	-9.92
277.712	-4.92
277.847	-8.92
277.981	13.08
278.116	-8.92
278.251	8.08
278.386	2.08
278.52	5.08
278.655	-15.92
278.79	11.08
278.924	4.08
279.059	13.08
279.194	-19.92
279.328	19.08
279.463	3.08
279.598	27.08
279.732	0.08
279.867	13.08
280.001	-2.92
280.136	-5.92
280.271	1.08
280.405	4.08
280.54	-15.92
280.674	-7.92
280.809	16.08
280.943	-14.92
281.078	-11.92
281.213	2.08
281.347	15.08
281.482	-1.92
281.616	-11.92
281.751	5.08
281.885	-10.92
282.02	1.08
282.154	8.08
282.288	-25.92
282.423	-23.92
282.557	-22.92
282.692	6.08
282.826	7.08
282.961	-7.92
283.095	-2.92
283.229	-7.92
283.364	-2.92
283.498	-9.92
283.633	5.08
283.767	6.08
283.901	-5.92
284.036	2.08
284.17	-19.92
284.304	-3.92
284.439	3.08
284.573	-3.92
284.707	6.08
284.842	3.08
284.976	-2.92
285.11	-15.92
285.244	-6.92
285.379	29.08
285.513	-0.92
285.647	1.08
285.781	-10.92
285.916	9.08
286.05	10.08
286.184	7.08
286.318	3.08
286.453	-16.92
286.587	-9.92
286.721	-31.92
286.855	22.08
286.989	4.08
287.123	-2.92
287.258	-4.92
287.392	15.08
287.526	18.08
287.66	-2.92
287.794	11.08
287.928	1.08
288.062	6.08
288.196	-20.92
288.33	-6.92
288.464	12.08
288.598	-6.92
288.733	-15.92
288.867	1.08
289.001	1.08
289.135	-3.92
289.269	-11.92
289.403	6.08
289.537	5.08
289.671	12.08
289.805	-18.92
289.939	-21.92
290.073	-8.92
290.207	-0.92
290.34	-9.92
290.474	1.08
290.608	7.08
290.742	6.08
290.876	7.08
291.01	6.08
291.144	17.08
291.278	7.08
291.412	-1.92
291.546	0.08
291.679	-0.92
291.813	5.08
291.947	13.08
292.081	-5.92
292.215	-0.92
292.349	13.08
292.482	11.08
292.616	-11.92
292.75	-7.92
292.884	13.08
293.018	9.08
293.151	-9.92
293.285	6.08
293.419	-18.92
293.553	-16.92
293.686	-9.92
293.82	6.08
293.954	8.08
294.088	30.08
294.221	-13.92
294.355	-22.92
294.489	7.08
294.622	-3.92
294.756	-9.92
294.89	10.08
295.023	16.08
295.157	14.08
295.291	-1.92
295.424	22.08
295.558	-2.92
295.691	-11.92
295.825	1.08
295.959	7.08
296.092	-11.92
296.226	-21.92
296.359	-2.92
296.493	14.08
296.627	4.08
296.76	-12.92
296.894	10.08
297.027	-9.92
297.161	0.08
297.294	-2.92
297.428	-9.92
297.561	8.08
297.695	-8.92
297.828	9.08
297.962	4.08
298.095	-8.92
298.229	-6.92
298.362	2.08
298.495	0.08
298.629	-11.92
298.762	-7.92
298.896	-10.92
299.029	14.08
299.162	-5.92
299.296	1.08
299.429	-6.92
299.563	8.08
299.696	2.08
299.829	5.08
299.963	6.08
300.096	21.08
300.229	9.08
300.363	11.08
300.496	11.08
300.629	-14.92
300.763	-4.92
300.896	-4.92
301.029	5.08
301.162	-2.92
301.296	-6.92
301.429	-18.92
301.562	-20.92
301.695	-0.92
301.829	-13.92
301.962	18.08
302.095	-9.92
302.228	-15.92
302.362	3.08
302.495	-1.92
302.628	13.08
302.761	8.08
302.894	-9.92
303.027	2.08
303.161	-0.92
303.294	-3.92
303.427	3.08
303.56	-11.92
303.693	0.08
303.826	-5.92
303.959	0.08
304.092	-7.92
304.225	-7.92
304.359	6.08
304.492	6.08
304.625	-14.92
304.758	-13.92
304.891	-23.92
305.024	1.08
305.157	1.08
305.29	-25.92
305.423	-7.92
305.556	-11.92
305.689	18.08
305.822	-18.92
305.955	-19.92
306.088	-7.92
306.221	0.08
306.354	-8.92
306.487	-21.92
306.62	-5.92
306.752	2.08
306.885	11.08
307.018	6.08
307.151	3.08
307.284	15.08
307.417	-3.92
307.55	12.08
307.683	-7.92
307.816	9.08
307.948	12.08
308.081	-8.92
308.214	6.08
308.347	28.08
308.48	-10.92
308.613	4.08
308.745	0.08
308.878	5.08
309.011	1.08
309.144	18.08
309.277	-18.92
309.409	-3.92
309.542	4.08
309.675	-4.92
309.808	-3.92
309.94	20.08
310.073	-13.92
310.206	-12.92
310.339	-0.92
310.471	-4.92
310.604	20.08
310.737	-4.92
310.869	-2.92
311.002	-7.92
311.135	-12.92
311.267	-21.92
311.4	-9.92
311.533	18.08
311.665	13.08
311.798	-0.92
311.93	15.08
312.063	21.08
312.196	38.08
312.328	62.08
312.461	52.08
312.593	30.08
312.726	47.08
312.859	84.08
312.991	159.08
313.124	34.08
313.256	12.08
313.389	1.08
313.521	-0.92
313.654	12.08
313.786	-25.92
313.919	-15.92
314.051	7.08
314.184	2.08
314.316	-16.92
314.449	-14.92
314.581	-17.92
314.714	-0.92
314.846	0.08
314.978	-1.92
315.111	-8.92
315.243	-8.92
315.376	2.08
315.508	1.08
315.641	7.08
315.773	20.08
315.905	-5.92
316.038	-7.92
316.17	-16.92
316.302	7.08
316.435	-8.92
316.567	-10.92
316.699	5.08
316.832	-11.92
316.964	-5.92
317.096	5.08
317.229	-26.92
317.361	3.08
317.493	3.08
317.625	3.08
317.758	15.08
317.89	20.08
318.022	-8.92
318.155	-18.92
318.287	-17.92
318.419	14.08
318.551	-14.92
318.683	-9.92
318.816	2.08
318.948	-4.92
319.08	-13.92
319.212	1.08
319.344	6.08
319.477	-10.92
319.609	9.08
319.741	9.08
319.873	-2.92
320.005	9.08
320.137	8.08
320.269	-10.92
320.401	-1.92
320.534	1.08
320.666	-22.92
320.798	-12.92
320.93	8.08
321.062	-14.92
321.194	-12.92
321.326	-0.92
321.458	5.08
321.59	4.08
321.722	-11.92
321.854	1.08
321.986	-9.92
322.118	-2.92
322.25	1.08
322.382	2.08
322.514	-7.92
322.646	-9.92
322.778	5.08
322.91	-8.92
323.042	-0.92
323.174	9.08
323.306	-27.92
323.438	-20.92
323.57	-6.92
323.702	-8.92
323.834	-5.92
323.966	-11.92
324.097	-6.92
324.229	17.08
324.361	7.08
324.493	8.08
324.625	-10.92
324.757	7.08
324.889	4.08
325.021	17.08
325.152	26.08
325.284	4.08
325.416	2.08
325.548	3.08
325.68	1.08
325.811	31.08
325.943	-5.92
326.075	-12.92
326.207	-5.92
326.339	2.08
326.47	-15.92
326.602	10.08
326.734	7.08
326.866	12.08
326.997	-19.92
327.129	1.08
327.261	-14.92
327.392	-13.92
327.524	1.08
327.656	3.08
327.787	20.08
327.919	21.08
328.051	-2.92
328.182	16.08
328.314	21.08
328.446	3.08
328.577	25.08
328.709	-2.92
328.841	-9.92
328.972	-16.92
329.104	-16.92
329.235	-0.92
329.367	-22.92
329.499	-7.92
329.63	-5.92
329.762	-15.92
329.893	16.08
330.025	11.08
330.156	-17.92
330.288	2.08
330.419	12.08
330.551	18.08
330.683	20.08
330.814	7.08
330.946	12.08
331.077	-4.92
331.208	-3.92
331.34	-8.92
331.471	-24.92
331.603	-19.92
331.734	-14.92
331.866	0.08
331.997	13.08
332.129	-5.92
332.26	-4.92
332.392	10.08
332.523	1.08
332.654	-32.92
332.786	-10.92
332.917	15.08
333.048	19.08
333.18	9.08
333.311	8.08
333.443	-6.92
333.574	-5.92
333.705	32.08
333.837	37.08
333.968	103.08
334.099	227.08
334.231	217.08
334.362	51.08
334.493	20.08
334.624	3.08
334.756	8.08
334.887	6.08
335.018	0.08
335.15	-7.92
335.281	-4.92
335.412	4.08
335.543	-2.92
335.675	-6.92
335.806	16.08
335.937	0.08
336.068	6.08
336.199	3.08
336.331	-7.92
336.462	-5.92
336.593	16.08
336.724	-8.92
336.855	-1.92
336.986	14.08
337.118	9.08
337.249	10.08
337.38	4.08
337.511	-1.92
337.642	14.08
337.773	-9.92
337.904	21.08
338.035	19.08
338.166	12.08
338.298	16.08
338.429	-11.92
338.56	6.08
338.691	22.08
338.822	10.08
338.953	37.08
339.084	5.08
339.215	18.08
339.346	-0.92
339.477	-4.92
339.608	15.08
339.739	4.08
339.87	7.08
340.001	2.08
340.132	30.08
340.263	22.08
340.394	13.08
340.525	3.08
340.656	-23.92
340.787	-15.92
340.918	27.08
341.049	4.08
341.179	5.08
341.31	7.08
341.441	6.08
341.572	7.08
341.703	-6.92
341.834	-6.92
341.965	22.08
342.096	5.08
342.227	5.08
342.357	7.08
342.488	18.08
342.619	19.08
342.75	16.08
342.881	-3.92
343.012	39.08
343.142	38.08
343.273	6.08
343.404	15.08
343.535	45.08
343.666	22.08
343.796	27.08
343.927	31.08
344.058	16.08
344.189	19.08
344.319	30.08
344.45	5.08
344.581	-6.92
344.712	2.08
344.842	22.08
344.973	17.08
345.104	12.08
345.234	12.08
345.365	8.08
345.496	8.08
345.626	25.08
345.757	16.08
345.888	3.08
346.018	27.08
346.149	26.08
346.28	29.08
346.41	14.08
346.541	32.08
346.672	16.08
346.802	21.08
346.933	8.08
347.063	19.08
347.194	42.08
347.325	36.08
347.455	40.08
347.586	23.08
347.716	6.08
347.847	27.08
347.977	25.08
348.108	38.08
348.238	43.08
348.369	20.08
348.499	31.08
348.63	26.08
348.76	45.08
348.891	42.08
349.021	53.08
349.152	36.08
349.282	53.08
349.413	46.08
349.543	42.08
349.674	26.08
349.804	62.08
349.935	17.08
350.065	10.08
350.196	-0.92
350.326	7.08
350.456	6.08
350.587	34.08
350.717	26.08
350.848	16.08
350.978	21.08
351.108	6.08
351.239	27.08
351.369	17.08
351.499	25.08
351.63	47.08
351.76	5.08
351.89	6.08
352.021	4.08
352.151	14.08
352.281	23.08
352.412	37.08
352.542	14.08
352.672	11.08
352.803	4.08
352.933	25.08
353.063	20.08
353.193	21.08
353.324	18.08
353.454	23.08
353.584	21.08
353.714	5.08
353.845	17.08
353.975	21.08
354.105	6.08
354.235	12.08
354.365	22.08
354.496	23.08
354.626	21.08
354.756	20.08
354.886	18.08
355.016	22.08
355.146	14.08
355.277	13.08
355.407	15.08
355.537	23.08
355.667	22.08
355.797	4.08
355.927	0.08
356.057	16.08
356.187	3.08
356.318	19.08
356.448	13.08
356.578	20.08
356.708	25.08
356.838	5.08
356.968	12.08
357.098	23.08
357.228	16.08
357.358	5.08
357.488	8.08
357.618	62.08
357.748	31.08
357.878	22.08
358.008	22.08
358.138	15.08
358.268	-1.92
358.398	34.08
358.528	4.08
358.658	25.08
358.788	27.08
358.918	38.08
359.048	23.08
359.178	33.08
359.308	33.08
359.438	23.08
359.568	31.08
359.698	41.08
359.827	9.08
359.957	27.08
360.087	29.08
360.217	32.08
360.347	26.08
360.477	51.08
360.607	-0.92
360.737	38.08
360.866	31.08
360.996	2.08
361.126	27.08
361.256	52.08
361.386	44.08
361.516	26.08
361.645	4.08
361.775	37.08
361.905	9.08
362.035	41.08
362.165	12.08
362.294	40.08
362.424	51.08
362.554	37.08
362.684	29.08
362.813	48.08
362.943	50.08
363.073	39.08
363.203	58.08
363.332	52.08
363.462	75.08
363.592	95.08
363.721	107.08
363.851	166.08
363.981	189.08
364.111	245.08
364.24	315.08
364.37	470.08
364.5	899.08
364.629	1846.08
364.759	3920.08
364.888	6416.08
365.018	9509.08
365.148	14861.08
365.277	13115.08
365.407	4804.08
365.537	3120.08
365.666	4069.08
365.796	1825.08
365.925	808.08
366.055	775.08
366.184	1048.08
366.314	1416.08
366.444	2485.08
366.573	2120.08
366.703	665.08
366.832	220.08
366.962	113.08
367.091	72.08
367.221	72.08
367.35	56.08
367.48	95.08
367.609	54.08
367.739	71.08
367.868	29.08
367.998	39.08
368.127	53.08
368.257	58.08
368.386	42.08
368.516	52.08
368.645	39.08
368.775	33.08
368.904	40.08
369.033	20.08
369.163	13.08
369.292	29.08
369.422	24.08
369.551	51.08
369.68	41.08
369.81	51.08
369.939	23.08
370.069	62.08
370.198	33.08
370.327	19.08
370.457	14.08
370.586	38.08
370.715	31.08
370.845	15.08
370.974	35.08
371.103	50.08
371.233	31.08
371.362	37.08
371.491	21.08
371.621	36.08
371.75	24.08
371.879	34.08
372.008	35.08
372.138	56.08
372.267	78.08
372.396	42.08
372.525	31.08
372.655	23.08
372.784	26.08
372.913	32.08
373.042	54.08
373.172	44.08
373.301	5.08
373.43	13.08
373.559	6.08
373.688	25.08
373.818	38.08
373.947	18.08
374.076	-0.92
374.205	19.08
374.334	-1.92
374.463	3.08
374.593	28.08
374.722	7.08
374.851	26.08
374.98	18.08
375.109	1.08
375.238	25.08
375.367	37.08
375.496	8.08
375.625	-5.92
375.755	31.08
375.884	27.08
376.013	10.08
376.142	5.08
376.271	22.08
376.4	20.08
376.529	20.08
376.658	8.08
376.787	21.08
376.916	27.08
377.045	13.08
377.174	36.08
377.303	17.08
377.432	25.08
377.561	39.08
377.69	9.08
377.819	33.08
377.948	25.08
378.077	8.08
378.206	7.08
378.335	-7.92
378.464	7.08
378.593	46.08
378.722	16.08
378.851	11.08
378.98	20.08
379.108	3.08
379.237	1.08
379.366	14.08
379.495	18.08
379.624	27.08
379.753	5.08
379.882	0.08
380.011	3.08
380.14	5.08
380.268	6.08
380.397	8.08
380.526	22.08
380.655	-9.92
380.784	-11.92
380.913	9.08
381.041	-3.92
381.17	-10.92
381.299	-14.92
381.428	12.08
381.557	25.08
381.685	17.08
381.814	-1.92
381.943	19.08
382.072	-1.92
382.2	4.08
382.329	5.08
382.458	3.08
382.587	9.08
382.715	19.08
382.844	10.08
382.973	25.08
383.102	25.08
383.23	13.08
383.359	-0.92
383.488	13.08
383.616	7.08
383.745	-3.92
383.874	15.08
384.003	5.08
384.131	5.08
384.26	10.08
384.389	23.08
384.517	6.08
384.646	-2.92
384.774	12.08
384.903	41.08
385.032	48.08
385.16	24.08
385.289	20.08
385.418	27.08
385.546	13.08
385.675	14.08
385.803	23.08
385.932	16.08
386.06	3.08
386.189	5.08
386.318	15.08
386.446	8.08
386.575	37.08
386.703	21.08
386.832	5.08
386.96	10.08
387.089	24.08
387.217	22.08
387.346	-5.92
387.474	25.08
387.603	24.08
387.731	24.08
387.86	32.08
387.988	25.08
388.117	5.08
388.245	16.08
388.374	13.08
388.502	13.08
388.631	7.08
388.759	13.08
388.888	13.08
389.016	12.08
389.144	4.08
389.273	4.08
389.401	-13.92
389.53	13.08
389.658	47.08
389.786	11.08
389.915	0.08
390.043	4.08
390.172	21.08
390.3	28.08
390.428	35.08
390.557	24.08
390.685	21.08
390.813	27.08
390.942	42.08
391.07	5.08
391.198	19.08
391.327	18.08
391.455	9.08
391.583	37.08
391.712	18.08
391.84	17.08
391.968	23.08
392.096	28.08
392.225	19.08
392.353	28.08
392.481	5.08
392.609	29.08
392.738	19.08
392.866	42.08
392.994	37.08
393.122	24.08
393.251	21.08
393.379	32.08
393.507	20.08
393.635	10.08
393.764	12.08
393.892	29.08
394.02	20.08
394.148	24.08
394.276	21.08
394.404	41.08
394.533	26.08
394.661	28.08
394.789	48.08
394.917	35.08
395.045	14.08
395.173	11.08
395.302	17.08
395.43	24.08
395.558	29.08
395.686	42.08
395.814	30.08
395.942	30.08
396.07	19.08
396.198	28.08
396.326	34.08
396.454	42.08
396.582	24.08
396.711	29.08
396.839	28.08
396.967	30.08
397.095	10.08
397.223	19.08
397.351	37.08
397.479	39.08
397.607	24.08
397.735	38.08
397.863	68.08
397.991	49.08
398.119	29.08
398.247	48.08
398.375	31.08
398.503	31.08
398.631	42.08
398.759	35.08
398.887	37.08
399.015	34.08
399.143	53.08
399.271	69.08
399.399	66.08
399.526	58.08
399.654	88.08
399.782	43.08
399.91	88.08
400.038	79.08
400.166	84.08
400.294	74.08
400.422	82.08
400.55	100.08
400.678	94.08
400.805	98.08
400.933	93.08
401.061	132.08
401.189	125.08
401.317	124.08
401.445	76.08
401.573	68.08
401.7	47.08
401.828	40.08
401.956	54.08
402.084	42.08
402.212	14.08
402.34	39.08
402.467	34.08
402.595	34.08
402.723	47.08
402.851	68.08
402.978	69.08
403.106	69.08
403.234	79.08
403.362	103.08
403.489	115.08
403.617	161.08
403.745	193.08
403.873	285.08
404	535.08
404.128	1462.08
404.256	3979.08
404.384	5148.08
404.511	5480.08
404.639	7227.08
404.767	11515.08
404.894	14681.08
405.022	5020.08
405.15	1329.08
405.277	419.08
405.405	234.08
405.533	142.08
405.66	119.08
405.788	42.08
405.916	38.08
406.043	31.08
406.171	50.08
406.299	57.08
406.426	44.08
406.554	44.08
406.681	47.08
406.809	45.08
406.937	59.08
407.064	67.08
407.192	113.08
407.319	297.08
407.447	521.08
407.574	545.08
407.702	646.08
407.83	874.08
407.957	1603.08
408.085	954.08
408.212	284.08
408.34	103.08
408.467	77.08
408.595	42.08
408.722	46.08
408.85	38.08
408.977	27.08
409.105	21.08
409.232	26.08
409.36	19.08
409.487	28.08
409.615	27.08
409.742	34.08
409.87	25.08
409.997	38.08
410.125	32.08
410.252	29.08
410.379	33.08
410.507	31.08
410.634	13.08
410.762	24.08
410.889	30.08
411.017	22.08
411.144	13.08
411.271	9.08
411.399	30.08
411.526	38.08
411.653	27.08
411.781	20.08
411.908	21.08
412.036	11.08
412.163	22.08
412.29	45.08
412.418	24.08
412.545	12.08
412.672	22.08
412.8	47.08
412.927	42.08
413.054	40.08
413.182	22.08
413.309	13.08
413.436	22.08
413.564	24.08
413.691	26.08
413.818	39.08
413.945	20.08
414.073	2.08
414.2	25.08
414.327	27.08
414.454	24.08
414.582	20.08
414.709	13.08
414.836	16.08
414.963	-3.92
415.091	23.08
415.218	16.08
415.345	35.08
415.472	15.08
415.6	11.08
415.727	22.08
415.854	33.08
415.981	21.08
416.108	23.08
416.236	21.08
416.363	23.08
416.49	11.08
416.617	39.08
416.744	28.08
416.871	36.08
416.998	21.08
417.126	25.08
417.253	18.08
417.38	34.08
417.507	26.08
417.634	29.08
417.761	21.08
417.888	26.08
418.015	20.08
418.143	43.08
418.27	34.08
418.397	24.08
418.524	25.08
418.651	21.08
418.778	22.08
418.905	32.08
419.032	31.08
419.159	15.08
419.286	37.08
419.413	42.08
419.54	44.08
419.667	11.08
419.794	24.08
419.921	38.08
420.048	48.08
420.175	42.08
420.302	37.08
420.429	49.08
420.556	33.08
420.683	60.08
420.81	41.08
420.937	68.08
421.064	67.08
421.191	57.08
421.318	64.08
421.445	56.08
421.572	48.08
421.699	56.08
421.826	46.08
421.953	27.08
422.08	20.08
422.207	7.08
422.334	13.08
422.461	22.08
422.588	22.08
422.714	26.08
422.841	29.08
422.968	13.08
423.095	9.08
423.222	8.08
423.349	-0.92
423.476	2.08
423.603	7.08
423.729	-2.92
423.856	4.08
423.983	19.08
424.11	17.08
424.237	27.08
424.364	-2.92
424.491	21.08
424.617	-8.92
424.744	-17.92
424.871	22.08
424.998	-11.92
425.125	5.08
425.251	12.08
425.378	6.08
425.505	5.08
425.632	4.08
425.758	9.08
425.885	19.08
426.012	27.08
426.139	29.08
426.266	18.08
426.392	15.08
426.519	33.08
426.646	18.08
426.772	29.08
426.899	32.08
427.026	26.08
427.153	9.08
427.279	25.08
427.406	21.08
427.533	5.08
427.659	19.08
427.786	10.08
427.913	36.08
428.039	19.08
428.166	23.08
428.293	6.08
428.419	27.08
428.546	13.08
428.673	6.08
428.799	-2.92
428.926	8.08
429.053	31.08
429.179	13.08
429.306	15.08
429.433	27.08
429.559	25.08
429.686	-3.92
429.812	1.08
429.939	-0.92
430.066	36.08
430.192	27.08
430.319	34.08
430.445	24.08
430.572	31.08
430.699	21.08
430.825	26.08
430.952	23.08
431.078	25.08
431.205	23.08
431.331	21.08
431.458	10.08
431.584	29.08
431.711	-0.92
431.837	12.08
431.964	19.08
432.09	24.08
432.217	-3.92
432.343	29.08
432.47	26.08
432.596	32.08
432.723	27.08
432.849	14.08
432.976	20.08
433.102	36.08
433.229	25.08
433.355	40.08
433.482	84.08
433.608	106.08
433.735	107.08
433.861	108.08
433.987	177.08
434.114	188.08
434.24	158.08
434.367	210.08
434.493	227.08
434.62	273.08
434.746	394.08
434.872	616.08
434.999	837.08
435.125	1728.08
435.252	5608.08
435.378	13433.08
435.504	15229.08
435.631	15439.08
435.757	15678.08
435.883	15678.08
436.01	15678.08
436.136	15678.08
436.262	15678.08
436.389	3481.08
436.515	2483.08
436.641	848.08
436.768	637.08
436.894	399.08
437.02	393.08
437.147	287.08
437.273	288.08
437.399	229.08
437.526	246.08
437.652	171.08
437.778	210.08
437.904	130.08
438.031	144.08
438.157	133.08
438.283	140.08
438.409	120.08
438.536	143.08
438.662	119.08
438.788	132.08
438.914	90.08
439.041	105.08
439.167	115.08
439.293	81.08
439.419	86.08
439.546	103.08
439.672	65.08
439.798	81.08
439.924	63.08
440.05	84.08
440.177	77.08
440.303	82.08
440.429	58.08
440.555	57.08
440.681	63.08
440.807	80.08
440.934	61.08
441.06	64.08
441.186	61.08
441.312	51.08
441.438	51.08
441.564	56.08
441.69	48.08
441.816	40.08
441.943	44.08
442.069	68.08
442.195	54.08
442.321	50.08
442.447	32.08
442.573	44.08
442.699	29.08
442.825	41.08
442.951	52.08
443.077	50.08
443.203	64.08
443.33	32.08
443.456	25.08
443.582	43.08
443.708	28.08
443.834	43.08
443.96	41.08
444.086	19.08
444.212	36.08
444.338	43.08
444.464	40.08
444.59	52.08
444.716	40.08
444.842	32.08
444.968	17.08
445.094	42.08
445.22	39.08
445.346	16.08
445.472	28.08
445.598	17.08
445.724	50.08
445.85	31.08
445.976	22.08
446.102	18.08
446.228	33.08
446.354	31.08
446.48	29.08
446.605	33.08
446.731	31.08
446.857	38.08
446.983	25.08
447.109	28.08
447.235	19.08
447.361	15.08
447.487	38.08
447.613	25.08
447.739	21.08
447.865	23.08
447.99	24.08
448.116	33.08
448.242	32.08
448.368	31.08
448.494	23.08
448.62	41.08
448.746	27.08
448.872	23.08
448.997	17.08
449.123	28.08
449.249	41.08
449.375	35.08
449.501	21.08
449.627	26.08
449.752	46.08
449.878	12.08
450.004	11.08
450.13	35.08
450.256	10.08
450.381	35.08
450.507	29.08
450.633	38.08
450.759	38.08
450.884	25.08
451.01	40.08
451.136	31.08
451.262	23.08
451.388	22.08
451.513	21.08
451.639	15.08
451.765	21.08
451.89	36.08
452.016	22.08
452.142	38.08
452.268	44.08
452.393	19.08
452.519	-1.92
452.645	9.08
452.771	28.08
452.896	16.08
453.022	9.08
453.148	37.08
453.273	33.08
453.399	29.08
453.525	-7.92
453.65	20.08
453.776	35.08
453.902	35.08
454.027	30.08
454.153	23.08
454.279	27.08
454.404	19.08
454.53	53.08
454.656	39.08
454.781	8.08
454.907	15.08
455.032	18.08
455.158	47.08
455.284	48.08
455.409	22.08
455.535	27.08
455.66	23.08
455.786	26.08
455.912	13.08
456.037	7.08
456.163	29.08
456.288	12.08
456.414	0.08
456.539	4.08
456.665	23.08
456.791	17.08
456.916	33.08
457.042	26.08
457.167	13.08
457.293	19.08
457.418	11.08
457.544	35.08
457.669	11.08
457.795	25.08
457.92	8.08
458.046	26.08
458.171	25.08
458.297	15.08
458.422	12.08
458.548	13.08
458.673	26.08
458.799	17.08
458.924	12.08
459.05	4.08
459.175	5.08
459.301	26.08
459.426	39.08
459.552	21.08
459.677	22.08
459.803	38.08
459.928	12.08
460.053	3.08
460.179	23.08
460.304	27.08
460.43	10.08
460.555	17.08
460.681	14.08
460.806	29.08
460.931	15.08
461.057	25.08
461.182	22.08
461.308	16.08
461.433	12.08
461.558	26.08
461.684	13.08
461.809	22.08
461.934	9.08
462.06	25.08
462.185	4.08
462.311	27.08
462.436	29.08
462.561	8.08
462.687	21.08
462.812	18.08
462.937	7.08
463.063	2.08
463.188	0.08
463.313	27.08
463.439	28.08
463.564	34.08
463.689	27.08
463.814	27.08
463.94	23.08
464.065	29.08
464.19	45.08
464.316	2.08
464.441	19.08
464.566	19.08
464.692	11.08
464.817	18.08
464.942	18.08
465.067	7.08
465.193	-9.92
465.318	3.08
465.443	8.08
465.568	12.08
465.694	22.08
465.819	25.08
465.944	24.08
466.069	23.08
466.194	31.08
466.32	34.08
466.445	27.08
466.57	17.08
466.695	29.08
466.82	26.08
466.946	17.08
467.071	13.08
467.196	34.08
467.321	52.08
467.446	24.08
467.572	24.08
467.697	23.08
467.822	44.08
467.947	51.08
468.072	29.08
468.197	13.08
468.323	8.08
468.448	17.08
468.573	6.08
468.698	22.08
468.823	32.08
468.948	27.08
469.073	32.08
469.198	41.08
469.324	35.08
469.449	18.08
469.574	35.08
469.699	36.08
469.824	29.08
469.949	-0.92
470.074	19.08
470.199	38.08
470.324	35.08
470.449	29.08
470.574	29.08
470.7	22.08
470.825	36.08
470.95	20.08
471.075	25.08
471.2	49.08
471.325	39.08
471.45	32.08
471.575	30.08
471.7	36.08
471.825	29.08
471.95	12.08
472.075	38.08
472.2	8.08
472.325	15.08
472.45	19.08
472.575	10.08
472.7	13.08
472.825	38.08
472.95	29.08
473.075	26.08
473.2	19.08
473.325	40.08
473.45	53.08
473.575	35.08
473.7	49.08
473.825	29.08
473.95	28.08
474.075	32.08
474.2	7.08
474.325	18.08
474.45	19.08
474.574	9.08
474.699	27.08
474.824	15.08
474.949	1.08
475.074	12.08
475.199	11.08
475.324	20.08
475.449	21.08
475.574	20.08
475.699	28.08
475.824	10.08
475.949	1.08
476.073	4.08
476.198	-1.92
476.323	2.08
476.448	8.08
476.573	25.08
476.698	16.08
476.823	11.08
476.947	17.08
477.072	13.08
477.197	11.08
477.322	1.08
477.447	1.08
477.572	9.08
477.697	14.08
477.821	14.08
477.946	22.08
478.071	21.08
478.196	23.08
478.321	23.08
478.445	4.08
478.57	-10.92
478.695	8.08
478.82	11.08
478.945	25.08
479.069	10.08
479.194	3.08
479.319	24.08
479.444	32.08
479.569	27.08
479.693	5.08
479.818	4.08
479.943	18.08
480.068	17.08
480.192	23.08
480.317	30.08
480.442	8.08
480.567	4.08
480.691	14.08
480.816	11.08
480.941	4.08
481.066	7.08
481.19	21.08
481.315	12.08
481.44	-1.92
481.564	-10.92
481.689	8.08
481.814	10.08
481.938	7.08
482.063	5.08
482.188	17.08
482.313	18.08
482.437	17.08
482.562	30.08
482.687	20.08
482.811	29.08
482.936	17.08
483.061	6.08
483.185	5.08
483.31	30.08
483.435	29.08
483.559	17.08
483.684	6.08
483.808	36.08
483.933	-4.92
484.058	26.08
484.182	21.08
484.307	19.08
484.432	21.08
484.556	22.08
484.681	9.08
484.805	13.08
484.93	13.08
485.055	0.08
485.179	28.08
485.304	21.08
485.428	13.08
485.553	10.08
485.678	21.08
485.802	25.08
485.927	29.08
486.051	21.08
486.176	15.08
486.3	17.08
486.425	22.08
486.549	29.08
486.674	25.08
486.799	17.08
486.923	3.08
487.048	20.08
487.172	6.08
487.297	22.08
487.421	28.08
487.546	24.08
487.67	16.08
487.795	-0.92
487.919	31.08
488.044	28.08
488.168	15.08
488.293	14.08
488.417	20.08
488.542	5.08
488.666	41.08
488.791	28.08
488.915	21.08
489.04	11.08
489.164	23.08
489.289	32.08
489.413	24.08
489.538	9.08
489.662	32.08
489.786	9.08
489.911	21.08
490.035	16.08
490.16	-9.92
490.284	11.08
490.409	-20.92
490.533	8.08
490.658	25.08
490.782	11.08
490.906	46.08
491.031	97.08
491.155	136.08
491.28	128.08
491.404	136.08
491.528	244.08
491.653	142.08
491.777	82.08
491.902	24.08
492.026	18.08
492.15	12.08
492.275	47.08
492.399	24.08
492.524	15.08
492.648	24.08
492.772	22.08
492.897	21.08
493.021	2.08
493.145	12.08
493.27	21.08
493.394	9.08
493.518	-0.92
493.643	6.08
493.767	33.08
493.891	11.08
494.016	17.08
494.14	16.08
494.264	9.08
494.389	24.08
494.513	15.08
494.637	9.08
494.762	21.08
494.886	28.08
495.01	26.08
495.134	23.08
495.259	31.08
495.383	19.08
495.507	23.08
495.632	51.08
495.756	37.08
495.88	31.08
496.004	19.08
496.129	4.08
496.253	17.08
496.377	16.08
496.501	34.08
496.626	-1.92
496.75	4.08
496.874	17.08
496.998	17.08
497.123	24.08
497.247	2.08
497.371	16.08
497.495	14.08
497.62	3.08
497.744	0.08
497.868	3.08
497.992	16.08
498.116	13.08
498.241	17.08
498.365	-0.92
498.489	6.08
498.613	43.08
498.737	12.08
498.862	17.08
498.986	24.08
499.11	22.08
499.234	4.08
499.358	10.08
499.482	17.08
499.607	11.08
499.731	9.08
499.855	27.08
499.979	11.08
500.103	26.08
500.227	26.08
500.351	29.08
500.476	31.08
500.6	6.08
500.724	14.08
500.848	23.08
500.972	44.08
501.096	13.08
501.22	17.08
501.344	9.08
501.469	13.08
501.593	3.08
501.717	23.08
501.841	13.08
501.965	4.08
502.089	1.08
502.213	29.08
502.337	31.08
502.461	16.08
502.585	23.08
502.709	19.08
502.834	0.08
502.958	30.08
503.082	20.08
503.206	19.08
503.33	24.08
503.454	30.08
503.578	20.08
503.702	29.08
503.826	39.08
503.95	64.08
504.074	12.08
504.198	8.08
504.322	9.08
504.446	8.08
504.57	20.08
504.694	10.08
504.818	-6.92
504.942	18.08
505.066	12.08
505.19	10.08
505.314	17.08
505.438	9.08
505.562	11.08
505.686	21.08
505.81	-6.92
505.934	34.08
506.058	17.08
506.182	19.08
506.306	13.08
506.43	24.08
506.554	19.08
506.678	12.08
506.802	15.08
506.926	18.08
507.05	24.08
507.174	31.08
507.298	18.08
507.422	11.08
507.546	23.08
507.67	22.08
507.794	1.08
507.918	16.08
508.042	33.08
508.165	26.08
508.289	12.08
508.413	29.08
508.537	1.08
508.661	43.08
508.785	33.08
508.909	31.08
509.033	12.08
509.157	28.08
509.281	19.08
509.405	20.08
509.528	39.08
509.652	51.08
509.776	8.08
509.9	33.08
510.024	28.08
510.148	38.08
510.272	42.08
510.396	38.08
510.519	28.08
510.643	30.08
510.767	41.08
510.891	56.08
511.015	36.08
511.139	28.08
511.263	41.08
511.386	23.08
511.51	29.08
511.634	37.08
511.758	23.08
511.882	34.08
512.006	32.08
512.129	34.08
512.253	103.08
512.377	68.08
512.501	73.08
512.625	81.08
512.748	86.08
512.872	81.08
512.996	49.08
513.12	51.08
513.244	55.08
513.367	63.08
513.491	82.08
513.615	62.08
513.739	76.08
513.862	82.08
513.986	86.08
514.11	93.08
514.234	88.08
514.358	117.08
514.481	104.08
514.605	97.08
514.729	112.08
514.853	88.08
514.976	87.08
515.1	83.08
515.224	119.08
515.348	79.08
515.471	60.08
515.595	96.08
515.719	123.08
515.842	197.08
515.966	258.08
516.09	279.08
516.214	274.08
516.337	301.08
516.461	196.08
516.585	61.08
516.708	40.08
516.832	20.08
516.956	40.08
517.08	19.08
517.203	-2.92
517.327	15.08
517.451	25.08
517.574	32.08
517.698	8.08
517.822	17.08
517.945	29.08
518.069	21.08
518.193	50.08
518.316	39.08
518.44	15.08
518.564	3.08
518.687	19.08
518.811	3.08
518.935	22.08
519.058	14.08
519.182	19.08
519.306	29.08
519.429	-14.92
519.553	43.08
519.676	26.08
519.8	11.08
519.924	12.08
520.047	6.08
520.171	20.08
520.294	12.08
520.418	7.08
520.542	7.08
520.665	24.08
520.789	12.08
520.913	-6.92
521.036	-19.92
521.16	-18.92
521.283	21.08
521.407	21.08
521.53	15.08
521.654	7.08
521.778	24.08
521.901	4.08
522.025	-0.92
522.148	6.08
522.272	-0.92
522.395	7.08
522.519	18.08
522.643	-14.92
522.766	-5.92
522.89	26.08
523.013	25.08
523.137	-4.92
523.26	16.08
523.384	14.08
523.507	8.08
523.631	9.08
523.754	-0.92
523.878	21.08
524.002	25.08
524.125	21.08
524.249	-20.92
524.372	10.08
524.496	19.08
524.619	21.08
524.743	16.08
524.866	15.08
524.99	8.08
525.113	0.08
525.237	7.08
525.36	16.08
525.484	19.08
525.607	0.08
525.731	-22.92
525.854	14.08
525.978	33.08
526.101	-4.92
526.224	1.08
526.348	12.08
526.471	15.08
526.595	18.08
526.718	25.08
526.842	4.08
526.965	26.08
527.089	23.08
527.212	28.08
527.336	7.08
527.459	32.08
527.582	12.08
527.706	27.08
527.829	19.08
527.953	16.08
528.076	-10.92
528.2	-2.92
528.323	27.08
528.446	27.08
528.57	16.08
528.693	32.08
528.817	14.08
528.94	21.08
529.064	44.08
529.187	7.08
529.31	9.08
529.434	8.08
529.557	16.08
529.68	1.08
529.804	7.08
529.927	15.08
530.051	10.08
530.174	0.08
530.297	9.08
530.421	6.08
530.544	15.08
530.668	12.08
530.791	3.08
530.914	27.08
531.038	21.08
531.161	6.08
531.284	2.08
531.408	26.08
531.531	6.08
531.654	5.08
531.778	11.08
531.901	2.08
532.024	19.08
532.148	11.08
532.271	5.08
532.394	9.08
532.518	10.08
532.641	16.08
532.764	24.08
532.888	10.08
533.011	-7.92
533.134	1.08
533.258	19.08
533.381	5.08
533.504	4.08
533.628	9.08
533.751	11.08
533.874	21.08
533.997	9.08
534.121	4.08
534.244	15.08
534.367	2.08
534.491	0.08
534.614	-3.92
534.737	4.08
534.86	23.08
534.984	7.08
535.107	-0.92
535.23	2.08
535.354	8.08
535.477	13.08
535.6	29.08
535.723	20.08
535.847	25.08
535.97	3.08
536.093	20.08
536.216	-4.92
536.34	22.08
536.463	-7.92
536.586	10.08
536.709	3.08
536.833	13.08
536.956	16.08
537.079	8.08
537.202	25.08
537.325	10.08
537.449	3.08
537.572	14.08
537.695	20.08
537.818	4.08
537.941	11.08
538.065	19.08
538.188	11.08
538.311	20.08
538.434	15.08
538.558	9.08
538.681	16.08
538.804	23.08
538.927	22.08
539.05	28.08
539.173	24.08
539.297	9.08
539.42	12.08
539.543	33.08
539.666	36.08
539.789	28.08
539.913	7.08
540.036	25.08
540.159	11.08
540.282	10.08
540.405	-7.92
540.528	10.08
540.651	16.08
540.775	14.08
540.898	17.08
541.021	16.08
541.144	37.08
541.267	35.08
541.39	18.08
541.513	20.08
541.637	18.08
541.76	9.08
541.883	20.08
542.006	38.08
542.129	36.08
542.252	23.08
542.375	29.08
542.498	22.08
542.622	31.08
542.745	21.08
542.868	38.08
542.991	47.08
543.114	49.08
543.237	70.08
543.36	72.08
543.483	48.08
543.606	64.08
543.73	89.08
543.853	68.08
543.976	80.08
544.099	87.08
544.222	123.08
544.345	122.08
544.468	163.08
544.591	201.08
544.714	249.08
544.837	345.08
544.96	437.08
545.083	685.08
545.206	1084.08
545.329	2464.08
545.453	11155.08
545.576	15285.08
545.699	15678.08
545.822	15678.08
545.945	15678.08
546.068	15678.08
546.191	15678.08
546.314	15678.08
546.437	15678.08
546.56	15678.08
546.683	15678.08
546.806	15678.08
546.929	15678.08
547.052	15678.08
547.175	15678.08
547.298	15678.08
547.421	15678.08
547.544	15678.08
547.667	3860.08
547.79	4267.08
547.913	1354.08
548.036	959.08
548.159	668.08
548.282	653.08
548.405	491.08
548.528	500.08
548.651	415.08
548.774	388.08
548.897	340.08
549.02	360.08
549.143	315.08
549.266	299.08
549.389	262.08
549.512	253.08
549.635	246.08
549.758	246.08
549.881	216.08
550.004	231.08
550.127	205.08
550.25	163.08
550.373	160.08
550.496	166.08
550.619	169.08
550.742	163.08
550.865	145.08
550.988	175.08
551.111	163.08
551.234	143.08
551.356	124.08
551.479	139.08
551.602	124.08
551.725	150.08
551.848	120.08
551.971	132.08
552.094	103.08
552.217	96.08
552.34	99.08
552.463	111.08
552.586	107.08
552.709	89.08
552.832	101.08
552.955	92.08
553.077	96.08
553.2	117.08
553.323	96.08
553.446	99.08
553.569	83.08
553.692	85.08
553.815	84.08
553.938	101.08
554.061	94.08
554.184	83.08
554.306	81.08
554.429	84.08
554.552	84.08
554.675	76.08
554.798	65.08
554.921	87.08
555.044	48.08
555.167	55.08
555.29	45.08
555.412	63.08
555.535	68.08
555.658	73.08
555.781	71.08
555.904	73.08
556.027	67.08
556.15	68.08
556.272	63.08
556.395	81.08
556.518	54.08
556.641	60.08
556.764	77.08
556.887	78.08
557.01	69.08
557.132	41.08
557.255	45.08
557.378	56.08
557.501	58.08
557.624	75.08
557.747	55.08
557.869	57.08
557.992	108.08
558.115	83.08
558.238	79.08
558.361	73.08
558.483	93.08
558.606	73.08
558.729	52.08
558.852	57.08
558.975	39.08
559.098	65.08
559.22	58.08
559.343	37.08
559.466	50.08
559.589	38.08
559.712	45.08
559.834	63.08
559.957	43.08
560.08	44.08
560.203	39.08
560.325	58.08
560.448	59.08
560.571	50.08
560.694	41.08
560.817	69.08
560.939	52.08
561.062	45.08
561.185	47.08
561.308	63.08
561.43	43.08
561.553	53.08
561.676	43.08
561.799	57.08
561.921	44.08
562.044	53.08
562.167	56.08
562.29	78.08
562.413	56.08
562.535	71.08
562.658	52.08
562.781	46.08
562.903	47.08
563.026	83.08
563.149	125.08
563.272	108.08
563.394	104.08
563.517	83.08
563.64	68.08
563.763	53.08
563.885	35.08
564.008	65.08
564.131	40.08
564.254	31.08
564.376	20.08
564.499	25.08
564.622	21.08
564.744	41.08
564.867	27.08
564.99	34.08
565.113	38.08
565.235	52.08
565.358	36.08
565.481	27.08
565.603	19.08
565.726	30.08
565.849	44.08
565.971	38.08
566.094	17.08
566.217	25.08
566.34	39.08
566.462	42.08
566.585	50.08
566.708	49.08
566.83	52.08
566.953	31.08
567.076	13.08
567.198	19.08
567.321	21.08
567.444	45.08
567.566	17.08
567.689	37.08
567.812	24.08
567.934	32.08
568.057	30.08
568.18	28.08
568.302	6.08
568.425	8.08
568.548	32.08
568.67	18.08
568.793	25.08
568.916	31.08
569.038	21.08
569.161	31.08
569.283	39.08
569.406	18.08
569.529	22.08
569.651	20.08
569.774	25.08
569.897	25.08
570.019	39.08
570.142	37.08
570.265	11.08
570.387	20.08
570.51	16.08
570.632	44.08
570.755	18.08
570.878	31.08
571	40.08
571.123	25.08
571.246	31.08
571.368	26.08
571.491	18.08
571.613	18.08
571.736	8.08
571.859	24.08
571.981	25.08
572.104	21.08
572.226	13.08
572.349	35.08
572.472	43.08
572.594	46.08
572.717	14.08
572.839	24.08
572.962	35.08
573.085	35.08
573.207	14.08
573.33	41.08
573.452	41.08
573.575	43.08
573.697	33.08
573.82	29.08
573.943	11.08
574.065	22.08
574.188	40.08
574.31	19.08
574.433	27.08
574.555	50.08
574.678	34.08
574.801	28.08
574.923	31.08
575.046	32.08
575.168	26.08
575.291	33.08
575.413	32.08
575.536	32.08
575.659	58.08
575.781	58.08
575.904	56.08
576.026	81.08
576.149	72.08
576.271	135.08
576.394	211.08
576.516	538.08
576.639	3717.08
576.761	10268.08
576.884	8937.08
577.007	8856.08
577.129	8090.08
577.252	3743.08
577.374	1320.08
577.497	515.08
577.619	276.08
577.742	168.08
577.864	157.08
577.987	141.08
578.109	127.08
578.232	133.08
578.354	133.08
578.477	170.08
578.599	377.08
578.722	1977.08
578.844	9235.08
578.967	9956.08
579.089	8871.08
579.212	9192.08
579.334	5347.08
579.457	1955.08
579.579	720.08
579.702	329.08
579.824	203.08
579.947	127.08
580.069	119.08
580.192	86.08
580.314	81.08
580.437	67.08
580.559	84.08
580.682	70.08
580.804	53.08
580.927	64.08
581.049	88.08
581.172	56.08
581.294	32.08
581.417	40.08
581.539	28.08
581.662	51.08
581.784	57.08
581.907	53.08
582.029	66.08
582.152	25.08
582.274	43.08
582.396	35.08
582.519	33.08
582.641	30.08
582.764	41.08
582.886	37.08
583.009	17.08
583.131	22.08
583.254	24.08
583.376	49.08
583.499	44.08
583.621	34.08
583.743	25.08
583.866	28.08
583.988	13.08
584.111	29.08
584.233	27.08
584.356	19.08
584.478	25.08
584.601	4.08
584.723	25.08
584.845	35.08
584.968	20.08
585.09	3.08
585.213	27.08
585.335	8.08
585.458	31.08
585.58	26.08
585.702	43.08
585.825	37.08
585.947	12.08
586.07	12.08
586.192	20.08
586.315	35.08
586.437	-0.92
586.559	10.08
586.682	21.08
586.804	31.08
586.927	25.08
587.049	29.08
587.171	31.08
587.294	20.08
587.416	27.08
587.539	26.08
587.661	17.08
587.783	19.08
587.906	7.08
588.028	19.08
588.151	19.08
588.273	40.08
588.395	35.08
588.518	24.08
588.64	12.08
588.763	29.08
588.885	36.08
589.007	22.08
589.13	19.08
589.252	0.08
589.375	33.08
589.497	17.08
589.619	39.08
589.742	32.08
589.864	41.08
589.986	24.08
590.109	9.08
590.231	17.08
590.354	25.08
590.476	-6.92
590.598	15.08
590.721	-6.92
590.843	29.08
590.965	17.08
591.088	31.08
591.21	19.08
591.332	19.08
591.455	8.08
591.577	19.08
591.7	3.08
591.822	18.08
591.944	33.08
592.067	18.08
592.189	11.08
592.311	23.08
592.434	-4.92
592.556	20.08
592.678	15.08
592.801	7.08
592.923	3.08
593.045	16.08
593.168	7.08
593.29	15.08
593.412	42.08
593.535	19.08
593.657	13.08
593.779	15.08
593.902	19.08
594.024	21.08
594.146	21.08
594.269	31.08
594.391	20.08
594.513	25.08
594.636	8.08
594.758	19.08
594.88	15.08
595.003	25.08
595.125	23.08
595.247	18.08
595.37	33.08
595.492	4.08
595.614	25.08
595.737	17.08
595.859	7.08
595.981	22.08
596.104	15.08
596.226	20.08
596.348	20.08
596.471	13.08
596.593	30.08
596.715	16.08
596.838	36.08
596.96	-6.92
597.082	19.08
597.204	25.08
597.327	23.08
597.449	16.08
597.571	12.08
597.694	12.08
597.816	20.08
597.938	22.08
598.061	9.08
598.183	35.08
598.305	25.08
598.427	30.08
598.55	27.08
598.672	37.08
598.794	29.08
598.917	8.08
599.039	31.08
599.161	33.08
599.283	15.08
599.406	36.08
599.528	41.08
599.65	30.08
599.773	13.08
599.895	39.08
600.017	21.08
600.139	28.08
600.262	0.08
600.384	16.08
600.506	30.08
600.628	20.08
600.751	34.08
600.873	27.08
600.995	28.08
601.118	27.08
601.24	26.08
601.362	22.08
601.484	22.08
601.607	27.08
601.729	27.08
601.851	19.08
601.973	28.08
602.096	29.08
602.218	19.08
602.34	28.08
602.462	20.08
602.585	20.08
602.707	6.08
602.829	21.08
602.951	17.08
603.074	-4.92
603.196	3.08
603.318	3.08
603.44	17.08
603.563	14.08
603.685	7.08
603.807	12.08
603.929	28.08
604.052	35.08
604.174	41.08
604.296	20.08
604.418	28.08
604.541	35.08
604.663	19.08
604.785	15.08
604.907	26.08
605.03	-5.92
605.152	29.08
605.274	20.08
605.396	31.08
605.519	15.08
605.641	14.08
605.763	26.08
605.885	16.08
606.008	15.08
606.13	26.08
606.252	27.08
606.374	0.08
606.496	-4.92
606.619	11.08
606.741	10.08
606.863	46.08
606.985	32.08
607.108	37.08
607.23	13.08
607.352	9.08
607.474	17.08
607.596	6.08
607.719	5.08
607.841	27.08
607.963	20.08
608.085	11.08
608.207	39.08
608.33	12.08
608.452	-18.92
608.574	-1.92
608.696	37.08
608.819	27.08
608.941	29.08
609.063	21.08
609.185	15.08
609.307	22.08
609.43	35.08
609.552	22.08
609.674	-3.92
609.796	23.08
609.918	19.08
610.041	20.08
610.163	22.08
610.285	17.08
610.407	26.08
610.529	18.08
610.652	11.08
610.774	34.08
610.896	32.08
611.018	19.08
611.14	-0.92
611.263	0.08
611.385	12.08
611.507	21.08
611.629	3.08
611.751	17.08
611.873	27.08
611.996	25.08
612.118	24.08
612.24	5.08
612.362	16.08
612.484	40.08
612.607	30.08
612.729	69.08
612.851	45.08
612.973	27.08
613.095	20.08
613.218	24.08
613.34	24.08
613.462	25.08
613.584	11.08
613.706	4.08
613.828	34.08
613.951	19.08
614.073	22.08
614.195	10.08
614.317	26.08
614.439	25.08
614.561	25.08
614.684	17.08
614.806	24.08
614.928	17.08
615.05	32.08
615.172	33.08
615.294	16.08
615.417	8.08
615.539	15.08
615.661	26.08
615.783	40.08
615.905	7.08
616.027	12.08
616.15	25.08
616.272	25.08
616.394	2.08
616.516	16.08
616.638	12.08
616.76	20.08
616.883	14.08
617.005	4.08
617.127	16.08
617.249	8.08
617.371	27.08
617.493	11.08
617.615	21.08
617.738	13.08
617.86	25.08
617.982	17.08
618.104	41.08
618.226	2.08
618.348	7.08
618.471	16.08
618.593	21.08
618.715	-0.92
618.837	27.08
618.959	12.08
619.081	32.08
619.203	19.08
619.326	17.08
619.448	33.08
619.57	29.08
619.692	21.08
619.814	34.08
619.936	28.08
620.058	25.08
620.181	33.08
620.303	15.08
620.425	21.08
620.547	11.08
620.669	9.08
620.791	27.08
620.913	28.08
621.036	9.08
621.158	13.08
621.28	32.08
621.402	-1.92
621.524	9.08
621.646	17.08
621.768	3.08
621.891	-10.92
622.013	-0.92
622.135	3.08
622.257	16.08
622.379	7.08
622.501	1.08
622.623	8.08
622.745	15.08
622.868	16.08
622.99	20.08
623.112	15.08
623.234	6.08
623.356	21.08
623.478	7.08
623.6	13.08
623.722	18.08
623.845	11.08
623.967	15.08
624.089	14.08
624.211	21.08
624.333	20.08
624.455	16.08
624.577	4.08
624.699	29.08
624.822	12.08
624.944	5.08
625.066	-2.92
625.188	12.08
625.31	19.08
625.432	25.08
625.554	8.08
625.676	43.08
625.799	0.08
625.921	13.08
626.043	20.08
626.165	30.08
626.287	8.08
626.409	12.08
626.531	4.08
626.653	15.08
626.775	20.08
626.898	22.08
627.02	23.08
627.142	37.08
627.264	36.08
627.386	-0.92
627.508	27.08
627.63	23.08
627.752	16.08
627.874	9.08
627.997	14.08
628.119	21.08
628.241	43.08
628.363	33.08
628.485	29.08
628.607	25.08
628.729	-5.92
628.851	-2.92
628.973	4.08
629.096	-18.92
629.218	-0.92
629.34	11.08
629.462	-3.92
629.584	3.08
629.706	17.08
629.828	12.08
629.95	17.08
630.072	8.08
630.195	13.08
630.317	5.08
630.439	3.08
630.561	16.08
630.683	9.08
630.805	16.08
630.927	8.08
631.049	7.08
631.171	8.08
631.293	13.08
631.416	2.08
631.538	21.08
631.66	7.08
631.782	3.08
631.904	23.08
632.026	3.08
632.148	11.08
632.27	3.08
632.392	6.08
632.514	20.08
632.637	13.08
632.759	13.08
632.881	-2.92
633.003	3.08
633.125	-2.92
633.247	2.08
633.369	9.08
633.491	-5.92
633.613	18.08
633.735	0.08
633.858	21.08
633.98	15.08
634.102	-10.92
634.224	9.08
634.346	-0.92
634.468	15.08
634.59	19.08
634.712	18.08
634.834	3.08
634.956	-8.92
635.078	-3.92
635.201	2.08
635.323	12.08
635.445	4.08
635.567	-24.92
635.689	6.08
635.811	10.08
635.933	-2.92
636.055	22.08
636.177	3.08
636.299	11.08
636.421	6.08
636.544	-5.92
636.666	16.08
636.788	15.08
636.91	8.08
637.032	1.08
637.154	9.08
637.276	45.08
637.398	31.08
637.52	20.08
637.642	18.08
637.764	13.08
637.887	25.08
638.009	13.08
638.131	7.08
638.253	-9.92
638.375	17.08
638.497	16.08
638.619	1.08
638.741	12.08
638.863	0.08
638.985	1.08
639.107	-0.92
639.23	4.08
639.352	25.08
639.474	15.08
639.596	9.08
639.718	0.08
639.84	25.08
639.962	31.08
640.084	21.08
640.206	0.08
640.328	-3.92
640.45	9.08
640.573	3.08
640.695	-8.92
640.817	1.08
640.939	17.08
641.061	5.08
641.183	1.08
641.305	6.08
641.427	4.08
641.549	21.08
641.671	15.08
641.793	4.08
641.915	31.08
642.038	13.08
642.16	13.08
642.282	8.08
642.404	3.08
642.526	21.08
642.648	4.08
642.77	12.08
642.892	7.08
643.014	16.08
643.136	19.08
643.258	-7.92
643.381	24.08
643.503	20.08
643.625	-2.92
643.747	-8.92
643.869	-1.92
643.991	15.08
644.113	8.08
644.235	15.08
644.357	-3.92
644.479	26.08
644.601	-5.92
644.723	10.08
644.846	6.08
644.968	-2.92
645.09	3.08
645.212	6.08
645.334	25.08
645.456	1.08
645.578	18.08
645.7	13.08
645.822	21.08
645.944	14.08
646.066	2.08
646.188	-0.92
646.311	16.08
646.433	4.08
646.555	21.08
646.677	14.08
646.799	18.08
646.921	20.08
647.043	33.08
647.165	-9.92
647.287	2.08
647.409	-7.92
647.531	10.08
647.654	-0.92
647.776	16.08
647.898	5.08
648.02	-2.92
648.142	-7.92
648.264	5.08
648.386	-2.92
648.508	-4.92
648.63	-3.92
648.752	4.08
648.874	11.08
648.997	17.08
649.119	5.08
649.241	1.08
649.363	12.08
649.485	25.08
649.607	11.08
649.729	2.08
649.851	8.08
649.973	8.08
650.095	-0.92
650.217	-0.92
650.34	16.08
650.462	17.08
650.584	3.08
650.706	6.08
650.828	31.08
650.95	8.08
651.072	28.08
651.194	12.08
651.316	6.08
651.438	9.08
651.56	-0.92
651.683	-7.92
651.805	3.08
651.927	9.08
652.049	6.08
652.171	11.08
652.293	13.08
652.415	-9.92
652.537	-11.92
652.659	-8.92
652.781	-0.92
652.903	-7.92
653.026	20.08
653.148	-0.92
653.27	15.08
653.392	18.08
653.514	-10.92
653.636	6.08
653.758	4.08
653.88	-0.92
654.002	5.08
654.124	-11.92
654.247	-6.92
654.369	7.08
654.491	7.08
654.613	-7.92
654.735	-6.92
654.857	15.08
654.979	12.08
655.101	9.08
655.223	35.08
655.345	24.08
655.468	10.08
655.59	-8.92
655.712	14.08
655.834	25.08
655.956	13.08
656.078	12.08
656.2	3.08
656.322	3.08
656.444	-2.92
656.566	8.08
656.689	-5.92
656.811	-7.92
656.933	22.08
657.055	0.08
657.177	-10.92
657.299	-9.92
657.421	4.08
657.543	20.08
657.665	1.08
657.787	-6.92
657.91	18.08
658.032	8.08
658.154	-10.92
658.276	4.08
658.398	-16.92
658.52	0.08
658.642	18.08
658.764	-3.92
658.886	-6.92
659.009	3.08
659.131	12.08
659.253	22.08
659.375	11.08
659.497	1.08
659.619	6.08
659.741	-7.92
659.863	-11.92
659.985	0.08
660.108	7.08
660.23	0.08
660.352	13.08
660.474	7.08
660.596	7.08
660.718	19.08
660.84	-2.92
660.962	-2.92
661.084	-5.92
661.207	-23.92
661.329	1.08
661.451	8.08
661.573	-0.92
661.695	20.08
661.817	16.08
661.939	20.08
662.061	30.08
662.184	-5.92
662.306	-14.92
662.428	-2.92
662.55	13.08
662.672	12.08
662.794	-3.92
662.916	1.08
663.038	1.08
663.161	17.08
663.283	3.08
663.405	7.08
663.527	16.08
663.649	13.08
663.771	16.08
663.893	13.08
664.015	-4.92
664.138	-4.92
664.26	-5.92
664.382	11.08
664.504	-7.92
664.626	-5.92
664.748	6.08
664.87	-3.92
664.992	16.08
665.115	15.08
665.237	11.08
665.359	1.08
665.481	7.08
665.603	8.08
665.725	-1.92
665.847	-10.92
665.97	1.08
666.092	21.08
666.214	11.08
666.336	11.08
666.458	20.08
666.58	-0.92
666.702	-5.92
666.825	0.08
666.947	-14.92
667.069	0.08
667.191	1.08
667.313	15.08
667.435	-1.92
667.557	-16.92
667.68	-7.92
667.802	19.08
667.924	-12.92
668.046	16.08
668.168	17.08
668.29	21.08
668.412	7.08
668.535	23.08
668.657	17.08
668.779	12.08
668.901	11.08
669.023	18.08
669.145	-7.92
669.267	8.08
669.39	-0.92
669.512	-5.92
669.634	3.08
669.756	-6.92
669.878	1.08
670	0.08
670.123	-19.92
670.245	27.08
670.367	8.08
670.489	8.08
670.611	-13.92
670.733	-4.92
670.856	-2.92
670.978	7.08
671.1	-2.92
671.222	15.08
671.344	4.08
671.466	-0.92
671.589	-7.92
671.711	-20.92
671.833	-1.92
671.955	6.08
672.077	-6.92
672.199	12.08
672.322	19.08
672.444	-1.92
672.566	18.08
672.688	20.08
672.81	23.08
672.932	24.08
673.055	16.08
673.177	7.08
673.299	3.08
673.421	5.08
673.543	7.08
673.665	15.08
673.788	9.08
673.91	-12.92
674.032	-13.92
674.154	11.08
674.276	2.08
674.399	-2.92
674.521	3.08
674.643	14.08
674.765	3.08
674.887	-9.92
675.009	9.08
675.132	-2.92
675.254	8.08
675.376	7.08
675.498	-2.92
675.62	20.08
675.743	6.08
675.865	21.08
675.987	-0.92
676.109	9.08
676.231	8.08
676.354	19.08
676.476	-15.92
676.598	8.08
676.72	21.08
676.842	27.08
676.965	0.08
677.087	4.08
677.209	25.08
677.331	14.08
677.453	15.08
677.576	7.08
677.698	29.08
677.82	12.08
677.942	-10.92
678.064	-14.92
678.187	0.08
678.309	11.08
678.431	1.08
678.553	3.08
678.675	16.08
678.798	21.08
678.92	21.08
679.042	17.08
679.164	1.08
679.286	16.08
679.409	12.08
679.531	-7.92
679.653	-11.92
679.775	-4.92
679.898	2.08
680.02	3.08
680.142	11.08
680.264	1.08
680.386	-4.92
680.509	-6.92
680.631	-0.92
680.753	6.08
680.875	-2.92
680.998	3.08
681.12	13.08
681.242	-3.92
681.364	6.08
681.486	4.08
681.609	3.08
681.731	-1.92
681.853	-1.92
681.975	-3.92
682.098	0.08
682.22	17.08
682.342	11.08
682.464	13.08
682.587	0.08
682.709	1.08
682.831	-8.92
682.953	-3.92
683.076	10.08
683.198	16.08
683.32	1.08
683.442	2.08
683.565	9.08
683.687	10.08
683.809	-3.92
683.931	-28.92
684.054	17.08
684.176	-0.92
684.298	-3.92
684.42	-0.92
684.543	-3.92
684.665	13.08
684.787	-20.92
684.909	-3.92
685.032	29.08
685.154	-7.92
685.276	12.08
685.398	6.08
685.521	2.08
685.643	7.08
685.765	9.08
685.887	-2.92
686.01	13.08
686.132	-6.92
686.254	14.08
686.377	20.08
686.499	0.08
686.621	19.08
686.743	7.08
686.866	-6.92
686.988	32.08
687.11	21.08
687.232	6.08
687.355	-14.92
687.477	10.08
687.599	22.08
687.722	11.08
687.844	-1.92
687.966	7.08
688.088	1.08
688.211	23.08
688.333	27.08
688.455	4.08
688.578	21.08
688.7	27.08
688.822	9.08
688.944	1.08
689.067	19.08
689.189	10.08
689.311	-13.92
689.434	-0.92
689.556	1.08
689.678	20.08
689.801	11.08
689.923	20.08
690.045	18.08
690.167	24.08
690.29	32.08
690.412	9.08
690.534	8.08
690.657	11.08
690.779	-0.92
690.901	9.08
691.024	18.08
691.146	11.08
691.268	-7.92
691.391	19.08
691.513	9.08
691.635	11.08
691.758	15.08
691.88	19.08
692.002	3.08
692.125	12.08
692.247	-14.92
692.369	-6.92
692.492	4.08
692.614	7.08
692.736	4.08
692.859	7.08
692.981	-6.92
693.103	-9.92
693.226	16.08
693.348	15.08
693.47	20.08
693.593	39.08
693.715	29.08
693.837	21.08
693.96	-15.92
694.082	-0.92
694.204	6.08
694.327	16.08
694.449	-4.92
694.571	5.08
694.694	20.08
694.816	7.08
694.938	18.08
695.061	13.08
695.183	-10.92
695.305	0.08
695.428	7.08
695.55	7.08
695.672	-5.92
695.795	8.08
695.917	22.08
696.04	3.08
696.162	-0.92
696.284	18.08
696.407	13.08
696.529	15.08
696.651	35.08
696.774	2.08
696.896	5.08
697.019	16.08
697.141	11.08
697.263	6.08
697.386	2.08
697.508	9.08
697.63	8.08
697.753	19.08
697.875	9.08
697.998	6.08
698.12	3.08
698.242	1.08
698.365	24.08
698.487	6.08
698.61	7.08
698.732	11.08
698.854	22.08
698.977	-9.92
699.099	17.08
699.221	23.08
699.344	16.08
699.466	5.08
699.589	9.08
699.711	4.08
699.834	4.08
699.956	10.08
700.078	5.08
700.201	20.08
700.323	26.08
700.446	15.08
700.568	-2.92
700.69	17.08
700.813	20.08
700.935	4.08
701.058	-7.92
701.18	19.08
701.302	8.08
701.425	12.08
701.547	21.08
701.67	1.08
701.792	5.08
701.915	-1.92
702.037	-6.92
702.159	-5.92
702.282	14.08
702.404	5.08
702.527	-0.92
702.649	14.08
702.772	7.08
702.894	12.08
703.017	17.08
703.139	18.08
703.261	33.08
703.384	5.08
703.506	-14.92
703.629	-0.92
703.751	16.08
703.874	-3.92
703.996	-14.92
704.119	-12.92
704.241	0.08
704.364	0.08
704.486	2.08
704.608	15.08
704.731	8.08
704.853	7.08
704.976	-20.92
705.098	-14.92
705.221	-2.92
705.343	15.08
705.466	15.08
705.588	16.08
705.711	17.08
705.833	9.08
705.956	4.08
706.078	25.08
706.201	7.08
706.323	4.08
706.446	6.08
