Data from LowRes_mercury_15_20_11_07_2024_HR4C61881__75__15-23-39-770.txt Node

Date: Thu Nov 07 15:23:39 EST 2024
User: crc00042
Spectrometer: HR4C6188
Trigger mode: 4
Integration Time (sec): 1.000000E-1
Scans to average: 1
Electric dark correction enabled: true
Nonlinearity correction enabled: false
Boxcar width: 0
XAxis mode: Wavelengths
Number of Pixels in Spectrum: 3648
>>>>>Begin Spectral Data<<<<<
245.66	-62.08
245.797	-62.08
245.934	-62.08
246.071	-79.08
246.208	14.92
246.344	-9.08
246.481	-15.08
246.618	-4.08
246.755	35.92
246.892	-20.08
247.029	-4.08
247.165	-12.08
247.302	-1.08
247.439	-10.08
247.576	5.92
247.713	-2.08
247.849	45.92
247.986	-10.08
248.123	1.92
248.26	-11.08
248.396	5.92
248.533	20.92
248.67	2.92
248.806	12.92
248.943	-2.08
249.08	-4.08
249.216	0.92
249.353	-19.08
249.49	-15.08
249.626	-3.08
249.763	6.92
249.9	3.92
250.036	-5.08
250.173	10.92
250.309	16.92
250.446	12.92
250.582	5.92
250.719	-2.08
250.856	-0.08
250.992	-22.08
251.129	-13.08
251.265	-11.08
251.402	-8.08
251.538	-15.08
251.675	-2.08
251.811	8.92
251.948	8.92
252.084	12.92
252.221	0.92
252.357	0.92
252.493	18.92
252.63	-25.08
252.766	14.92
252.903	14.92
253.039	-14.08
253.175	-4.08
253.312	14.92
253.448	-0.08
253.585	-19.08
253.721	7.92
253.857	3.92
253.994	1.92
254.13	-5.08
254.266	10.92
254.403	-4.08
254.539	15.92
254.675	18.92
254.811	-0.08
254.948	-11.08
255.084	7.92
255.22	-9.08
255.356	1.92
255.493	3.92
255.629	5.92
255.765	-1.08
255.901	15.92
256.037	7.92
256.174	-1.08
256.31	-15.08
256.446	-2.08
256.582	-6.08
256.718	9.92
256.854	18.92
256.991	21.92
257.127	14.92
257.263	6.92
257.399	15.92
257.535	3.92
257.671	-4.08
257.807	-12.08
257.943	2.92
258.079	-10.08
258.215	12.92
258.351	12.92
258.487	-5.08
258.623	27.92
258.759	3.92
258.895	4.92
259.031	5.92
259.167	-2.08
259.303	22.92
259.439	11.92
259.575	-8.08
259.711	-6.08
259.847	-12.08
259.983	16.92
260.119	8.92
260.255	-13.08
260.391	15.92
260.527	5.92
260.663	16.92
260.799	-4.08
260.934	-1.08
261.07	8.92
261.206	-13.08
261.342	-5.08
261.478	10.92
261.614	11.92
261.749	17.92
261.885	-6.08
262.021	2.92
262.157	9.92
262.293	15.92
262.428	12.92
262.564	5.92
262.7	4.92
262.836	-0.08
262.971	12.92
263.107	9.92
263.243	18.92
263.378	-1.08
263.514	-20.08
263.65	0.92
263.785	0.92
263.921	-3.08
264.057	6.92
264.192	-3.08
264.328	16.92
264.464	2.92
264.599	12.92
264.735	19.92
264.871	-3.08
265.006	24.92
265.142	-1.08
265.277	6.92
265.413	-15.08
265.548	24.92
265.684	19.92
265.819	8.92
265.955	4.92
266.091	-12.08
266.226	1.92
266.362	9.92
266.497	10.92
266.633	-1.08
266.768	-11.08
266.903	33.92
267.039	4.92
267.174	17.92
267.31	10.92
267.445	13.92
267.581	-15.08
267.716	-8.08
267.851	3.92
267.987	18.92
268.122	18.92
268.258	1.92
268.393	8.92
268.528	13.92
268.664	22.92
268.799	-3.08
268.934	20.92
269.07	1.92
269.205	15.92
269.34	16.92
269.476	-1.08
269.611	-4.08
269.746	14.92
269.881	22.92
270.017	13.92
270.152	6.92
270.287	11.92
270.422	0.92
270.558	-20.08
270.693	14.92
270.828	3.92
270.963	-12.08
271.098	-5.08
271.234	0.92
271.369	25.92
271.504	-3.08
271.639	-15.08
271.774	-4.08
271.909	-5.08
272.045	-13.08
272.18	0.92
272.315	9.92
272.45	20.92
272.585	-0.08
272.72	3.92
272.855	-5.08
272.99	19.92
273.125	-3.08
273.26	-10.08
273.395	-2.08
273.53	-2.08
273.665	16.92
273.8	13.92
273.935	11.92
274.07	21.92
274.205	12.92
274.34	10.92
274.475	11.92
274.61	25.92
274.745	-0.08
274.88	14.92
275.015	-4.08
275.15	3.92
275.285	12.92
275.42	22.92
275.555	18.92
275.69	6.92
275.825	-6.08
275.959	22.92
276.094	-3.08
276.229	0.92
276.364	-10.08
276.499	-6.08
276.634	-4.08
276.768	-2.08
276.903	6.92
277.038	21.92
277.173	-2.08
277.308	0.92
277.442	17.92
277.577	-3.08
277.712	-0.08
277.847	3.92
277.981	7.92
278.116	-7.08
278.251	-0.08
278.386	23.92
278.52	20.92
278.655	6.92
278.79	20.92
278.924	8.92
279.059	3.92
279.194	-13.08
279.328	31.92
279.463	22.92
279.598	14.92
279.732	20.92
279.867	-10.08
280.001	6.92
280.136	-3.08
280.271	22.92
280.405	1.92
280.54	4.92
280.674	12.92
280.809	27.92
280.943	0.92
281.078	4.92
281.213	16.92
281.347	22.92
281.482	15.92
281.616	-11.08
281.751	-2.08
281.885	-19.08
282.02	4.92
282.154	16.92
282.288	-1.08
282.423	-1.08
282.557	-12.08
282.692	-7.08
282.826	-6.08
282.961	10.92
283.095	3.92
283.229	19.92
283.364	-23.08
283.498	3.92
283.633	15.92
283.767	4.92
283.901	-1.08
284.036	0.92
284.17	0.92
284.304	-8.08
284.439	13.92
284.573	-4.08
284.707	27.92
284.842	-2.08
284.976	-4.08
285.11	8.92
285.244	13.92
285.379	56.92
285.513	-9.08
285.647	-3.08
285.781	2.92
285.916	8.92
286.05	4.92
286.184	22.92
286.318	4.92
286.453	-5.08
286.587	-13.08
286.721	-0.08
286.855	28.92
286.989	12.92
287.123	11.92
287.258	7.92
287.392	-7.08
287.526	16.92
287.66	7.92
287.794	8.92
287.928	4.92
288.062	3.92
288.196	-0.08
288.33	1.92
288.464	32.92
288.598	21.92
288.733	12.92
288.867	20.92
289.001	10.92
289.135	-0.08
289.269	-0.08
289.403	-1.08
289.537	23.92
289.671	28.92
289.805	5.92
289.939	0.92
290.073	4.92
290.207	25.92
290.34	-2.08
290.474	8.92
290.608	8.92
290.742	0.92
290.876	-2.08
291.01	4.92
291.144	31.92
291.278	18.92
291.412	15.92
291.546	-4.08
291.679	-6.08
291.813	-8.08
291.947	24.92
292.081	-9.08
292.215	11.92
292.349	20.92
292.482	-0.08
292.616	-9.08
292.75	21.92
292.884	22.92
293.018	15.92
293.151	-5.08
293.285	-7.08
293.419	-11.08
293.553	-6.08
293.686	-24.08
293.82	1.92
293.954	26.92
294.088	27.92
294.221	-8.08
294.355	-11.08
294.489	-3.08
294.622	-3.08
294.756	10.92
294.89	11.92
295.023	-14.08
295.157	-0.08
295.291	8.92
295.424	8.92
295.558	9.92
295.691	-2.08
295.825	-2.08
295.959	18.92
296.092	12.92
296.226	5.92
296.359	15.92
296.493	3.92
296.627	2.92
296.76	16.92
296.894	-1.08
297.027	-2.08
297.161	1.92
297.294	-7.08
297.428	12.92
297.561	22.92
297.695	9.92
297.828	8.92
297.962	14.92
298.095	-0.08
298.229	4.92
298.362	0.92
298.495	-5.08
298.629	-7.08
298.762	12.92
298.896	3.92
299.029	-20.08
299.162	7.92
299.296	15.92
299.429	-2.08
299.563	12.92
299.696	8.92
299.829	-3.08
299.963	22.92
300.096	17.92
300.229	16.92
300.363	10.92
300.496	34.92
300.629	-18.08
300.763	-4.08
300.896	-8.08
301.029	9.92
301.162	4.92
301.296	-11.08
301.429	5.92
301.562	-12.08
301.695	5.92
301.829	16.92
301.962	44.92
302.095	17.92
302.228	-7.08
302.362	-0.08
302.495	3.92
302.628	15.92
302.761	11.92
302.894	1.92
303.027	12.92
303.161	3.92
303.294	-0.08
303.427	-6.08
303.56	1.92
303.693	1.92
303.826	3.92
303.959	1.92
304.092	6.92
304.225	-1.08
304.359	8.92
304.492	0.92
304.625	10.92
304.758	14.92
304.891	-26.08
305.024	3.92
305.157	8.92
305.29	14.92
305.423	9.92
305.556	2.92
305.689	29.92
305.822	-0.08
305.955	13.92
306.088	12.92
306.221	4.92
306.354	-12.08
306.487	-8.08
306.62	1.92
306.752	0.92
306.885	8.92
307.018	0.92
307.151	12.92
307.284	26.92
307.417	2.92
307.55	8.92
307.683	7.92
307.816	20.92
307.948	7.92
308.081	27.92
308.214	1.92
308.347	21.92
308.48	-15.08
308.613	10.92
308.745	6.92
308.878	-17.08
309.011	-7.08
309.144	16.92
309.277	-8.08
309.409	25.92
309.542	12.92
309.675	24.92
309.808	13.92
309.94	15.92
310.073	-12.08
310.206	-5.08
310.339	-19.08
310.471	-6.08
310.604	16.92
310.737	-4.08
310.869	13.92
311.002	-12.08
311.135	2.92
311.267	-14.08
311.4	11.92
311.533	8.92
311.665	11.92
311.798	5.92
311.93	13.92
312.063	42.92
312.196	52.92
312.328	71.92
312.461	52.92
312.593	32.92
312.726	30.92
312.859	112.92
312.991	162.92
313.124	55.92
313.256	24.92
313.389	8.92
313.521	1.92
313.654	-7.08
313.786	-11.08
313.919	2.92
314.051	3.92
314.184	3.92
314.316	6.92
314.449	-19.08
314.581	-7.08
314.714	3.92
314.846	16.92
314.978	-1.08
315.111	-7.08
315.243	-1.08
315.376	0.92
315.508	20.92
315.641	15.92
315.773	14.92
315.905	29.92
316.038	2.92
316.17	17.92
316.302	17.92
316.435	10.92
316.567	11.92
316.699	26.92
316.832	1.92
316.964	15.92
317.096	3.92
317.229	-9.08
317.361	-15.08
317.493	-8.08
317.625	-13.08
317.758	16.92
317.89	21.92
318.022	4.92
318.155	12.92
318.287	9.92
318.419	5.92
318.551	1.92
318.683	0.92
318.816	-3.08
318.948	9.92
319.08	0.92
319.212	0.92
319.344	7.92
319.477	0.92
319.609	0.92
319.741	-1.08
319.873	-12.08
320.005	-0.08
320.137	-5.08
320.269	11.92
320.401	10.92
320.534	0.92
320.666	-9.08
320.798	-20.08
320.93	12.92
321.062	22.92
321.194	3.92
321.326	6.92
321.458	17.92
321.59	0.92
321.722	-1.08
321.854	10.92
321.986	10.92
322.118	-1.08
322.25	-5.08
322.382	6.92
322.514	-12.08
322.646	-5.08
322.778	22.92
322.91	-1.08
323.042	19.92
323.174	17.92
323.306	3.92
323.438	-29.08
323.57	3.92
323.702	2.92
323.834	9.92
323.966	-12.08
324.097	-9.08
324.229	11.92
324.361	13.92
324.493	-0.08
324.625	-17.08
324.757	-9.08
324.889	25.92
325.021	8.92
325.152	11.92
325.284	17.92
325.416	8.92
325.548	17.92
325.68	8.92
325.811	31.92
325.943	22.92
326.075	0.92
326.207	-9.08
326.339	8.92
326.47	14.92
326.602	21.92
326.734	17.92
326.866	23.92
326.997	-3.08
327.129	10.92
327.261	-14.08
327.392	-9.08
327.524	7.92
327.656	-7.08
327.787	18.92
327.919	5.92
328.051	2.92
328.182	16.92
328.314	24.92
328.446	15.92
328.577	21.92
328.709	13.92
328.841	0.92
328.972	0.92
329.104	-4.08
329.235	-1.08
329.367	13.92
329.499	12.92
329.63	22.92
329.762	18.92
329.893	32.92
330.025	15.92
330.156	-21.08
330.288	17.92
330.419	25.92
330.551	8.92
330.683	17.92
330.814	-1.08
330.946	20.92
331.077	-6.08
331.208	-4.08
331.34	-10.08
331.471	-0.08
331.603	7.92
331.734	1.92
331.866	13.92
331.997	11.92
332.129	-13.08
332.26	-9.08
332.392	43.92
332.523	21.92
332.654	-0.08
332.786	11.92
332.917	3.92
333.048	25.92
333.18	53.92
333.311	-7.08
333.443	11.92
333.574	11.92
333.705	34.92
333.837	32.92
333.968	117.92
334.099	235.92
334.231	230.92
334.362	58.92
334.493	36.92
334.624	19.92
334.756	22.92
334.887	8.92
335.018	22.92
335.15	15.92
335.281	18.92
335.412	26.92
335.543	15.92
335.675	10.92
335.806	13.92
335.937	8.92
336.068	35.92
336.199	32.92
336.331	-8.08
336.462	11.92
336.593	35.92
336.724	-6.08
336.855	-6.08
336.986	8.92
337.118	18.92
337.249	10.92
337.38	16.92
337.511	-0.08
337.642	13.92
337.773	26.92
337.904	7.92
338.035	0.92
338.166	13.92
338.298	9.92
338.429	7.92
338.56	16.92
338.691	7.92
338.822	8.92
338.953	8.92
339.084	34.92
339.215	24.92
339.346	12.92
339.477	22.92
339.608	22.92
339.739	8.92
339.87	10.92
340.001	22.92
340.132	28.92
340.263	7.92
340.394	16.92
340.525	29.92
340.656	14.92
340.787	11.92
340.918	55.92
341.049	35.92
341.179	5.92
341.31	19.92
341.441	16.92
341.572	35.92
341.703	9.92
341.834	9.92
341.965	27.92
342.096	10.92
342.227	34.92
342.357	0.92
342.488	22.92
342.619	26.92
342.75	27.92
342.881	3.92
343.012	40.92
343.142	46.92
343.273	21.92
343.404	21.92
343.535	41.92
343.666	27.92
343.796	27.92
343.927	46.92
344.058	29.92
344.189	35.92
344.319	40.92
344.45	25.92
344.581	43.92
344.712	8.92
344.842	42.92
344.973	16.92
345.104	40.92
345.234	25.92
345.365	3.92
345.496	26.92
345.626	42.92
345.757	38.92
345.888	17.92
346.018	35.92
346.149	40.92
346.28	33.92
346.41	14.92
346.541	43.92
346.672	16.92
346.802	45.92
346.933	21.92
347.063	41.92
347.194	33.92
347.325	44.92
347.455	33.92
347.586	24.92
347.716	3.92
347.847	36.92
347.977	22.92
348.108	33.92
348.238	30.92
348.369	47.92
348.499	37.92
348.63	45.92
348.76	38.92
348.891	53.92
349.021	44.92
349.152	51.92
349.282	47.92
349.413	48.92
349.543	47.92
349.674	44.92
349.804	35.92
349.935	24.92
350.065	30.92
350.196	36.92
350.326	35.92
350.456	30.92
350.587	36.92
350.717	35.92
350.848	28.92
350.978	31.92
351.108	26.92
351.239	46.92
351.369	14.92
351.499	32.92
351.63	24.92
351.76	30.92
351.89	30.92
352.021	27.92
352.151	32.92
352.281	27.92
352.412	40.92
352.542	35.92
352.672	28.92
352.803	38.92
352.933	16.92
353.063	31.92
353.193	14.92
353.324	23.92
353.454	56.92
353.584	27.92
353.714	7.92
353.845	18.92
353.975	9.92
354.105	24.92
354.235	18.92
354.365	36.92
354.496	29.92
354.626	15.92
354.756	16.92
354.886	16.92
355.016	30.92
355.146	29.92
355.277	19.92
355.407	16.92
355.537	15.92
355.667	41.92
355.797	26.92
355.927	9.92
356.057	27.92
356.187	27.92
356.318	11.92
356.448	24.92
356.578	30.92
356.708	44.92
356.838	48.92
356.968	28.92
357.098	26.92
357.228	45.92
357.358	23.92
357.488	28.92
357.618	56.92
357.748	55.92
357.878	28.92
358.008	38.92
358.138	20.92
358.268	25.92
358.398	34.92
358.528	21.92
358.658	18.92
358.788	15.92
358.918	50.92
359.048	23.92
359.178	41.92
359.308	19.92
359.438	50.92
359.568	29.92
359.698	49.92
359.827	22.92
359.957	28.92
360.087	48.92
360.217	14.92
360.347	36.92
360.477	66.92
360.607	17.92
360.737	27.92
360.866	27.92
360.996	22.92
361.126	32.92
361.256	50.92
361.386	44.92
361.516	43.92
361.645	25.92
361.775	14.92
361.905	5.92
362.035	17.92
362.165	35.92
362.294	47.92
362.424	63.92
362.554	45.92
362.684	22.92
362.813	38.92
362.943	50.92
363.073	48.92
363.203	47.92
363.332	77.92
363.462	85.92
363.592	97.92
363.721	119.92
363.851	154.92
363.981	213.92
364.111	255.92
364.24	323.92
364.37	486.92
364.5	879.92
364.629	1824.92
364.759	3847.92
364.888	6296.92
365.018	9417.92
365.148	14796.92
365.277	12956.92
365.407	4728.92
365.537	3129.92
365.666	4019.92
365.796	1818.92
365.925	794.92
366.055	750.92
366.184	1036.92
366.314	1387.92
366.444	2475.92
366.573	2107.92
366.703	659.92
366.832	213.92
366.962	116.92
367.091	104.92
367.221	97.92
367.35	59.92
367.48	91.92
367.609	47.92
367.739	43.92
367.868	37.92
367.998	53.92
368.127	64.92
368.257	54.92
368.386	47.92
368.516	62.92
368.645	49.92
368.775	44.92
368.904	36.92
369.033	34.92
369.163	29.92
369.292	47.92
369.422	61.92
369.551	61.92
369.68	53.92
369.81	65.92
369.939	20.92
370.069	65.92
370.198	39.92
370.327	27.92
370.457	41.92
370.586	21.92
370.715	49.92
370.845	25.92
370.974	39.92
371.103	48.92
371.233	64.92
371.362	55.92
371.491	49.92
371.621	55.92
371.75	52.92
371.879	33.92
372.008	35.92
372.138	34.92
372.267	61.92
372.396	52.92
372.525	52.92
372.655	32.92
372.784	27.92
372.913	21.92
373.042	32.92
373.172	46.92
373.301	-3.08
373.43	1.92
373.559	8.92
373.688	27.92
373.818	27.92
373.947	34.92
374.076	19.92
374.205	35.92
374.334	6.92
374.463	1.92
374.593	16.92
374.722	11.92
374.851	50.92
374.98	28.92
375.109	3.92
375.238	31.92
375.367	45.92
375.496	28.92
375.625	12.92
375.755	39.92
375.884	36.92
376.013	26.92
376.142	19.92
376.271	15.92
376.4	30.92
376.529	33.92
376.658	41.92
376.787	33.92
376.916	18.92
377.045	26.92
377.174	37.92
377.303	40.92
377.432	37.92
377.561	42.92
377.69	20.92
377.819	36.92
377.948	22.92
378.077	12.92
378.206	18.92
378.335	20.92
378.464	12.92
378.593	40.92
378.722	18.92
378.851	12.92
378.98	31.92
379.108	11.92
379.237	1.92
379.366	35.92
379.495	23.92
379.624	26.92
379.753	6.92
379.882	18.92
380.011	25.92
380.14	25.92
380.268	32.92
380.397	15.92
380.526	46.92
380.655	30.92
380.784	2.92
380.913	16.92
381.041	16.92
381.17	2.92
381.299	23.92
381.428	18.92
381.557	29.92
381.685	24.92
381.814	50.92
381.943	24.92
382.072	11.92
382.2	-7.08
382.329	15.92
382.458	12.92
382.587	46.92
382.715	34.92
382.844	16.92
382.973	27.92
383.102	26.92
383.23	22.92
383.359	-11.08
383.488	23.92
383.616	1.92
383.745	5.92
383.874	18.92
384.003	14.92
384.131	17.92
384.26	20.92
384.389	40.92
384.517	14.92
384.646	5.92
384.774	22.92
384.903	31.92
385.032	31.92
385.16	21.92
385.289	7.92
385.418	24.92
385.546	26.92
385.675	39.92
385.803	15.92
385.932	23.92
386.06	3.92
386.189	19.92
386.318	8.92
386.446	8.92
386.575	26.92
386.703	14.92
386.832	11.92
386.96	14.92
387.089	35.92
387.217	32.92
387.346	18.92
387.474	27.92
387.603	13.92
387.731	31.92
387.86	12.92
387.988	43.92
388.117	35.92
388.245	16.92
388.374	24.92
388.502	31.92
388.631	19.92
388.759	11.92
388.888	6.92
389.016	28.92
389.144	20.92
389.273	33.92
389.401	16.92
389.53	14.92
389.658	31.92
389.786	10.92
389.915	26.92
390.043	6.92
390.172	28.92
390.3	31.92
390.428	35.92
390.557	21.92
390.685	39.92
390.813	36.92
390.942	47.92
391.07	33.92
391.198	17.92
391.327	26.92
391.455	13.92
391.583	37.92
391.712	32.92
391.84	10.92
391.968	14.92
392.096	26.92
392.225	31.92
392.353	30.92
392.481	29.92
392.609	36.92
392.738	32.92
392.866	23.92
392.994	18.92
393.122	33.92
393.251	26.92
393.379	8.92
393.507	13.92
393.635	24.92
393.764	39.92
393.892	28.92
394.02	26.92
394.148	26.92
394.276	19.92
394.404	29.92
394.533	31.92
394.661	24.92
394.789	54.92
394.917	58.92
395.045	16.92
395.173	17.92
395.302	31.92
395.43	11.92
395.558	30.92
395.686	26.92
395.814	41.92
395.942	16.92
396.07	27.92
396.198	36.92
396.326	26.92
396.454	44.92
396.582	53.92
396.711	32.92
396.839	34.92
396.967	31.92
397.095	23.92
397.223	42.92
397.351	40.92
397.479	70.92
397.607	46.92
397.735	73.92
397.863	61.92
397.991	60.92
398.119	28.92
398.247	35.92
398.375	57.92
398.503	46.92
398.631	40.92
398.759	57.92
398.887	55.92
399.015	48.92
399.143	54.92
399.271	60.92
399.399	75.92
399.526	72.92
399.654	83.92
399.782	78.92
399.91	91.92
400.038	79.92
400.166	74.92
400.294	82.92
400.422	87.92
400.55	111.92
400.678	99.92
400.805	136.92
400.933	113.92
401.061	130.92
401.189	123.92
401.317	144.92
401.445	114.92
401.573	87.92
401.7	56.92
401.828	57.92
401.956	60.92
402.084	23.92
402.212	35.92
402.34	40.92
402.467	39.92
402.595	30.92
402.723	53.92
402.851	74.92
402.978	46.92
403.106	84.92
403.234	92.92
403.362	114.92
403.489	123.92
403.617	151.92
403.745	224.92
403.873	285.92
404	580.92
404.128	1440.92
404.256	3907.92
404.384	5104.92
404.511	5462.92
404.639	7258.92
404.767	11439.92
404.894	14624.92
405.022	4852.92
405.15	1284.92
405.277	403.92
405.405	252.92
405.533	147.92
405.66	107.92
405.788	78.92
405.916	51.92
406.043	47.92
406.171	68.92
406.299	59.92
406.426	44.92
406.554	68.92
406.681	62.92
406.809	57.92
406.937	63.92
407.064	67.92
407.192	137.92
407.319	287.92
407.447	525.92
407.574	526.92
407.702	615.92
407.83	851.92
407.957	1564.92
408.085	924.92
408.212	277.92
408.34	107.92
408.467	78.92
408.595	44.92
408.722	51.92
408.85	47.92
408.977	22.92
409.105	49.92
409.232	37.92
409.36	34.92
409.487	31.92
409.615	43.92
409.742	37.92
409.87	40.92
409.997	39.92
410.125	45.92
410.252	45.92
410.379	37.92
410.507	32.92
410.634	44.92
410.762	39.92
410.889	41.92
411.017	31.92
411.144	43.92
411.271	13.92
411.399	25.92
411.526	40.92
411.653	49.92
411.781	38.92
411.908	42.92
412.036	20.92
412.163	39.92
412.29	31.92
412.418	17.92
412.545	25.92
412.672	29.92
412.8	27.92
412.927	24.92
413.054	43.92
413.182	40.92
413.309	24.92
413.436	20.92
413.564	30.92
413.691	37.92
413.818	57.92
413.945	19.92
414.073	18.92
414.2	31.92
414.327	36.92
414.454	33.92
414.582	45.92
414.709	16.92
414.836	26.92
414.963	32.92
415.091	34.92
415.218	25.92
415.345	30.92
415.472	13.92
415.6	28.92
415.727	35.92
415.854	21.92
415.981	16.92
416.108	39.92
416.236	23.92
416.363	31.92
416.49	26.92
416.617	27.92
416.744	38.92
416.871	35.92
416.998	27.92
417.126	26.92
417.253	21.92
417.38	43.92
417.507	47.92
417.634	56.92
417.761	37.92
417.888	28.92
418.015	31.92
418.143	29.92
418.27	46.92
418.397	25.92
418.524	35.92
418.651	31.92
418.778	52.92
418.905	60.92
419.032	44.92
419.159	32.92
419.286	68.92
419.413	43.92
419.54	59.92
419.667	52.92
419.794	47.92
419.921	34.92
420.048	34.92
420.175	43.92
420.302	48.92
420.429	66.92
420.556	62.92
420.683	45.92
420.81	44.92
420.937	53.92
421.064	59.92
421.191	66.92
421.318	82.92
421.445	80.92
421.572	59.92
421.699	56.92
421.826	38.92
421.953	40.92
422.08	34.92
422.207	32.92
422.334	15.92
422.461	53.92
422.588	38.92
422.714	39.92
422.841	29.92
422.968	30.92
423.095	38.92
423.222	23.92
423.349	25.92
423.476	10.92
423.603	6.92
423.729	5.92
423.856	13.92
423.983	38.92
424.11	25.92
424.237	31.92
424.364	27.92
424.491	26.92
424.617	10.92
424.744	13.92
424.871	39.92
424.998	34.92
425.125	24.92
425.251	7.92
425.378	2.92
425.505	6.92
425.632	24.92
425.758	10.92
425.885	38.92
426.012	42.92
426.139	49.92
426.266	27.92
426.392	12.92
426.519	27.92
426.646	18.92
426.772	34.92
426.899	36.92
427.026	23.92
427.153	24.92
427.279	22.92
427.406	28.92
427.533	14.92
427.659	17.92
427.786	30.92
427.913	33.92
428.039	8.92
428.166	17.92
428.293	10.92
428.419	28.92
428.546	14.92
428.673	16.92
428.799	18.92
428.926	33.92
429.053	52.92
429.179	47.92
429.306	26.92
429.433	44.92
429.559	38.92
429.686	12.92
429.812	21.92
429.939	9.92
430.066	27.92
430.192	33.92
430.319	13.92
430.445	23.92
430.572	33.92
430.699	16.92
430.825	7.92
430.952	22.92
431.078	18.92
431.205	40.92
431.331	16.92
431.458	27.92
431.584	55.92
431.711	30.92
431.837	28.92
431.964	18.92
432.09	52.92
432.217	2.92
432.343	33.92
432.47	36.92
432.596	30.92
432.723	33.92
432.849	34.92
432.976	39.92
433.102	40.92
433.229	21.92
433.355	68.92
433.482	79.92
433.608	112.92
433.735	99.92
433.861	93.92
433.987	175.92
434.114	198.92
434.24	174.92
434.367	230.92
434.493	228.92
434.62	292.92
434.746	366.92
434.872	621.92
434.999	843.92
435.125	1745.92
435.252	5532.92
435.378	13422.92
435.504	15212.92
435.631	15409.92
435.757	15685.92
435.883	15685.92
436.01	15685.92
436.136	15685.92
436.262	15685.92
436.389	3482.92
436.515	2126.92
436.641	803.92
436.768	633.92
436.894	389.92
437.02	393.92
437.147	299.92
437.273	267.92
437.399	213.92
437.526	241.92
437.652	177.92
437.778	202.92
437.904	161.92
438.031	167.92
438.157	136.92
438.283	156.92
438.409	104.92
438.536	102.92
438.662	123.92
438.788	143.92
438.914	109.92
439.041	118.92
439.167	113.92
439.293	106.92
439.419	90.92
439.546	108.92
439.672	70.92
439.798	78.92
439.924	74.92
440.05	84.92
440.177	66.92
440.303	89.92
440.429	82.92
440.555	70.92
440.681	56.92
440.807	94.92
440.934	72.92
441.06	72.92
441.186	62.92
441.312	40.92
441.438	49.92
441.564	60.92
441.69	64.92
441.816	67.92
441.943	47.92
442.069	62.92
442.195	56.92
442.321	64.92
442.447	44.92
442.573	46.92
442.699	45.92
442.825	42.92
442.951	40.92
443.077	41.92
443.203	71.92
443.33	50.92
443.456	32.92
443.582	63.92
443.708	47.92
443.834	46.92
443.96	59.92
444.086	44.92
444.212	66.92
444.338	48.92
444.464	42.92
444.59	69.92
444.716	37.92
444.842	40.92
444.968	54.92
445.094	44.92
445.22	31.92
445.346	27.92
445.472	30.92
445.598	53.92
445.724	27.92
445.85	29.92
445.976	51.92
446.102	50.92
446.228	50.92
446.354	40.92
446.48	27.92
446.605	35.92
446.731	37.92
446.857	33.92
446.983	44.92
447.109	40.92
447.235	28.92
447.361	28.92
447.487	34.92
447.613	57.92
447.739	38.92
447.865	35.92
447.99	39.92
448.116	43.92
448.242	51.92
448.368	45.92
448.494	28.92
448.62	48.92
448.746	19.92
448.872	38.92
448.997	24.92
449.123	24.92
449.249	44.92
449.375	45.92
449.501	24.92
449.627	19.92
449.752	48.92
449.878	26.92
450.004	12.92
450.13	37.92
450.256	25.92
450.381	29.92
450.507	31.92
450.633	28.92
450.759	22.92
450.884	20.92
451.01	48.92
451.136	30.92
451.262	35.92
451.388	23.92
451.513	48.92
451.639	40.92
451.765	32.92
451.89	47.92
452.016	29.92
452.142	27.92
452.268	38.92
452.393	32.92
452.519	27.92
452.645	37.92
452.771	30.92
452.896	15.92
453.022	23.92
453.148	47.92
453.273	27.92
453.399	33.92
453.525	15.92
453.65	30.92
453.776	40.92
453.902	26.92
454.027	39.92
454.153	39.92
454.279	41.92
454.404	29.92
454.53	30.92
454.656	52.92
454.781	17.92
454.907	28.92
455.032	31.92
455.158	36.92
455.284	45.92
455.409	31.92
455.535	40.92
455.66	42.92
455.786	39.92
455.912	23.92
456.037	18.92
456.163	38.92
456.288	34.92
456.414	29.92
456.539	16.92
456.665	15.92
456.791	34.92
456.916	27.92
457.042	30.92
457.167	25.92
457.293	32.92
457.418	22.92
457.544	23.92
457.669	29.92
457.795	27.92
457.92	24.92
458.046	29.92
458.171	27.92
458.297	25.92
458.422	25.92
458.548	29.92
458.673	32.92
458.799	27.92
458.924	12.92
459.05	17.92
459.175	22.92
459.301	12.92
459.426	30.92
459.552	24.92
459.677	17.92
459.803	44.92
459.928	40.92
460.053	24.92
460.179	43.92
460.304	48.92
460.43	25.92
460.555	27.92
460.681	32.92
460.806	34.92
460.931	42.92
461.057	27.92
461.182	18.92
461.308	36.92
461.433	45.92
461.558	26.92
461.684	33.92
461.809	29.92
461.934	25.92
462.06	34.92
462.185	19.92
462.311	11.92
462.436	46.92
462.561	27.92
462.687	40.92
462.812	32.92
462.937	20.92
463.063	16.92
463.188	8.92
463.313	31.92
463.439	32.92
463.564	20.92
463.689	23.92
463.814	29.92
463.94	15.92
464.065	37.92
464.19	39.92
464.316	15.92
464.441	25.92
464.566	11.92
464.692	20.92
464.817	20.92
464.942	36.92
465.067	24.92
465.193	2.92
465.318	23.92
465.443	17.92
465.568	22.92
465.694	37.92
465.819	41.92
465.944	32.92
466.069	27.92
466.194	47.92
466.32	54.92
466.445	32.92
466.57	13.92
466.695	18.92
466.82	23.92
466.946	23.92
467.071	27.92
467.196	35.92
467.321	39.92
467.446	28.92
467.572	17.92
467.697	23.92
467.822	42.92
467.947	48.92
468.072	21.92
468.197	33.92
468.323	20.92
468.448	33.92
468.573	31.92
468.698	52.92
468.823	56.92
468.948	31.92
469.073	19.92
469.198	48.92
469.324	59.92
469.449	46.92
469.574	50.92
469.699	54.92
469.824	43.92
469.949	50.92
470.074	31.92
470.199	47.92
470.324	33.92
470.449	36.92
470.574	31.92
470.7	42.92
470.825	44.92
470.95	61.92
471.075	31.92
471.2	43.92
471.325	51.92
471.45	37.92
471.575	30.92
471.7	44.92
471.825	22.92
471.95	32.92
472.075	27.92
472.2	16.92
472.325	19.92
472.45	22.92
472.575	35.92
472.7	32.92
472.825	22.92
472.95	32.92
473.075	42.92
473.2	25.92
473.325	34.92
473.45	52.92
473.575	39.92
473.7	57.92
473.825	25.92
473.95	28.92
474.075	22.92
474.2	22.92
474.325	17.92
474.45	30.92
474.574	33.92
474.699	35.92
474.824	31.92
474.949	2.92
475.074	23.92
475.199	22.92
475.324	40.92
475.449	26.92
475.574	8.92
475.699	14.92
475.824	18.92
475.949	25.92
476.073	9.92
476.198	6.92
476.323	28.92
476.448	16.92
476.573	28.92
476.698	23.92
476.823	25.92
476.947	22.92
477.072	16.92
477.197	19.92
477.322	24.92
477.447	18.92
477.572	32.92
477.697	26.92
477.821	20.92
477.946	35.92
478.071	20.92
478.196	13.92
478.321	24.92
478.445	21.92
478.57	14.92
478.695	26.92
478.82	26.92
478.945	27.92
479.069	19.92
479.194	22.92
479.319	29.92
479.444	34.92
479.569	11.92
479.693	20.92
479.818	20.92
479.943	35.92
480.068	8.92
480.192	33.92
480.317	28.92
480.442	30.92
480.567	27.92
480.691	19.92
480.816	2.92
480.941	3.92
481.066	28.92
481.19	23.92
481.315	30.92
481.44	3.92
481.564	7.92
481.689	25.92
481.814	33.92
481.938	23.92
482.063	-2.08
482.188	12.92
482.313	42.92
482.437	19.92
482.562	27.92
482.687	40.92
482.811	23.92
482.936	14.92
483.061	27.92
483.185	20.92
483.31	37.92
483.435	25.92
483.559	27.92
483.684	27.92
483.808	51.92
483.933	40.92
484.058	17.92
484.182	32.92
484.307	39.92
484.432	32.92
484.556	25.92
484.681	28.92
484.805	39.92
484.93	12.92
485.055	26.92
485.179	52.92
485.304	32.92
485.428	37.92
485.553	22.92
485.678	10.92
485.802	27.92
485.927	44.92
486.051	23.92
486.176	28.92
486.3	9.92
486.425	18.92
486.549	20.92
486.674	56.92
486.799	34.92
486.923	20.92
487.048	-1.08
487.172	14.92
487.297	20.92
487.421	23.92
487.546	4.92
487.67	20.92
487.795	19.92
487.919	24.92
488.044	16.92
488.168	43.92
488.293	23.92
488.417	19.92
488.542	42.92
488.666	39.92
488.791	36.92
488.915	18.92
489.04	39.92
489.164	23.92
489.289	22.92
489.413	8.92
489.538	16.92
489.662	28.92
489.786	16.92
489.911	19.92
490.035	12.92
490.16	10.92
490.284	14.92
490.409	23.92
490.533	22.92
490.658	35.92
490.782	20.92
490.906	68.92
491.031	133.92
491.155	147.92
491.28	144.92
491.404	143.92
491.528	254.92
491.653	164.92
491.777	86.92
491.902	21.92
492.026	16.92
492.15	30.92
492.275	57.92
492.399	20.92
492.524	12.92
492.648	43.92
492.772	32.92
492.897	19.92
493.021	18.92
493.145	18.92
493.27	18.92
493.394	19.92
493.518	22.92
493.643	4.92
493.767	20.92
493.891	12.92
494.016	14.92
494.14	12.92
494.264	21.92
494.389	35.92
494.513	22.92
494.637	-5.08
494.762	27.92
494.886	35.92
495.01	26.92
495.134	28.92
495.259	30.92
495.383	7.92
495.507	14.92
495.632	39.92
495.756	40.92
495.88	41.92
496.004	57.92
496.129	10.92
496.253	23.92
496.377	28.92
496.501	33.92
496.626	8.92
496.75	18.92
496.874	25.92
496.998	20.92
497.123	23.92
497.247	30.92
497.371	25.92
497.495	31.92
497.62	37.92
497.744	15.92
497.868	18.92
497.992	39.92
498.116	2.92
498.241	11.92
498.365	10.92
498.489	14.92
498.613	32.92
498.737	14.92
498.862	19.92
498.986	20.92
499.11	15.92
499.234	15.92
499.358	46.92
499.482	32.92
499.607	22.92
499.731	27.92
499.855	39.92
499.979	35.92
500.103	33.92
500.227	26.92
500.351	22.92
500.476	30.92
500.6	23.92
500.724	24.92
500.848	37.92
500.972	25.92
501.096	28.92
501.22	38.92
501.344	8.92
501.469	6.92
501.593	14.92
501.717	31.92
501.841	17.92
501.965	35.92
502.089	4.92
502.213	40.92
502.337	28.92
502.461	29.92
502.585	19.92
502.709	26.92
502.834	12.92
502.958	2.92
503.082	38.92
503.206	40.92
503.33	32.92
503.454	36.92
503.578	29.92
503.702	39.92
503.826	24.92
503.95	18.92
504.074	-3.08
504.198	28.92
504.322	15.92
504.446	9.92
504.57	29.92
504.694	38.92
504.818	25.92
504.942	47.92
505.066	34.92
505.19	14.92
505.314	24.92
505.438	24.92
505.562	19.92
505.686	24.92
505.81	13.92
505.934	26.92
506.058	27.92
506.182	26.92
506.306	34.92
506.43	17.92
506.554	34.92
506.678	25.92
506.802	15.92
506.926	38.92
507.05	23.92
507.174	30.92
507.298	33.92
507.422	16.92
507.546	30.92
507.67	37.92
507.794	9.92
507.918	12.92
508.042	20.92
508.165	15.92
508.289	36.92
508.413	26.92
508.537	14.92
508.661	23.92
508.785	32.92
508.909	26.92
509.033	33.92
509.157	27.92
509.281	31.92
509.405	37.92
509.528	46.92
509.652	42.92
509.776	31.92
509.9	43.92
510.024	14.92
510.148	36.92
510.272	44.92
510.396	46.92
510.519	31.92
510.643	47.92
510.767	39.92
510.891	40.92
511.015	19.92
511.139	40.92
511.263	58.92
511.386	33.92
511.51	41.92
511.634	62.92
511.758	59.92
511.882	26.92
512.006	51.92
512.129	77.92
512.253	104.92
512.377	72.92
512.501	95.92
512.625	109.92
512.748	109.92
512.872	78.92
512.996	72.92
513.12	64.92
513.244	67.92
513.367	77.92
513.491	72.92
513.615	88.92
513.739	71.92
513.862	73.92
513.986	91.92
514.11	91.92
514.234	91.92
514.358	108.92
514.481	114.92
514.605	124.92
514.729	121.92
514.853	129.92
514.976	92.92
515.1	111.92
515.224	114.92
515.348	88.92
515.471	86.92
515.595	112.92
515.719	138.92
515.842	247.92
515.966	304.92
516.09	326.92
516.214	303.92
516.337	348.92
516.461	248.92
516.585	104.92
516.708	47.92
516.832	55.92
516.956	25.92
517.08	26.92
517.203	11.92
517.327	19.92
517.451	30.92
517.574	39.92
517.698	0.92
517.822	9.92
517.945	26.92
518.069	44.92
518.193	47.92
518.316	17.92
518.44	22.92
518.564	3.92
518.687	1.92
518.811	30.92
518.935	45.92
519.058	17.92
519.182	25.92
519.306	37.92
519.429	8.92
519.553	46.92
519.676	46.92
519.8	6.92
519.924	17.92
520.047	34.92
520.171	28.92
520.294	40.92
520.418	18.92
520.542	25.92
520.665	41.92
520.789	39.92
520.913	8.92
521.036	5.92
521.16	18.92
521.283	17.92
521.407	26.92
521.53	14.92
521.654	-4.08
521.778	34.92
521.901	11.92
522.025	15.92
522.148	18.92
522.272	23.92
522.395	-4.08
522.519	22.92
522.643	14.92
522.766	37.92
522.89	17.92
523.013	31.92
523.137	-2.08
523.26	10.92
523.384	24.92
523.507	33.92
523.631	18.92
523.754	12.92
523.878	12.92
524.002	13.92
524.125	20.92
524.249	22.92
524.372	18.92
524.496	30.92
524.619	29.92
524.743	14.92
524.866	23.92
524.99	25.92
525.113	15.92
525.237	26.92
525.36	31.92
525.484	8.92
525.607	3.92
525.731	7.92
525.854	28.92
525.978	24.92
526.101	8.92
526.224	10.92
526.348	21.92
526.471	17.92
526.595	19.92
526.718	18.92
526.842	22.92
526.965	21.92
527.089	17.92
527.212	28.92
527.336	15.92
527.459	21.92
527.582	8.92
527.706	19.92
527.829	15.92
527.953	28.92
528.076	13.92
528.2	-2.08
528.323	24.92
528.446	23.92
528.57	27.92
528.693	36.92
528.817	19.92
528.94	11.92
529.064	52.92
529.187	11.92
529.31	27.92
529.434	24.92
529.557	-3.08
529.68	8.92
529.804	22.92
529.927	21.92
530.051	33.92
530.174	8.92
530.297	27.92
530.421	19.92
530.544	27.92
530.668	30.92
530.791	17.92
530.914	21.92
531.038	7.92
531.161	18.92
531.284	35.92
531.408	1.92
531.531	11.92
531.654	14.92
531.778	28.92
531.901	10.92
532.024	22.92
532.148	35.92
532.271	40.92
532.394	22.92
532.518	42.92
532.641	19.92
532.764	33.92
532.888	30.92
533.011	0.92
533.134	17.92
533.258	31.92
533.381	31.92
533.504	28.92
533.628	17.92
533.751	15.92
533.874	3.92
533.997	10.92
534.121	18.92
534.244	21.92
534.367	26.92
534.491	26.92
534.614	36.92
534.737	21.92
534.86	27.92
534.984	30.92
535.107	21.92
535.23	25.92
535.354	22.92
535.477	19.92
535.6	34.92
535.723	19.92
535.847	14.92
535.97	14.92
536.093	18.92
536.216	8.92
536.34	12.92
536.463	-3.08
536.586	16.92
536.709	36.92
536.833	20.92
536.956	3.92
537.079	19.92
537.202	21.92
537.325	14.92
537.449	14.92
537.572	39.92
537.695	22.92
537.818	14.92
537.941	15.92
538.065	12.92
538.188	26.92
538.311	40.92
538.434	31.92
538.558	23.92
538.681	28.92
538.804	17.92
538.927	43.92
539.05	41.92
539.173	26.92
539.297	15.92
539.42	29.92
539.543	20.92
539.666	33.92
539.789	24.92
539.913	15.92
540.036	19.92
540.159	23.92
540.282	19.92
540.405	30.92
540.528	25.92
540.651	30.92
540.775	25.92
540.898	27.92
541.021	28.92
541.144	42.92
541.267	38.92
541.39	26.92
541.513	41.92
541.637	25.92
541.76	28.92
541.883	29.92
542.006	42.92
542.129	42.92
542.252	60.92
542.375	46.92
542.498	44.92
542.622	42.92
542.745	60.92
542.868	35.92
542.991	40.92
543.114	58.92
543.237	48.92
543.36	86.92
543.483	52.92
543.606	84.92
543.73	98.92
543.853	80.92
543.976	84.92
544.099	123.92
544.222	114.92
544.345	150.92
544.468	174.92
544.591	225.92
544.714	289.92
544.837	367.92
544.96	469.92
545.083	670.92
545.206	1102.92
545.329	2490.92
545.453	10970.92
545.576	15259.92
545.699	15685.92
545.822	15685.92
545.945	15685.92
546.068	15685.92
546.191	15685.92
546.314	15685.92
546.437	15685.92
546.56	15685.92
546.683	15685.92
546.806	15685.92
546.929	15685.92
547.052	15685.92
547.175	15685.92
547.298	15685.92
547.421	15685.92
547.544	15685.92
547.667	3590.92
547.79	2911.92
547.913	1108.92
548.036	886.92
548.159	641.92
548.282	615.92
548.405	478.92
548.528	507.92
548.651	416.92
548.774	391.92
548.897	343.92
549.02	356.92
549.143	303.92
549.266	286.92
549.389	268.92
549.512	273.92
549.635	262.92
549.758	259.92
549.881	225.92
550.004	214.92
550.127	193.92
550.25	199.92
550.373	177.92
550.496	204.92
550.619	146.92
550.742	144.92
550.865	132.92
550.988	160.92
551.111	147.92
551.234	160.92
551.356	143.92
551.479	130.92
551.602	129.92
551.725	146.92
551.848	147.92
551.971	174.92
552.094	138.92
552.217	119.92
552.34	120.92
552.463	92.92
552.586	113.92
552.709	118.92
552.832	112.92
552.955	114.92
553.077	120.92
553.2	119.92
553.323	83.92
553.446	101.92
553.569	105.92
553.692	115.92
553.815	108.92
553.938	110.92
554.061	103.92
554.184	98.92
554.306	93.92
554.429	95.92
554.552	91.92
554.675	60.92
554.798	70.92
554.921	94.92
555.044	72.92
555.167	55.92
555.29	67.92
555.412	76.92
555.535	81.92
555.658	93.92
555.781	75.92
555.904	74.92
556.027	84.92
556.15	77.92
556.272	63.92
556.395	84.92
556.518	61.92
556.641	57.92
556.764	90.92
556.887	72.92
557.01	80.92
557.132	67.92
557.255	66.92
557.378	65.92
557.501	64.92
557.624	78.92
557.747	77.92
557.869	92.92
557.992	84.92
558.115	110.92
558.238	88.92
558.361	107.92
558.483	107.92
558.606	78.92
558.729	59.92
558.852	56.92
558.975	63.92
559.098	63.92
559.22	60.92
559.343	47.92
559.466	64.92
559.589	64.92
559.712	50.92
559.834	44.92
559.957	48.92
560.08	55.92
560.203	76.92
560.325	62.92
560.448	74.92
560.571	58.92
560.694	44.92
560.817	71.92
560.939	55.92
561.062	60.92
561.185	73.92
561.308	62.92
561.43	41.92
561.553	59.92
561.676	64.92
561.799	74.92
561.921	64.92
562.044	74.92
562.167	48.92
562.29	71.92
562.413	75.92
562.535	65.92
562.658	43.92
562.781	59.92
562.903	65.92
563.026	83.92
563.149	128.92
563.272	99.92
563.394	119.92
563.517	101.92
563.64	58.92
563.763	46.92
563.885	47.92
564.008	59.92
564.131	59.92
564.254	28.92
564.376	43.92
564.499	30.92
564.622	47.92
564.744	50.92
564.867	29.92
564.99	34.92
565.113	41.92
565.235	42.92
565.358	39.92
565.481	27.92
565.603	38.92
565.726	22.92
565.849	42.92
565.971	41.92
566.094	25.92
566.217	56.92
566.34	44.92
566.462	46.92
566.585	55.92
566.708	64.92
566.83	43.92
566.953	48.92
567.076	43.92
567.198	40.92
567.321	36.92
567.444	37.92
567.566	38.92
567.689	18.92
567.812	24.92
567.934	31.92
568.057	60.92
568.18	39.92
568.302	46.92
568.425	31.92
568.548	34.92
568.67	28.92
568.793	34.92
568.916	36.92
569.038	42.92
569.161	40.92
569.283	42.92
569.406	45.92
569.529	36.92
569.651	25.92
569.774	14.92
569.897	23.92
570.019	54.92
570.142	39.92
570.265	34.92
570.387	36.92
570.51	30.92
570.632	37.92
570.755	39.92
570.878	38.92
571	40.92
571.123	27.92
571.246	42.92
571.368	27.92
571.491	28.92
571.613	18.92
571.736	20.92
571.859	28.92
571.981	16.92
572.104	19.92
572.226	27.92
572.349	20.92
572.472	33.92
572.594	31.92
572.717	18.92
572.839	24.92
572.962	45.92
573.085	51.92
573.207	35.92
573.33	46.92
573.452	34.92
573.575	54.92
573.697	48.92
573.82	38.92
573.943	31.92
574.065	31.92
574.188	39.92
574.31	52.92
574.433	46.92
574.555	59.92
574.678	35.92
574.801	44.92
574.923	55.92
575.046	55.92
575.168	20.92
575.291	40.92
575.413	39.92
575.536	39.92
575.659	57.92
575.781	46.92
575.904	57.92
576.026	72.92
576.149	83.92
576.271	123.92
576.394	203.92
576.516	538.92
576.639	3663.92
576.761	10089.92
576.884	8809.92
577.007	8752.92
577.129	8026.92
577.252	3715.92
577.374	1275.92
577.497	540.92
577.619	281.92
577.742	177.92
577.864	152.92
577.987	138.92
578.109	139.92
578.232	123.92
578.354	156.92
578.477	186.92
578.599	398.92
578.722	1944.92
578.844	9082.92
578.967	9776.92
579.089	8797.92
579.212	9103.92
579.334	5240.92
579.457	1936.92
579.579	720.92
579.702	337.92
579.824	217.92
579.947	136.92
580.069	103.92
580.192	94.92
580.314	82.92
580.437	70.92
580.559	94.92
580.682	74.92
580.804	58.92
580.927	62.92
581.049	74.92
581.172	66.92
581.294	68.92
581.417	52.92
581.539	47.92
581.662	65.92
581.784	48.92
581.907	56.92
582.029	46.92
582.152	32.92
582.274	31.92
582.396	29.92
582.519	39.92
582.641	28.92
582.764	28.92
582.886	38.92
583.009	37.92
583.131	38.92
583.254	42.92
583.376	59.92
583.499	43.92
583.621	46.92
583.743	45.92
583.866	52.92
583.988	39.92
584.111	51.92
584.233	52.92
584.356	34.92
584.478	31.92
584.601	21.92
584.723	22.92
584.845	37.92
584.968	49.92
585.09	24.92
585.213	37.92
585.335	31.92
585.458	24.92
585.58	17.92
585.702	25.92
585.825	46.92
585.947	33.92
586.07	22.92
586.192	18.92
586.315	29.92
586.437	23.92
586.559	32.92
586.682	26.92
586.804	49.92
586.927	42.92
587.049	41.92
587.171	40.92
587.294	55.92
587.416	63.92
587.539	18.92
587.661	8.92
587.783	12.92
587.906	33.92
588.028	37.92
588.151	44.92
588.273	30.92
588.395	16.92
588.518	26.92
588.64	36.92
588.763	42.92
588.885	55.92
589.007	58.92
589.13	22.92
589.252	28.92
589.375	31.92
589.497	41.92
589.619	31.92
589.742	36.92
589.864	58.92
589.986	36.92
590.109	26.92
590.231	18.92
590.354	29.92
590.476	14.92
590.598	22.92
590.721	34.92
590.843	37.92
590.965	25.92
591.088	22.92
591.21	27.92
591.332	36.92
591.455	15.92
591.577	22.92
591.7	14.92
591.822	17.92
591.944	30.92
592.067	18.92
592.189	34.92
592.311	39.92
592.434	23.92
592.556	24.92
592.678	20.92
592.801	26.92
592.923	27.92
593.045	19.92
593.168	27.92
593.29	39.92
593.412	18.92
593.535	15.92
593.657	21.92
593.779	28.92
593.902	36.92
594.024	17.92
594.146	48.92
594.269	29.92
594.391	14.92
594.513	30.92
594.636	31.92
594.758	11.92
594.88	37.92
595.003	23.92
595.125	23.92
595.247	12.92
595.37	28.92
595.492	18.92
595.614	41.92
595.737	28.92
595.859	15.92
595.981	27.92
596.104	24.92
596.226	10.92
596.348	17.92
596.471	27.92
596.593	28.92
596.715	11.92
596.838	22.92
596.96	14.92
597.082	28.92
597.204	29.92
597.327	26.92
597.449	23.92
597.571	30.92
597.694	41.92
597.816	34.92
597.938	25.92
598.061	17.92
598.183	10.92
598.305	25.92
598.427	33.92
598.55	22.92
598.672	39.92
598.794	38.92
598.917	18.92
599.039	22.92
599.161	31.92
599.283	25.92
599.406	15.92
599.528	28.92
599.65	57.92
599.773	32.92
599.895	48.92
600.017	47.92
600.139	31.92
600.262	24.92
600.384	15.92
600.506	24.92
600.628	32.92
600.751	41.92
600.873	36.92
600.995	11.92
601.118	18.92
601.24	34.92
601.362	31.92
601.484	42.92
601.607	19.92
601.729	26.92
601.851	13.92
601.973	11.92
602.096	32.92
602.218	34.92
602.34	24.92
602.462	33.92
602.585	23.92
602.707	6.92
602.829	18.92
602.951	26.92
603.074	10.92
603.196	23.92
603.318	12.92
603.44	38.92
603.563	27.92
603.685	17.92
603.807	35.92
603.929	20.92
604.052	37.92
604.174	34.92
604.296	43.92
604.418	38.92
604.541	47.92
604.663	16.92
604.785	13.92
604.907	19.92
605.03	25.92
605.152	47.92
605.274	29.92
605.396	20.92
605.519	20.92
605.641	27.92
605.763	29.92
605.885	21.92
606.008	15.92
606.13	27.92
606.252	33.92
606.374	2.92
606.496	10.92
606.619	30.92
606.741	13.92
606.863	36.92
606.985	40.92
607.108	28.92
607.23	29.92
607.352	40.92
607.474	12.92
607.596	20.92
607.719	11.92
607.841	40.92
607.963	34.92
608.085	25.92
608.207	33.92
608.33	19.92
608.452	11.92
608.574	8.92
608.696	39.92
608.819	10.92
608.941	36.92
609.063	32.92
609.185	23.92
609.307	28.92
609.43	37.92
609.552	27.92
609.674	11.92
609.796	24.92
609.918	36.92
610.041	10.92
610.163	39.92
610.285	6.92
610.407	26.92
610.529	18.92
610.652	31.92
610.774	42.92
610.896	24.92
611.018	33.92
611.14	25.92
611.263	2.92
611.385	25.92
611.507	31.92
611.629	18.92
611.751	32.92
611.873	34.92
611.996	34.92
612.118	30.92
612.24	26.92
612.362	47.92
612.484	39.92
612.607	27.92
612.729	55.92
612.851	35.92
612.973	18.92
613.095	3.92
613.218	22.92
613.34	37.92
613.462	27.92
613.584	26.92
613.706	22.92
613.828	49.92
613.951	26.92
614.073	10.92
614.195	19.92
614.317	39.92
614.439	33.92
614.561	38.92
614.684	39.92
614.806	30.92
614.928	37.92
615.05	38.92
615.172	43.92
615.294	40.92
615.417	23.92
615.539	19.92
615.661	44.92
615.783	28.92
615.905	16.92
616.027	26.92
616.15	40.92
616.272	30.92
616.394	3.92
616.516	25.92
616.638	23.92
616.76	42.92
616.883	32.92
617.005	17.92
617.127	14.92
617.249	27.92
617.371	33.92
617.493	28.92
617.615	43.92
617.738	32.92
617.86	28.92
617.982	26.92
618.104	10.92
618.226	14.92
618.348	10.92
618.471	19.92
618.593	31.92
618.715	18.92
618.837	34.92
618.959	12.92
619.081	36.92
619.203	28.92
619.326	9.92
619.448	37.92
619.57	42.92
619.692	35.92
619.814	48.92
619.936	29.92
620.058	24.92
620.181	22.92
620.303	35.92
620.425	32.92
620.547	6.92
620.669	20.92
620.791	16.92
620.913	10.92
621.036	12.92
621.158	26.92
621.28	16.92
621.402	-9.08
621.524	12.92
621.646	33.92
621.768	9.92
621.891	5.92
622.013	22.92
622.135	14.92
622.257	19.92
622.379	14.92
622.501	11.92
622.623	17.92
622.745	12.92
622.868	24.92
622.99	18.92
623.112	18.92
623.234	16.92
623.356	23.92
623.478	8.92
623.6	43.92
623.722	14.92
623.845	25.92
623.967	34.92
624.089	43.92
624.211	28.92
624.333	23.92
624.455	18.92
624.577	15.92
624.699	17.92
624.822	7.92
624.944	4.92
625.066	13.92
625.188	2.92
625.31	32.92
625.432	31.92
625.554	10.92
625.676	43.92
625.799	34.92
625.921	42.92
626.043	26.92
626.165	14.92
626.287	-0.08
626.409	29.92
626.531	14.92
626.653	24.92
626.775	24.92
626.898	28.92
627.02	39.92
627.142	46.92
627.264	17.92
627.386	10.92
627.508	21.92
627.63	19.92
627.752	37.92
627.874	14.92
627.997	32.92
628.119	19.92
628.241	18.92
628.363	20.92
628.485	35.92
628.607	23.92
628.729	18.92
628.851	25.92
628.973	23.92
629.096	3.92
629.218	37.92
629.34	28.92
629.462	3.92
629.584	22.92
629.706	32.92
629.828	20.92
629.95	19.92
630.072	27.92
630.195	36.92
630.317	18.92
630.439	26.92
630.561	22.92
630.683	2.92
630.805	23.92
630.927	26.92
631.049	34.92
631.171	17.92
631.293	28.92
631.416	39.92
631.538	22.92
631.66	20.92
631.782	28.92
631.904	30.92
632.026	14.92
632.148	20.92
632.27	17.92
632.392	14.92
632.514	4.92
632.637	20.92
632.759	19.92
632.881	18.92
633.003	20.92
633.125	25.92
633.247	4.92
633.369	15.92
633.491	22.92
633.613	23.92
633.735	11.92
633.858	20.92
633.98	34.92
634.102	12.92
634.224	3.92
634.346	12.92
634.468	7.92
634.59	10.92
634.712	0.92
634.834	12.92
634.956	8.92
635.078	9.92
635.201	15.92
635.323	18.92
635.445	1.92
635.567	-5.08
635.689	26.92
635.811	34.92
635.933	23.92
636.055	16.92
636.177	12.92
636.299	26.92
636.421	-10.08
636.544	1.92
636.666	26.92
636.788	32.92
636.91	10.92
637.032	15.92
637.154	16.92
637.276	45.92
637.398	8.92
637.52	30.92
637.642	21.92
637.764	20.92
637.887	10.92
638.009	26.92
638.131	16.92
638.253	10.92
638.375	19.92
638.497	25.92
638.619	-1.08
638.741	9.92
638.863	-9.08
638.985	14.92
639.107	15.92
639.23	14.92
639.352	28.92
639.474	30.92
639.596	28.92
639.718	10.92
639.84	16.92
639.962	24.92
640.084	20.92
640.206	32.92
640.328	1.92
640.45	15.92
640.573	-7.08
640.695	10.92
640.817	1.92
640.939	14.92
641.061	5.92
641.183	27.92
641.305	8.92
641.427	-2.08
641.549	24.92
641.671	28.92
641.793	10.92
641.915	16.92
642.038	4.92
642.16	13.92
642.282	20.92
642.404	7.92
642.526	0.92
642.648	10.92
642.77	7.92
642.892	11.92
643.014	9.92
643.136	11.92
643.258	22.92
643.381	45.92
643.503	34.92
643.625	-4.08
643.747	2.92
643.869	10.92
643.991	24.92
644.113	25.92
644.235	8.92
644.357	12.92
644.479	19.92
644.601	16.92
644.723	31.92
644.846	32.92
644.968	13.92
645.09	14.92
645.212	10.92
645.334	33.92
645.456	24.92
645.578	13.92
645.7	13.92
645.822	16.92
645.944	23.92
646.066	18.92
646.188	17.92
646.311	35.92
646.433	37.92
646.555	37.92
646.677	25.92
646.799	27.92
646.921	28.92
647.043	28.92
647.165	3.92
647.287	10.92
647.409	-6.08
647.531	26.92
647.654	12.92
647.776	15.92
647.898	23.92
648.02	14.92
648.142	16.92
648.264	21.92
648.386	16.92
648.508	3.92
648.63	23.92
648.752	8.92
648.874	-8.08
648.997	14.92
649.119	18.92
649.241	8.92
649.363	36.92
649.485	24.92
649.607	6.92
649.729	12.92
649.851	7.92
649.973	9.92
650.095	18.92
650.217	-4.08
650.34	12.92
650.462	23.92
650.584	25.92
650.706	22.92
650.828	22.92
650.95	14.92
651.072	14.92
651.194	-1.08
651.316	10.92
651.438	14.92
651.56	3.92
651.683	-2.08
651.805	15.92
651.927	17.92
652.049	6.92
652.171	7.92
652.293	15.92
652.415	6.92
652.537	-5.08
652.659	15.92
652.781	20.92
652.903	6.92
653.026	34.92
653.148	4.92
653.27	7.92
653.392	18.92
653.514	-4.08
653.636	2.92
653.758	11.92
653.88	7.92
654.002	0.92
654.124	0.92
654.247	-1.08
654.369	12.92
654.491	6.92
654.613	20.92
654.735	5.92
654.857	26.92
654.979	24.92
655.101	8.92
655.223	43.92
655.345	31.92
655.468	16.92
655.59	-6.08
655.712	1.92
655.834	12.92
655.956	26.92
656.078	23.92
656.2	24.92
656.322	2.92
656.444	11.92
656.566	10.92
656.689	-3.08
656.811	2.92
656.933	1.92
657.055	-5.08
657.177	13.92
657.299	12.92
657.421	19.92
657.543	12.92
657.665	12.92
657.787	19.92
657.91	23.92
658.032	9.92
658.154	8.92
658.276	16.92
658.398	-3.08
658.52	14.92
658.642	11.92
658.764	12.92
658.886	-7.08
659.009	2.92
659.131	30.92
659.253	19.92
659.375	19.92
659.497	9.92
659.619	18.92
659.741	8.92
659.863	15.92
659.985	4.92
660.108	24.92
660.23	-5.08
660.352	18.92
660.474	35.92
660.596	9.92
660.718	11.92
660.84	6.92
660.962	17.92
661.084	-11.08
661.207	12.92
661.329	27.92
661.451	0.92
661.573	11.92
661.695	38.92
661.817	27.92
661.939	25.92
662.061	46.92
662.184	11.92
662.306	7.92
662.428	8.92
662.55	31.92
662.672	16.92
662.794	14.92
662.916	17.92
663.038	12.92
663.161	24.92
663.283	27.92
663.405	15.92
663.527	24.92
663.649	9.92
663.771	12.92
663.893	15.92
664.015	22.92
664.138	12.92
664.26	28.92
664.382	14.92
664.504	16.92
664.626	-11.08
664.748	15.92
664.87	0.92
664.992	28.92
665.115	27.92
665.237	17.92
665.359	-7.08
665.481	19.92
665.603	6.92
665.725	8.92
665.847	13.92
665.97	-3.08
666.092	23.92
666.214	29.92
666.336	9.92
666.458	16.92
666.58	34.92
666.702	5.92
666.825	15.92
666.947	6.92
667.069	24.92
667.191	10.92
667.313	22.92
667.435	1.92
667.557	6.92
667.68	-3.08
667.802	9.92
667.924	11.92
668.046	9.92
668.168	24.92
668.29	39.92
668.412	18.92
668.535	27.92
668.657	20.92
668.779	6.92
668.901	10.92
669.023	26.92
669.145	11.92
669.267	23.92
669.39	3.92
669.512	-1.08
669.634	11.92
669.756	27.92
669.878	10.92
670	12.92
670.123	12.92
670.245	38.92
670.367	28.92
670.489	18.92
670.611	11.92
670.733	12.92
670.856	18.92
670.978	19.92
671.1	15.92
671.222	5.92
671.344	12.92
671.466	11.92
671.589	14.92
671.711	7.92
671.833	19.92
671.955	7.92
672.077	1.92
672.199	19.92
672.322	18.92
672.444	16.92
672.566	30.92
672.688	12.92
672.81	16.92
672.932	17.92
673.055	20.92
673.177	14.92
673.299	19.92
673.421	2.92
673.543	19.92
673.665	32.92
673.788	25.92
673.91	-2.08
674.032	-5.08
674.154	10.92
674.276	17.92
674.399	6.92
674.521	-3.08
674.643	6.92
674.765	17.92
674.887	16.92
675.009	2.92
675.132	-8.08
675.254	3.92
675.376	8.92
675.498	0.92
675.62	31.92
675.743	16.92
675.865	9.92
675.987	13.92
676.109	22.92
676.231	26.92
676.354	30.92
676.476	18.92
676.598	28.92
676.72	8.92
676.842	-5.08
676.965	9.92
677.087	8.92
677.209	13.92
677.331	28.92
677.453	16.92
677.576	4.92
677.698	6.92
677.82	19.92
677.942	12.92
678.064	8.92
678.187	14.92
678.309	24.92
678.431	11.92
678.553	15.92
678.675	29.92
678.798	27.92
678.92	9.92
679.042	-6.08
679.164	4.92
679.286	26.92
679.409	13.92
679.531	-15.08
679.653	19.92
679.775	17.92
679.898	-4.08
680.02	-7.08
680.142	4.92
680.264	23.92
680.386	6.92
680.509	6.92
680.631	11.92
680.753	28.92
680.875	6.92
680.998	-4.08
681.12	23.92
681.242	19.92
681.364	10.92
681.486	7.92
681.609	-3.08
681.731	2.92
681.853	-4.08
681.975	9.92
682.098	15.92
682.22	31.92
682.342	20.92
682.464	18.92
682.587	3.92
682.709	6.92
682.831	10.92
682.953	2.92
683.076	-1.08
683.198	18.92
683.32	16.92
683.442	18.92
683.565	23.92
683.687	12.92
683.809	8.92
683.931	-4.08
684.054	20.92
684.176	16.92
684.298	23.92
684.42	15.92
684.543	10.92
684.665	27.92
684.787	-5.08
684.909	11.92
685.032	25.92
685.154	-10.08
685.276	12.92
685.398	13.92
685.521	-8.08
685.643	18.92
685.765	15.92
685.887	27.92
686.01	24.92
686.132	17.92
686.254	19.92
686.377	6.92
686.499	19.92
686.621	14.92
686.743	16.92
686.866	24.92
686.988	20.92
687.11	24.92
687.232	12.92
687.355	0.92
687.477	0.92
687.599	11.92
687.722	14.92
687.844	6.92
687.966	24.92
688.088	-1.08
688.211	14.92
688.333	17.92
688.455	23.92
688.578	26.92
688.7	14.92
688.822	19.92
688.944	6.92
689.067	33.92
689.189	14.92
689.311	-0.08
689.434	14.92
689.556	10.92
689.678	12.92
689.801	6.92
689.923	15.92
690.045	18.92
690.167	27.92
690.29	15.92
690.412	7.92
690.534	16.92
690.657	19.92
690.779	15.92
690.901	30.92
691.024	19.92
691.146	11.92
691.268	9.92
691.391	23.92
691.513	6.92
691.635	11.92
691.758	20.92
691.88	31.92
692.002	25.92
692.125	3.92
692.247	6.92
692.369	5.92
692.492	4.92
692.614	11.92
692.736	11.92
692.859	9.92
692.981	7.92
693.103	9.92
693.226	20.92
693.348	24.92
693.47	22.92
693.593	39.92
693.715	35.92
693.837	30.92
693.96	27.92
694.082	18.92
694.204	20.92
694.327	2.92
694.449	4.92
694.571	15.92
694.694	30.92
694.816	23.92
694.938	15.92
695.061	22.92
695.183	36.92
695.305	17.92
695.428	30.92
695.55	18.92
695.672	24.92
695.795	9.92
695.917	34.92
696.04	19.92
696.162	6.92
696.284	-2.08
696.407	25.92
696.529	12.92
696.651	29.92
696.774	6.92
696.896	18.92
697.019	9.92
697.141	13.92
697.263	23.92
697.386	6.92
697.508	13.92
697.63	19.92
697.753	22.92
697.875	33.92
697.998	6.92
698.12	20.92
698.242	11.92
698.365	9.92
698.487	9.92
698.61	11.92
698.732	22.92
698.854	16.92
698.977	20.92
699.099	7.92
699.221	6.92
699.344	16.92
699.466	24.92
699.589	9.92
699.711	-11.08
699.834	5.92
699.956	23.92
700.078	16.92
700.201	22.92
700.323	23.92
700.446	16.92
700.568	14.92
700.69	12.92
700.813	20.92
700.935	18.92
701.058	18.92
701.18	2.92
701.302	7.92
701.425	3.92
701.547	24.92
701.67	10.92
701.792	17.92
701.915	-0.08
702.037	12.92
702.159	28.92
702.282	30.92
702.404	24.92
702.527	11.92
702.649	20.92
702.772	18.92
702.894	17.92
703.017	14.92
703.139	16.92
703.261	32.92
703.384	18.92
703.506	-8.08
703.629	10.92
703.751	22.92
703.874	2.92
703.996	1.92
704.119	7.92
704.241	24.92
704.364	-4.08
704.486	20.92
704.608	18.92
704.731	15.92
704.853	6.92
704.976	0.92
705.098	18.92
705.221	25.92
705.343	19.92
705.466	24.92
705.588	22.92
705.711	29.92
705.833	8.92
705.956	25.92
706.078	14.92
706.201	-5.08
706.323	6.92
706.446	8.92
