Data from HighRes_mercury_15_13_11_07_2024_HR4C61891__2__15-14-23-386.txt Node

Date: Thu Nov 07 15:14:23 EST 2024
User: crc00042
Spectrometer: HR4C6189
Trigger mode: 4
Integration Time (sec): 1.000000E-1
Scans to average: 1
Electric dark correction enabled: true
Nonlinearity correction enabled: false
Boxcar width: 0
XAxis mode: Wavelengths
Number of Pixels in Spectrum: 3648
>>>>>Begin Spectral Data<<<<<
639.567	-43.08
639.602	-43.08
639.636	-43.08
639.67	-44.08
639.704	-17.08
639.738	-6.08
639.773	4.92
639.807	-13.08
639.841	11.92
639.875	19.92
639.909	7.92
639.943	-17.08
639.978	-16.08
640.012	6.92
640.046	-2.08
640.08	11.92
640.114	-6.08
640.148	-3.08
640.182	-3.08
640.217	-1.08
640.251	20.92
640.285	3.92
640.319	-6.08
640.353	8.92
640.387	23.92
640.421	2.92
640.455	7.92
640.49	3.92
640.524	3.92
640.558	26.92
640.592	11.92
640.626	1.92
640.66	5.92
640.694	3.92
640.728	1.92
640.762	-0.08
640.796	18.92
640.83	28.92
640.865	-1.08
640.899	7.92
640.933	-0.08
640.967	3.92
641.001	10.92
641.035	7.92
641.069	-1.08
641.103	-10.08
641.137	0.92
641.171	-6.08
641.205	26.92
641.239	13.92
641.273	18.92
641.307	15.92
641.341	6.92
641.375	4.92
641.409	5.92
641.443	-3.08
641.477	9.92
641.511	14.92
641.545	-1.08
641.579	10.92
641.614	3.92
641.648	7.92
641.682	-1.08
641.716	-2.08
641.75	13.92
641.784	3.92
641.818	7.92
641.852	10.92
641.886	0.92
641.919	24.92
641.953	19.92
641.987	-1.08
642.021	1.92
642.055	16.92
642.089	12.92
642.123	-3.08
642.157	-1.08
642.191	4.92
642.225	23.92
642.259	-4.08
642.293	14.92
642.327	18.92
642.361	-10.08
642.395	14.92
642.429	10.92
642.463	17.92
642.497	22.92
642.531	16.92
642.565	4.92
642.599	5.92
642.633	-4.08
642.666	19.92
642.7	28.92
642.734	10.92
642.768	-4.08
642.802	8.92
642.836	10.92
642.87	-3.08
642.904	9.92
642.938	7.92
642.972	0.92
643.005	5.92
643.039	29.92
643.073	9.92
643.107	11.92
643.141	8.92
643.175	-7.08
643.209	1.92
643.243	-1.08
643.276	4.92
643.31	4.92
643.344	4.92
643.378	2.92
643.412	7.92
643.446	-9.08
643.48	3.92
643.513	13.92
643.547	3.92
643.581	2.92
643.615	18.92
643.649	21.92
643.683	11.92
643.716	4.92
643.75	1.92
643.784	-11.08
643.818	21.92
643.852	-1.08
643.886	10.92
643.919	4.92
643.953	5.92
643.987	19.92
644.021	10.92
644.055	-2.08
644.088	14.92
644.122	3.92
644.156	5.92
644.19	13.92
644.224	29.92
644.257	16.92
644.291	16.92
644.325	8.92
644.359	7.92
644.392	13.92
644.426	8.92
644.46	17.92
644.494	9.92
644.527	-9.08
644.561	12.92
644.595	-4.08
644.629	-4.08
644.662	10.92
644.696	23.92
644.73	3.92
644.764	5.92
644.797	10.92
644.831	2.92
644.865	19.92
644.899	15.92
644.932	18.92
644.966	4.92
645	21.92
645.033	17.92
645.067	-9.08
645.101	-3.08
645.135	-9.08
645.168	-14.08
645.202	-6.08
645.236	5.92
645.269	3.92
645.303	-5.08
645.337	-8.08
645.37	-6.08
645.404	8.92
645.438	-2.08
645.471	1.92
645.505	7.92
645.539	9.92
645.572	-0.08
645.606	8.92
645.64	13.92
645.673	-5.08
645.707	9.92
645.741	0.92
645.774	-16.08
645.808	-6.08
645.842	-3.08
645.875	9.92
645.909	7.92
645.943	-15.08
645.976	-1.08
646.01	24.92
646.043	12.92
646.077	7.92
646.111	9.92
646.144	14.92
646.178	9.92
646.212	3.92
646.245	7.92
646.279	22.92
646.312	6.92
646.346	10.92
646.38	6.92
646.413	12.92
646.447	16.92
646.48	-0.08
646.514	12.92
646.547	4.92
646.581	12.92
646.615	7.92
646.648	-0.08
646.682	17.92
646.715	-0.08
646.749	4.92
646.782	7.92
646.816	16.92
646.85	13.92
646.883	9.92
646.917	14.92
646.95	5.92
646.984	-2.08
647.017	11.92
647.051	8.92
647.084	5.92
647.118	2.92
647.151	8.92
647.185	4.92
647.218	-23.08
647.252	-7.08
647.285	-12.08
647.319	-7.08
647.353	1.92
647.386	24.92
647.42	28.92
647.453	17.92
647.487	19.92
647.52	14.92
647.553	7.92
647.587	5.92
647.62	-9.08
647.654	6.92
647.687	-1.08
647.721	1.92
647.754	8.92
647.788	21.92
647.821	-6.08
647.855	6.92
647.888	12.92
647.922	15.92
647.955	20.92
647.989	28.92
648.022	3.92
648.055	14.92
648.089	9.92
648.122	30.92
648.156	-1.08
648.189	6.92
648.223	6.92
648.256	13.92
648.29	7.92
648.323	1.92
648.356	2.92
648.39	3.92
648.423	8.92
648.457	-3.08
648.49	12.92
648.523	23.92
648.557	8.92
648.59	-8.08
648.624	13.92
648.657	7.92
648.69	15.92
648.724	12.92
648.757	24.92
648.791	18.92
648.824	4.92
648.857	27.92
648.891	18.92
648.924	7.92
648.957	14.92
648.991	-3.08
649.024	22.92
649.057	-9.08
649.091	13.92
649.124	20.92
649.158	1.92
649.191	19.92
649.224	9.92
649.258	-8.08
649.291	3.92
649.324	5.92
649.358	17.92
649.391	0.92
649.424	-2.08
649.458	8.92
649.491	6.92
649.524	5.92
649.557	-1.08
649.591	-26.08
649.624	19.92
649.657	4.92
649.691	2.92
649.724	12.92
649.757	-3.08
649.791	-7.08
649.824	5.92
649.857	16.92
649.89	3.92
649.924	-2.08
649.957	-9.08
649.99	7.92
650.023	6.92
650.057	1.92
650.09	-1.08
650.123	7.92
650.157	26.92
650.19	21.92
650.223	6.92
650.256	3.92
650.29	5.92
650.323	11.92
650.356	3.92
650.389	-6.08
650.423	9.92
650.456	8.92
650.489	-4.08
650.522	0.92
650.555	15.92
650.589	12.92
650.622	-3.08
650.655	13.92
650.688	13.92
650.721	-6.08
650.755	2.92
650.788	8.92
650.821	-2.08
650.854	8.92
650.887	19.92
650.921	8.92
650.954	-0.08
650.987	3.92
651.02	-3.08
651.053	-8.08
651.087	-8.08
651.12	18.92
651.153	9.92
651.186	9.92
651.219	2.92
651.252	9.92
651.286	14.92
651.319	12.92
651.352	4.92
651.385	-4.08
651.418	3.92
651.451	5.92
651.484	8.92
651.518	-0.08
651.551	29.92
651.584	-3.08
651.617	12.92
651.65	10.92
651.683	-2.08
651.716	2.92
651.749	-5.08
651.783	1.92
651.816	12.92
651.849	17.92
651.882	2.92
651.915	-7.08
651.948	9.92
651.981	6.92
652.014	-2.08
652.047	1.92
652.08	2.92
652.114	-7.08
652.147	-10.08
652.18	11.92
652.213	27.92
652.246	11.92
652.279	6.92
652.312	6.92
652.345	6.92
652.378	14.92
652.411	21.92
652.444	-2.08
652.477	7.92
652.51	1.92
652.543	-5.08
652.576	14.92
652.609	-6.08
652.642	10.92
652.675	15.92
652.709	9.92
652.742	14.92
652.775	12.92
652.808	18.92
652.841	15.92
652.874	0.92
652.907	-10.08
652.94	-24.08
652.973	-1.08
653.006	-0.08
653.039	7.92
653.072	1.92
653.105	9.92
653.138	-15.08
653.171	-11.08
653.204	-2.08
653.237	-2.08
653.27	9.92
653.303	18.92
653.336	5.92
653.368	4.92
653.401	1.92
653.434	-4.08
653.467	4.92
653.5	-3.08
653.533	3.92
653.566	1.92
653.599	7.92
653.632	5.92
653.665	13.92
653.698	0.92
653.731	-16.08
653.764	8.92
653.797	15.92
653.83	6.92
653.863	10.92
653.896	-1.08
653.929	8.92
653.961	20.92
653.994	23.92
654.027	7.92
654.06	5.92
654.093	15.92
654.126	8.92
654.159	-21.08
654.192	10.92
654.225	5.92
654.258	3.92
654.29	4.92
654.323	3.92
654.356	10.92
654.389	6.92
654.422	12.92
654.455	6.92
654.488	14.92
654.521	4.92
654.553	-1.08
654.586	14.92
654.619	-1.08
654.652	8.92
654.685	9.92
654.718	9.92
654.751	14.92
654.783	5.92
654.816	24.92
654.849	-12.08
654.882	1.92
654.915	1.92
654.948	7.92
654.98	1.92
655.013	4.92
655.046	1.92
655.079	-1.08
655.112	3.92
655.144	-6.08
655.177	-0.08
655.21	21.92
655.243	25.92
655.276	16.92
655.308	8.92
655.341	-11.08
655.374	-1.08
655.407	2.92
655.44	4.92
655.472	5.92
655.505	17.92
655.538	3.92
655.571	3.92
655.603	3.92
655.636	6.92
655.669	4.92
655.702	11.92
655.734	-9.08
655.767	-0.08
655.8	5.92
655.833	9.92
655.865	18.92
655.898	6.92
655.931	-6.08
655.964	-6.08
655.996	-10.08
656.029	5.92
656.062	-2.08
656.095	13.92
656.127	-10.08
656.16	-1.08
656.193	10.92
656.225	4.92
656.258	9.92
656.291	-5.08
656.324	10.92
656.356	10.92
656.389	9.92
656.422	13.92
656.454	-9.08
656.487	1.92
656.52	11.92
656.552	3.92
656.585	1.92
656.618	4.92
656.65	26.92
656.683	0.92
656.716	-12.08
656.748	2.92
656.781	-8.08
656.814	-15.08
656.846	10.92
656.879	3.92
656.912	-4.08
656.944	4.92
656.977	4.92
657.01	-2.08
657.042	18.92
657.075	20.92
657.108	-19.08
657.14	-5.08
657.173	7.92
657.205	25.92
657.238	20.92
657.271	13.92
657.303	-5.08
657.336	5.92
657.369	5.92
657.401	-2.08
657.434	-0.08
657.466	18.92
657.499	4.92
657.532	-0.08
657.564	9.92
657.597	4.92
657.629	0.92
657.662	-5.08
657.694	-15.08
657.727	0.92
657.76	8.92
657.792	10.92
657.825	4.92
657.857	9.92
657.89	14.92
657.922	13.92
657.955	-4.08
657.987	0.92
658.02	16.92
658.053	18.92
658.085	0.92
658.118	18.92
658.15	12.92
658.183	15.92
658.215	-1.08
658.248	6.92
658.28	4.92
658.313	11.92
658.345	14.92
658.378	6.92
658.41	6.92
658.443	14.92
658.475	13.92
658.508	7.92
658.54	14.92
658.573	-2.08
658.605	10.92
658.638	6.92
658.67	9.92
658.703	15.92
658.735	-1.08
658.768	5.92
658.8	1.92
658.833	18.92
658.865	9.92
658.898	-2.08
658.93	-6.08
658.963	-2.08
658.995	-8.08
659.028	2.92
659.06	-7.08
659.092	1.92
659.125	-3.08
659.157	13.92
659.19	-0.08
659.222	6.92
659.255	29.92
659.287	11.92
659.32	2.92
659.352	2.92
659.384	13.92
659.417	-0.08
659.449	15.92
659.482	19.92
659.514	-16.08
659.546	-8.08
659.579	-2.08
659.611	5.92
659.644	-4.08
659.676	3.92
659.708	-4.08
659.741	7.92
659.773	21.92
659.806	-2.08
659.838	-2.08
659.87	-3.08
659.903	-18.08
659.935	7.92
659.967	10.92
660	2.92
660.032	-24.08
660.065	28.92
660.097	9.92
660.129	1.92
660.162	2.92
660.194	-7.08
660.226	10.92
660.259	3.92
660.291	0.92
660.323	10.92
660.356	9.92
660.388	1.92
660.42	19.92
660.453	11.92
660.485	-0.08
660.517	1.92
660.55	11.92
660.582	-2.08
660.614	10.92
660.647	-2.08
660.679	-2.08
660.711	0.92
660.743	-4.08
660.776	-3.08
660.808	2.92
660.84	-10.08
660.873	0.92
660.905	14.92
660.937	1.92
660.969	-4.08
661.002	6.92
661.034	21.92
661.066	12.92
661.099	9.92
661.131	6.92
661.163	7.92
661.195	22.92
661.228	18.92
661.26	12.92
661.292	12.92
661.324	10.92
661.357	6.92
661.389	1.92
661.421	2.92
661.453	16.92
661.485	11.92
661.518	13.92
661.55	-16.08
661.582	1.92
661.614	9.92
661.647	5.92
661.679	3.92
661.711	11.92
661.743	13.92
661.775	-10.08
661.808	-8.08
661.84	4.92
661.872	12.92
661.904	0.92
661.936	4.92
661.969	1.92
662.001	-2.08
662.033	2.92
662.065	-3.08
662.097	14.92
662.129	4.92
662.162	6.92
662.194	5.92
662.226	1.92
662.258	6.92
662.29	-10.08
662.322	-14.08
662.355	-1.08
662.387	41.92
662.419	16.92
662.451	13.92
662.483	17.92
662.515	3.92
662.547	4.92
662.58	1.92
662.612	-6.08
662.644	9.92
662.676	8.92
662.708	16.92
662.74	-8.08
662.772	-10.08
662.804	17.92
662.836	8.92
662.869	-3.08
662.901	2.92
662.933	9.92
662.965	24.92
662.997	14.92
663.029	-11.08
663.061	-1.08
663.093	-7.08
663.125	12.92
663.157	13.92
663.189	20.92
663.221	13.92
663.254	9.92
663.286	-1.08
663.318	2.92
663.35	-7.08
663.382	3.92
663.414	3.92
663.446	14.92
663.478	-10.08
663.51	30.92
663.542	-0.08
663.574	4.92
663.606	3.92
663.638	-0.08
663.67	2.92
663.702	4.92
663.734	1.92
663.766	5.92
663.798	5.92
663.83	14.92
663.862	6.92
663.894	9.92
663.926	-0.08
663.958	21.92
663.99	1.92
664.022	-2.08
664.054	1.92
664.086	-3.08
664.118	-5.08
664.15	-4.08
664.182	5.92
664.214	10.92
664.246	28.92
664.278	13.92
664.31	35.92
664.342	14.92
664.374	0.92
664.406	15.92
664.438	-0.08
664.47	4.92
664.502	9.92
664.534	10.92
664.566	4.92
664.598	8.92
664.63	-1.08
664.662	5.92
664.693	-6.08
664.725	-1.08
664.757	4.92
664.789	3.92
664.821	16.92
664.853	13.92
664.885	3.92
664.917	-3.08
664.949	25.92
664.981	18.92
665.013	9.92
665.045	-3.08
665.076	15.92
665.108	23.92
665.14	5.92
665.172	16.92
665.204	3.92
665.236	-3.08
665.268	8.92
665.3	-2.08
665.331	-16.08
665.363	15.92
665.395	7.92
665.427	-10.08
665.459	0.92
665.491	0.92
665.523	5.92
665.555	2.92
665.586	13.92
665.618	5.92
665.65	-18.08
665.682	16.92
665.714	9.92
665.746	-8.08
665.777	2.92
665.809	0.92
665.841	-2.08
665.873	-6.08
665.905	15.92
665.937	21.92
665.968	17.92
666	4.92
666.032	2.92
666.064	-3.08
666.096	2.92
666.127	16.92
666.159	15.92
666.191	19.92
666.223	12.92
666.255	34.92
666.286	10.92
666.318	4.92
666.35	11.92
666.382	-0.08
666.413	-3.08
666.445	-13.08
666.477	-15.08
666.509	-9.08
666.54	1.92
666.572	-8.08
666.604	2.92
666.636	-4.08
666.667	33.92
666.699	26.92
666.731	2.92
666.763	13.92
666.794	20.92
666.826	9.92
666.858	1.92
666.89	6.92
666.921	13.92
666.953	7.92
666.985	21.92
667.017	18.92
667.048	10.92
667.08	0.92
667.112	-18.08
667.143	-5.08
667.175	9.92
667.207	4.92
667.238	-3.08
667.27	2.92
667.302	2.92
667.334	0.92
667.365	22.92
667.397	3.92
667.429	3.92
667.46	12.92
667.492	11.92
667.524	10.92
667.555	-6.08
667.587	-0.08
667.619	-9.08
667.65	-6.08
667.682	5.92
667.714	12.92
667.745	-5.08
667.777	0.92
667.808	16.92
667.84	8.92
667.872	-2.08
667.903	14.92
667.935	4.92
667.967	6.92
667.998	-9.08
668.03	-4.08
668.061	14.92
668.093	13.92
668.125	18.92
668.156	14.92
668.188	0.92
668.22	-4.08
668.251	20.92
668.283	3.92
668.314	19.92
668.346	22.92
668.377	31.92
668.409	19.92
668.441	23.92
668.472	8.92
668.504	13.92
668.535	23.92
668.567	13.92
668.599	14.92
668.63	0.92
668.662	13.92
668.693	11.92
668.725	7.92
668.756	14.92
668.788	13.92
668.819	-2.08
668.851	-1.08
668.882	-8.08
668.914	1.92
668.946	4.92
668.977	-3.08
669.009	-7.08
669.04	-4.08
669.072	3.92
669.103	8.92
669.135	12.92
669.166	9.92
669.198	3.92
669.229	8.92
669.261	15.92
669.292	2.92
669.324	-4.08
669.355	8.92
669.387	-6.08
669.418	-9.08
669.45	-10.08
669.481	6.92
669.513	-2.08
669.544	4.92
669.576	-3.08
669.607	18.92
669.639	37.92
669.67	7.92
669.701	-9.08
669.733	-8.08
669.764	-9.08
669.796	-6.08
669.827	-20.08
669.859	1.92
669.89	16.92
669.922	15.92
669.953	-0.08
669.985	23.92
670.016	24.92
670.047	12.92
670.079	-0.08
670.11	7.92
670.142	10.92
670.173	16.92
670.204	13.92
670.236	1.92
670.267	-13.08
670.299	4.92
670.33	-5.08
670.362	-6.08
670.393	-13.08
670.424	8.92
670.456	-12.08
670.487	2.92
670.518	-1.08
670.55	1.92
670.581	1.92
670.613	10.92
670.644	-1.08
670.675	-4.08
670.707	-8.08
670.738	6.92
670.769	9.92
670.801	-5.08
670.832	12.92
670.864	2.92
670.895	4.92
670.926	16.92
670.958	9.92
670.989	10.92
671.02	2.92
671.052	2.92
671.083	11.92
671.114	12.92
671.146	8.92
671.177	-1.08
671.208	-11.08
671.24	-7.08
671.271	7.92
671.302	15.92
671.333	-13.08
671.365	2.92
671.396	-1.08
671.427	1.92
671.459	-0.08
671.49	24.92
671.521	22.92
671.553	4.92
671.584	3.92
671.615	-10.08
671.646	11.92
671.678	6.92
671.709	-8.08
671.74	-4.08
671.771	-0.08
671.803	-8.08
671.834	13.92
671.865	1.92
671.896	5.92
671.928	12.92
671.959	3.92
671.99	-2.08
672.021	-5.08
672.053	-5.08
672.084	27.92
672.115	-2.08
672.146	-14.08
672.178	2.92
672.209	-6.08
672.24	6.92
672.271	20.92
672.303	-6.08
672.334	-5.08
672.365	5.92
672.396	16.92
672.427	1.92
672.459	1.92
672.49	15.92
672.521	10.92
672.552	8.92
672.583	7.92
672.615	20.92
672.646	30.92
672.677	-3.08
672.708	-6.08
672.739	12.92
672.77	25.92
672.802	6.92
672.833	6.92
672.864	-1.08
672.895	-6.08
672.926	-4.08
672.957	-25.08
672.989	-5.08
673.02	0.92
673.051	3.92
673.082	12.92
673.113	5.92
673.144	19.92
673.175	12.92
673.206	3.92
673.238	6.92
673.269	2.92
673.3	-13.08
673.331	3.92
673.362	18.92
673.393	9.92
673.424	13.92
673.455	23.92
673.487	9.92
673.518	25.92
673.549	-1.08
673.58	1.92
673.611	11.92
673.642	20.92
673.673	2.92
673.704	-9.08
673.735	6.92
673.766	-6.08
673.797	3.92
673.828	1.92
673.86	-0.08
673.891	5.92
673.922	-6.08
673.953	-1.08
673.984	12.92
674.015	16.92
674.046	12.92
674.077	11.92
674.108	-11.08
674.139	3.92
674.17	-0.08
674.201	2.92
674.232	-3.08
674.263	-4.08
674.294	-1.08
674.325	-11.08
674.356	2.92
674.387	15.92
674.418	-0.08
674.449	-6.08
674.48	-8.08
674.511	-2.08
674.542	0.92
674.573	-3.08
674.604	-3.08
674.635	2.92
674.666	7.92
674.697	1.92
674.728	5.92
674.759	-4.08
674.79	-4.08
674.821	2.92
674.852	19.92
674.883	8.92
674.914	-0.08
674.945	2.92
674.976	17.92
675.007	-8.08
675.038	-13.08
675.069	-19.08
675.1	9.92
675.131	5.92
675.162	-23.08
675.193	1.92
675.224	-7.08
675.254	5.92
675.285	12.92
675.316	10.92
675.347	-7.08
675.378	0.92
675.409	-5.08
675.44	4.92
675.471	15.92
675.502	2.92
675.533	-1.08
675.564	5.92
675.595	8.92
675.625	13.92
675.656	11.92
675.687	15.92
675.718	-12.08
675.749	4.92
675.78	2.92
675.811	4.92
675.842	14.92
675.873	8.92
675.903	2.92
675.934	-2.08
675.965	-11.08
675.996	-15.08
676.027	14.92
676.058	-3.08
676.089	-10.08
676.119	-1.08
676.15	-1.08
676.181	16.92
676.212	8.92
676.243	16.92
676.274	3.92
676.304	13.92
676.335	2.92
676.366	5.92
676.397	-6.08
676.428	7.92
676.459	10.92
676.489	1.92
676.52	-0.08
676.551	14.92
676.582	-9.08
676.613	-2.08
676.643	-6.08
676.674	9.92
676.705	15.92
676.736	13.92
676.767	10.92
676.797	21.92
676.828	14.92
676.859	-0.08
676.89	4.92
676.92	-0.08
676.951	7.92
676.982	7.92
677.013	-16.08
677.044	4.92
677.074	17.92
677.105	10.92
677.136	5.92
677.167	5.92
677.197	16.92
677.228	11.92
677.259	0.92
677.289	3.92
677.32	1.92
677.351	5.92
677.382	2.92
677.412	6.92
677.443	-3.08
677.474	4.92
677.505	-23.08
677.535	4.92
677.566	3.92
677.597	1.92
677.627	8.92
677.658	-9.08
677.689	1.92
677.72	18.92
677.75	8.92
677.781	-7.08
677.812	-4.08
677.842	14.92
677.873	1.92
677.904	17.92
677.934	13.92
677.965	-6.08
677.996	-11.08
678.026	-6.08
678.057	9.92
678.088	-12.08
678.118	14.92
678.149	-21.08
678.18	12.92
678.21	6.92
678.241	-7.08
678.272	5.92
678.302	17.92
678.333	14.92
678.363	14.92
678.394	11.92
678.425	7.92
678.455	4.92
678.486	17.92
678.517	7.92
678.547	10.92
678.578	5.92
678.608	5.92
678.639	15.92
678.67	-3.08
678.7	9.92
678.731	-3.08
678.761	18.92
678.792	8.92
678.823	-2.08
678.853	0.92
678.884	-2.08
678.914	3.92
678.945	5.92
678.975	-2.08
679.006	-0.08
679.037	0.92
679.067	21.92
679.098	9.92
679.128	-7.08
679.159	1.92
679.189	4.92
679.22	-2.08
679.25	19.92
679.281	6.92
679.312	-4.08
679.342	19.92
679.373	36.92
679.403	13.92
679.434	17.92
679.464	2.92
679.495	9.92
679.525	6.92
679.556	-9.08
679.586	18.92
679.617	8.92
679.647	9.92
679.678	-3.08
679.708	5.92
679.739	6.92
679.769	14.92
679.8	3.92
679.83	8.92
679.861	16.92
679.891	-9.08
679.922	-8.08
679.952	2.92
679.983	14.92
680.013	1.92
680.044	-12.08
680.074	8.92
680.105	6.92
680.135	13.92
680.165	17.92
680.196	10.92
680.226	3.92
680.257	10.92
680.287	12.92
680.318	8.92
680.348	1.92
680.379	21.92
680.409	14.92
680.439	7.92
680.47	8.92
680.5	1.92
680.531	5.92
680.561	5.92
680.592	16.92
680.622	17.92
680.652	10.92
680.683	12.92
680.713	7.92
680.744	3.92
680.774	6.92
680.804	44.92
680.835	4.92
680.865	-1.08
680.896	2.92
680.926	13.92
680.956	4.92
680.987	6.92
681.017	-5.08
681.047	1.92
681.078	-15.08
681.108	-3.08
681.139	3.92
681.169	5.92
681.199	9.92
681.23	27.92
681.26	11.92
681.29	1.92
681.321	-5.08
681.351	1.92
681.381	2.92
681.412	23.92
681.442	22.92
681.472	17.92
681.503	3.92
681.533	4.92
681.563	13.92
681.594	5.92
681.624	19.92
681.654	7.92
681.685	4.92
681.715	8.92
681.745	-4.08
681.775	-0.08
681.806	5.92
681.836	-9.08
681.866	-13.08
681.897	-12.08
681.927	-7.08
681.957	-11.08
681.987	-5.08
682.018	5.92
682.048	14.92
682.078	9.92
682.109	28.92
682.139	7.92
682.169	7.92
682.199	-8.08
682.23	1.92
682.26	-1.08
682.29	4.92
682.32	2.92
682.351	-7.08
682.381	-4.08
682.411	6.92
682.441	-12.08
682.472	-3.08
682.502	-1.08
682.532	0.92
682.562	21.92
682.592	17.92
682.623	5.92
682.653	10.92
682.683	7.92
682.713	7.92
682.743	-2.08
682.774	2.92
682.804	12.92
682.834	23.92
682.864	6.92
682.894	1.92
682.925	10.92
682.955	4.92
682.985	-4.08
683.015	8.92
683.045	15.92
683.076	-4.08
683.106	-2.08
683.136	8.92
683.166	23.92
683.196	-3.08
683.226	0.92
683.257	-0.08
683.287	14.92
683.317	-2.08
683.347	-4.08
683.377	2.92
683.407	21.92
683.437	7.92
683.468	-4.08
683.498	2.92
683.528	10.92
683.558	-0.08
683.588	-3.08
683.618	-1.08
683.648	5.92
683.678	-4.08
683.708	11.92
683.739	2.92
683.769	7.92
683.799	19.92
683.829	1.92
683.859	14.92
683.889	18.92
683.919	5.92
683.949	5.92
683.979	4.92
684.009	4.92
684.039	-6.08
684.07	-3.08
684.1	23.92
684.13	18.92
684.16	1.92
684.19	22.92
684.22	7.92
684.25	23.92
684.28	-1.08
684.31	40.92
684.34	20.92
684.37	9.92
684.4	4.92
684.43	5.92
684.46	4.92
684.49	3.92
684.52	3.92
684.55	20.92
684.58	4.92
684.61	-14.08
684.64	14.92
684.67	17.92
684.7	7.92
684.73	4.92
684.76	6.92
684.79	25.92
684.82	8.92
684.85	-2.08
684.88	-0.08
684.91	-7.08
684.94	13.92
684.97	0.92
685	4.92
685.03	-21.08
685.06	-8.08
685.09	2.92
685.12	15.92
685.15	-1.08
685.18	18.92
685.21	4.92
685.24	14.92
685.27	13.92
685.3	-1.08
685.33	14.92
685.36	-1.08
685.39	-6.08
685.42	-17.08
685.45	-11.08
685.48	0.92
685.51	-4.08
685.54	15.92
685.569	17.92
685.599	7.92
685.629	10.92
685.659	1.92
685.689	-2.08
685.719	10.92
685.749	1.92
685.779	8.92
685.809	8.92
685.839	19.92
685.869	-3.08
685.898	8.92
685.928	13.92
685.958	-8.08
685.988	17.92
686.018	10.92
686.048	17.92
686.078	18.92
686.108	8.92
686.137	19.92
686.167	10.92
686.197	-12.08
686.227	5.92
686.257	21.92
686.287	13.92
686.317	13.92
686.346	1.92
686.376	0.92
686.406	-8.08
686.436	6.92
686.466	9.92
686.496	21.92
686.525	10.92
686.555	-3.08
686.585	8.92
686.615	26.92
686.645	8.92
686.675	5.92
686.704	6.92
686.734	14.92
686.764	-2.08
686.794	15.92
686.824	15.92
686.853	9.92
686.883	10.92
686.913	28.92
686.943	4.92
686.973	2.92
687.002	1.92
687.032	10.92
687.062	3.92
687.092	17.92
687.121	4.92
687.151	5.92
687.181	-2.08
687.211	8.92
687.24	7.92
687.27	6.92
687.3	14.92
687.33	2.92
687.359	-6.08
687.389	19.92
687.419	10.92
687.449	-4.08
687.478	-4.08
687.508	13.92
687.538	10.92
687.568	5.92
687.597	-6.08
687.627	11.92
687.657	4.92
687.686	5.92
687.716	25.92
687.746	-7.08
687.776	-12.08
687.805	0.92
687.835	12.92
687.865	35.92
687.894	11.92
687.924	3.92
687.954	-1.08
687.983	-1.08
688.013	14.92
688.043	16.92
688.072	4.92
688.102	26.92
688.132	8.92
688.161	12.92
688.191	3.92
688.221	16.92
688.25	-4.08
688.28	4.92
688.31	14.92
688.339	0.92
688.369	6.92
688.399	-17.08
688.428	5.92
688.458	26.92
688.488	12.92
688.517	11.92
688.547	13.92
688.576	24.92
688.606	22.92
688.636	1.92
688.665	10.92
688.695	10.92
688.725	7.92
688.754	17.92
688.784	11.92
688.813	17.92
688.843	7.92
688.873	2.92
688.902	-4.08
688.932	-10.08
688.961	13.92
688.991	31.92
689.02	12.92
689.05	-4.08
689.08	8.92
689.109	18.92
689.139	13.92
689.168	29.92
689.198	0.92
689.227	-6.08
689.257	10.92
689.287	15.92
689.316	13.92
689.346	2.92
689.375	-2.08
689.405	-3.08
689.434	12.92
689.464	5.92
689.493	1.92
689.523	11.92
689.552	6.92
689.582	2.92
689.611	3.92
689.641	10.92
689.67	13.92
689.7	12.92
689.73	10.92
689.759	12.92
689.789	19.92
689.818	5.92
689.848	2.92
689.877	18.92
689.906	-4.08
689.936	-6.08
689.965	3.92
689.995	10.92
690.024	28.92
690.054	4.92
690.083	5.92
690.113	-0.08
690.142	-2.08
690.172	8.92
690.201	12.92
690.231	5.92
690.26	6.92
690.29	6.92
690.319	5.92
690.348	-3.08
690.378	9.92
690.407	5.92
690.437	-10.08
690.466	-1.08
690.496	0.92
690.525	12.92
690.555	-7.08
690.584	-1.08
690.613	-2.08
690.643	11.92
690.672	10.92
690.702	11.92
690.731	2.92
690.76	33.92
690.79	65.92
690.819	49.92
690.849	48.92
690.878	38.92
690.907	22.92
690.937	32.92
690.966	12.92
690.996	1.92
691.025	-4.08
691.054	7.92
691.084	1.92
691.113	12.92
691.142	18.92
691.172	11.92
691.201	33.92
691.23	13.92
691.26	20.92
691.289	0.92
691.319	9.92
691.348	1.92
691.377	23.92
691.407	19.92
691.436	12.92
691.465	1.92
691.495	4.92
691.524	-10.08
691.553	1.92
691.583	2.92
691.612	6.92
691.641	25.92
691.67	4.92
691.7	14.92
691.729	4.92
691.758	-7.08
691.788	3.92
691.817	-3.08
691.846	-2.08
691.876	4.92
691.905	3.92
691.934	2.92
691.963	1.92
691.993	18.92
692.022	0.92
692.051	5.92
692.081	19.92
692.11	25.92
692.139	16.92
692.168	20.92
692.198	22.92
692.227	9.92
692.256	7.92
692.285	6.92
692.315	11.92
692.344	17.92
692.373	4.92
692.402	-14.08
692.432	5.92
692.461	5.92
692.49	9.92
692.519	2.92
692.548	7.92
692.578	19.92
692.607	5.92
692.636	-6.08
692.665	16.92
692.694	6.92
692.724	7.92
692.753	19.92
692.782	19.92
692.811	-0.08
692.84	6.92
692.87	4.92
692.899	2.92
692.928	21.92
692.957	24.92
692.986	21.92
693.016	9.92
693.045	23.92
693.074	11.92
693.103	-2.08
693.132	18.92
693.161	9.92
693.191	0.92
693.22	-5.08
693.249	0.92
693.278	3.92
693.307	29.92
693.336	-2.08
693.365	13.92
693.395	14.92
693.424	15.92
693.453	29.92
693.482	-6.08
693.511	8.92
693.54	13.92
693.569	18.92
693.598	1.92
693.628	19.92
693.657	13.92
693.686	26.92
693.715	26.92
693.744	15.92
693.773	27.92
693.802	3.92
693.831	2.92
693.86	-3.08
693.889	-0.08
693.919	-2.08
693.948	-3.08
693.977	0.92
694.006	5.92
694.035	-2.08
694.064	-10.08
694.093	-10.08
694.122	8.92
694.151	-0.08
694.18	9.92
694.209	29.92
694.238	28.92
694.267	29.92
694.296	8.92
694.325	15.92
694.354	10.92
694.383	29.92
694.412	5.92
694.441	-2.08
694.471	-10.08
694.5	0.92
694.529	13.92
694.558	19.92
694.587	21.92
694.616	3.92
694.645	12.92
694.674	18.92
694.703	1.92
694.732	-5.08
694.761	12.92
694.79	22.92
694.819	-9.08
694.848	10.92
694.877	24.92
694.906	33.92
694.935	3.92
694.963	20.92
694.992	-1.08
695.021	-5.08
695.05	18.92
695.079	-1.08
695.108	5.92
695.137	22.92
695.166	11.92
695.195	11.92
695.224	21.92
695.253	3.92
695.282	6.92
695.311	-1.08
695.34	-1.08
695.369	22.92
695.398	22.92
695.427	27.92
695.456	8.92
695.485	13.92
695.513	-3.08
695.542	9.92
695.571	5.92
695.6	15.92
695.629	2.92
695.658	12.92
695.687	6.92
695.716	-1.08
695.745	11.92
695.774	-3.08
695.802	16.92
695.831	7.92
695.86	14.92
695.889	11.92
695.918	18.92
695.947	9.92
695.976	0.92
696.005	-1.08
696.033	6.92
696.062	15.92
696.091	17.92
696.12	15.92
696.149	24.92
696.178	11.92
696.207	10.92
696.235	-6.08
696.264	4.92
696.293	12.92
696.322	12.92
696.351	22.92
696.38	3.92
696.408	6.92
696.437	1.92
696.466	10.92
696.495	17.92
696.524	4.92
696.553	11.92
696.581	17.92
696.61	-6.08
696.639	1.92
696.668	4.92
696.697	12.92
696.725	25.92
696.754	15.92
696.783	-1.08
696.812	5.92
696.84	8.92
696.869	8.92
696.898	7.92
696.927	-3.08
696.956	1.92
696.984	2.92
697.013	10.92
697.042	1.92
697.071	0.92
697.099	19.92
697.128	12.92
697.157	20.92
697.186	9.92
697.214	7.92
697.243	-2.08
697.272	1.92
697.301	6.92
697.329	8.92
697.358	6.92
697.387	24.92
697.415	-0.08
697.444	-2.08
697.473	6.92
697.502	0.92
697.53	18.92
697.559	3.92
697.588	15.92
697.616	3.92
697.645	5.92
697.674	15.92
697.703	19.92
697.731	19.92
697.76	1.92
697.789	5.92
697.817	16.92
697.846	30.92
697.875	1.92
697.903	21.92
697.932	16.92
697.961	2.92
697.989	8.92
698.018	2.92
698.047	14.92
698.075	9.92
698.104	1.92
698.133	10.92
698.161	6.92
698.19	19.92
698.218	-3.08
698.247	-3.08
698.276	5.92
698.304	11.92
698.333	5.92
698.362	6.92
698.39	12.92
698.419	17.92
698.447	2.92
698.476	6.92
698.505	12.92
698.533	16.92
698.562	21.92
698.591	6.92
698.619	-0.08
698.648	15.92
698.676	3.92
698.705	-2.08
698.733	-12.08
698.762	17.92
698.791	11.92
698.819	-0.08
698.848	9.92
698.876	9.92
698.905	14.92
698.933	13.92
698.962	6.92
698.991	13.92
699.019	14.92
699.048	11.92
699.076	9.92
699.105	-11.08
699.133	3.92
699.162	4.92
699.19	23.92
699.219	3.92
699.248	6.92
699.276	3.92
699.305	0.92
699.333	26.92
699.362	19.92
699.39	5.92
699.419	8.92
699.447	26.92
699.476	29.92
699.504	4.92
699.533	13.92
699.561	-8.08
699.59	11.92
699.618	2.92
699.647	5.92
699.675	19.92
699.704	25.92
699.732	2.92
699.761	21.92
699.789	11.92
699.818	19.92
699.846	6.92
699.874	-11.08
699.903	-10.08
699.931	-0.08
699.96	18.92
699.988	2.92
700.017	9.92
700.045	13.92
700.074	-6.08
700.102	-10.08
700.13	-1.08
700.159	5.92
700.187	7.92
700.216	4.92
700.244	3.92
700.273	1.92
700.301	-1.08
700.329	12.92
700.358	-1.08
700.386	1.92
700.415	1.92
700.443	-2.08
700.472	9.92
700.5	13.92
700.528	12.92
700.557	0.92
700.585	8.92
700.614	10.92
700.642	26.92
700.67	15.92
700.699	23.92
700.727	10.92
700.755	15.92
700.784	2.92
700.812	6.92
700.841	19.92
700.869	1.92
700.897	-11.08
700.926	-1.08
700.954	6.92
700.982	6.92
701.011	6.92
701.039	14.92
701.067	4.92
701.096	14.92
701.124	-3.08
701.152	9.92
701.181	-13.08
701.209	-1.08
701.237	8.92
701.266	5.92
701.294	3.92
701.322	18.92
701.351	13.92
701.379	5.92
701.407	-5.08
701.435	-10.08
701.464	18.92
701.492	28.92
701.52	11.92
701.549	9.92
701.577	9.92
701.605	0.92
701.634	1.92
701.662	8.92
701.69	-10.08
701.718	-4.08
701.747	12.92
701.775	1.92
701.803	8.92
701.831	16.92
701.86	0.92
701.888	17.92
701.916	12.92
701.944	14.92
701.973	-4.08
702.001	1.92
702.029	6.92
702.057	4.92
702.086	-7.08
702.114	-14.08
702.142	17.92
702.17	0.92
702.199	4.92
702.227	-8.08
702.255	5.92
702.283	1.92
702.311	10.92
702.34	9.92
702.368	12.92
702.396	6.92
702.424	6.92
702.452	4.92
702.481	9.92
702.509	1.92
702.537	3.92
702.565	7.92
702.593	-11.08
702.621	5.92
702.65	25.92
702.678	16.92
702.706	11.92
702.734	7.92
702.762	3.92
702.79	4.92
702.819	10.92
702.847	6.92
702.875	10.92
702.903	14.92
702.931	-5.08
702.959	16.92
702.988	17.92
703.016	-17.08
703.044	4.92
703.072	-4.08
703.1	-6.08
703.128	2.92
703.156	8.92
703.184	-5.08
703.212	22.92
703.241	21.92
703.269	4.92
703.297	13.92
703.325	10.92
703.353	-5.08
703.381	9.92
703.409	4.92
703.437	-11.08
703.465	-13.08
703.493	-14.08
703.522	7.92
703.55	13.92
703.578	12.92
703.606	-6.08
703.634	8.92
703.662	-5.08
703.69	14.92
703.718	2.92
703.746	25.92
703.774	15.92
703.802	24.92
703.83	-3.08
703.858	11.92
703.886	-13.08
703.914	-3.08
703.942	15.92
703.97	0.92
703.998	6.92
704.027	19.92
704.055	10.92
704.083	-5.08
704.111	1.92
704.139	-7.08
704.167	-0.08
704.195	2.92
704.223	-4.08
704.251	-20.08
704.279	5.92
704.307	7.92
704.335	-9.08
704.363	13.92
704.391	0.92
704.419	3.92
704.447	3.92
704.475	-1.08
704.503	1.92
704.531	7.92
704.558	15.92
704.586	-5.08
704.614	2.92
704.642	10.92
704.67	0.92
704.698	4.92
704.726	18.92
704.754	1.92
704.782	-5.08
704.81	-3.08
704.838	19.92
704.866	14.92
704.894	-5.08
704.922	-3.08
704.95	18.92
704.978	20.92
705.006	12.92
705.034	14.92
705.061	-2.08
705.089	5.92
705.117	-8.08
705.145	1.92
705.173	1.92
705.201	6.92
705.229	-0.08
705.257	1.92
705.285	12.92
705.313	4.92
705.34	3.92
705.368	5.92
705.396	0.92
705.424	18.92
705.452	-11.08
705.48	5.92
705.508	-2.08
705.536	13.92
705.563	-9.08
705.591	9.92
705.619	11.92
705.647	0.92
705.675	13.92
705.703	28.92
705.731	-7.08
705.758	5.92
705.786	6.92
705.814	18.92
705.842	6.92
705.87	14.92
705.898	30.92
705.925	-7.08
705.953	5.92
705.981	-15.08
706.009	16.92
706.037	14.92
706.065	-4.08
706.092	-8.08
706.12	3.92
706.148	-6.08
706.176	18.92
706.204	19.92
706.231	-0.08
706.259	-8.08
706.287	3.92
706.315	1.92
706.342	-13.08
706.37	-2.08
706.398	-3.08
706.426	-1.08
706.454	-0.08
706.481	19.92
706.509	11.92
706.537	-10.08
706.565	-1.08
706.592	4.92
706.62	-2.08
706.648	1.92
706.676	-15.08
706.703	1.92
706.731	6.92
706.759	-1.08
706.787	10.92
706.814	3.92
706.842	4.92
706.87	-4.08
706.897	-5.08
706.925	0.92
706.953	22.92
706.981	1.92
707.008	12.92
707.036	2.92
707.064	0.92
707.091	0.92
707.119	8.92
707.147	6.92
707.174	-9.08
707.202	10.92
707.23	3.92
707.258	1.92
707.285	-6.08
707.313	0.92
707.341	-3.08
707.368	-5.08
707.396	1.92
707.424	20.92
707.451	5.92
707.479	16.92
707.507	12.92
707.534	-3.08
707.562	-10.08
707.59	-4.08
707.617	5.92
707.645	-4.08
707.672	23.92
707.7	5.92
707.728	22.92
707.755	35.92
707.783	2.92
707.811	15.92
707.838	-1.08
707.866	8.92
707.893	14.92
707.921	0.92
707.949	-6.08
707.976	14.92
708.004	2.92
708.031	-5.08
708.059	-13.08
708.087	-3.08
708.114	-5.08
708.142	1.92
708.169	-2.08
708.197	9.92
708.225	8.92
708.252	-2.08
708.28	19.92
708.307	-1.08
708.335	5.92
708.362	4.92
708.39	3.92
708.418	-3.08
708.445	-12.08
708.473	-7.08
708.5	-7.08
708.528	27.92
708.555	-0.08
708.583	12.92
708.61	17.92
708.638	1.92
708.665	2.92
708.693	16.92
708.72	-7.08
708.748	13.92
708.776	12.92
708.803	9.92
708.831	6.92
708.858	19.92
708.886	0.92
708.913	16.92
708.941	-6.08
708.968	19.92
708.996	-6.08
709.023	29.92
709.051	0.92
709.078	-8.08
709.105	7.92
709.133	-1.08
709.16	16.92
709.188	11.92
709.215	7.92
709.243	5.92
709.27	6.92
709.298	-2.08
709.325	6.92
709.353	1.92
709.38	-2.08
709.408	11.92
709.435	8.92
709.462	-3.08
709.49	-1.08
709.517	-2.08
709.545	0.92
709.572	-9.08
709.6	6.92
709.627	4.92
709.655	-2.08
709.682	-3.08
709.709	3.92
709.737	10.92
709.764	-9.08
709.792	23.92
709.819	17.92
709.846	3.92
709.874	26.92
709.901	21.92
709.929	20.92
709.956	13.92
709.983	2.92
710.011	-1.08
710.038	-0.08
710.066	-7.08
710.093	21.92
710.12	-2.08
710.148	2.92
710.175	1.92
710.202	0.92
710.23	20.92
710.257	10.92
710.284	4.92
710.312	-5.08
710.339	-0.08
710.366	8.92
710.394	-6.08
710.421	-2.08
710.448	-7.08
710.476	3.92
710.503	11.92
710.53	-0.08
710.558	28.92
710.585	16.92
710.612	11.92
710.64	3.92
710.667	-2.08
710.694	-2.08
710.722	-12.08
710.749	-6.08
710.776	4.92
710.804	12.92
710.831	-1.08
710.858	-1.08
710.885	10.92
710.913	7.92
710.94	33.92
710.967	11.92
710.995	12.92
711.022	-4.08
711.049	6.92
711.076	-1.08
711.104	-1.08
711.131	2.92
711.158	21.92
711.185	7.92
711.213	-3.08
711.24	-8.08
711.267	-3.08
711.294	10.92
711.322	13.92
711.349	1.92
711.376	20.92
711.403	19.92
711.431	2.92
711.458	0.92
711.485	-2.08
711.512	6.92
711.54	8.92
711.567	10.92
711.594	0.92
711.621	-5.08
711.648	19.92
711.676	7.92
711.703	-7.08
711.73	-6.08
711.757	-3.08
711.784	9.92
711.812	20.92
711.839	-8.08
711.866	2.92
711.893	-1.08
711.92	3.92
711.947	14.92
711.975	17.92
712.002	5.92
712.029	12.92
712.056	-5.08
712.083	-9.08
712.11	-10.08
712.138	11.92
712.165	-2.08
712.192	14.92
712.219	4.92
712.246	-5.08
712.273	-7.08
712.3	-5.08
712.328	8.92
712.355	4.92
712.382	-5.08
712.409	16.92
712.436	-11.08
712.463	6.92
712.49	20.92
712.517	17.92
712.544	13.92
712.572	1.92
712.599	1.92
712.626	1.92
712.653	-0.08
712.68	2.92
712.707	18.92
712.734	13.92
712.761	4.92
712.788	23.92
712.815	1.92
712.842	18.92
712.87	7.92
712.897	-0.08
712.924	-18.08
712.951	16.92
712.978	19.92
713.005	10.92
713.032	20.92
713.059	-5.08
713.086	-5.08
713.113	6.92
713.14	8.92
713.167	7.92
713.194	12.92
713.221	-11.08
713.248	-3.08
713.275	-13.08
713.302	0.92
713.329	7.92
713.356	17.92
713.383	9.92
713.41	1.92
713.437	-8.08
713.464	-3.08
713.491	19.92
713.518	6.92
713.545	2.92
713.572	-3.08
713.599	18.92
713.626	-3.08
713.653	7.92
713.68	0.92
713.707	13.92
713.734	0.92
713.761	1.92
713.788	-0.08
713.815	11.92
713.842	-7.08
713.869	15.92
713.896	2.92
713.923	13.92
713.95	2.92
713.977	5.92
714.004	6.92
714.031	-14.08
714.058	7.92
714.085	5.92
714.112	13.92
714.139	9.92
714.165	2.92
714.192	-5.08
714.219	14.92
714.246	0.92
714.273	3.92
714.3	9.92
714.327	8.92
714.354	-7.08
714.381	10.92
714.408	-3.08
714.435	-2.08
714.461	-4.08
714.488	2.92
714.515	6.92
714.542	-5.08
714.569	-11.08
714.596	0.92
714.623	5.92
714.65	4.92
714.677	1.92
714.703	7.92
714.73	6.92
714.757	26.92
714.784	12.92
714.811	-3.08
714.838	1.92
714.865	0.92
714.891	17.92
714.918	15.92
714.945	-10.08
714.972	-4.08
714.999	-1.08
715.026	-6.08
715.052	18.92
715.079	4.92
715.106	1.92
715.133	-1.08
715.16	1.92
715.187	-7.08
715.213	17.92
715.24	1.92
715.267	11.92
715.294	0.92
715.321	8.92
715.347	-2.08
715.374	-8.08
715.401	1.92
715.428	7.92
715.455	-5.08
715.481	0.92
715.508	16.92
715.535	1.92
715.562	25.92
715.588	-1.08
715.615	0.92
715.642	6.92
715.669	1.92
715.695	2.92
715.722	4.92
715.749	13.92
715.776	17.92
715.802	10.92
715.829	13.92
715.856	-10.08
715.883	5.92
715.909	2.92
715.936	-2.08
715.963	3.92
715.99	6.92
716.016	4.92
716.043	19.92
716.07	-3.08
716.096	-11.08
716.123	-5.08
716.15	9.92
716.177	8.92
716.203	12.92
716.23	15.92
716.257	7.92
716.283	29.92
716.31	5.92
716.337	13.92
716.363	2.92
716.39	14.92
716.417	14.92
716.443	-5.08
716.47	18.92
716.497	8.92
716.523	12.92
716.55	4.92
716.577	18.92
716.603	16.92
716.63	28.92
716.657	11.92
716.683	-1.08
716.71	-9.08
716.737	-3.08
716.763	8.92
716.79	1.92
716.817	6.92
716.843	10.92
716.87	-2.08
716.897	8.92
716.923	22.92
716.95	10.92
716.976	5.92
717.003	4.92
717.03	-0.08
717.056	16.92
717.083	10.92
717.109	22.92
717.136	6.92
717.163	1.92
717.189	1.92
717.216	-6.08
717.242	13.92
717.269	9.92
717.296	0.92
717.322	18.92
717.349	28.92
717.375	12.92
717.402	-4.08
717.428	8.92
717.455	6.92
717.481	-8.08
717.508	2.92
717.535	9.92
717.561	-6.08
717.588	-6.08
717.614	-2.08
717.641	0.92
717.667	10.92
717.694	8.92
717.72	6.92
717.747	5.92
717.773	-2.08
717.8	24.92
717.826	14.92
717.853	16.92
717.88	12.92
717.906	0.92
717.933	3.92
717.959	16.92
717.986	7.92
718.012	5.92
718.039	23.92
718.065	3.92
718.092	-9.08
718.118	-9.08
718.144	-2.08
718.171	23.92
718.197	40.92
718.224	9.92
718.25	9.92
718.277	9.92
718.303	-2.08
718.33	0.92
718.356	-4.08
718.383	-2.08
718.409	25.92
718.436	18.92
718.462	8.92
718.489	-7.08
718.515	21.92
718.541	0.92
718.568	9.92
718.594	-2.08
718.621	8.92
718.647	2.92
718.674	18.92
718.7	23.92
718.726	-15.08
718.753	-3.08
718.779	16.92
718.806	-8.08
718.832	-1.08
718.858	4.92
718.885	-3.08
718.911	4.92
718.938	12.92
718.964	8.92
718.99	13.92
719.017	-3.08
719.043	11.92
719.07	7.92
719.096	4.92
719.122	12.92
719.149	8.92
719.175	4.92
719.201	3.92
719.228	17.92
719.254	9.92
719.281	6.92
719.307	-2.08
719.333	3.92
719.36	13.92
719.386	-3.08
719.412	15.92
719.439	-1.08
719.465	-2.08
719.491	1.92
719.518	5.92
719.544	8.92
719.57	12.92
719.597	4.92
719.623	21.92
719.649	-2.08
719.675	4.92
719.702	12.92
719.728	13.92
719.754	-1.08
719.781	15.92
719.807	4.92
719.833	-12.08
719.86	6.92
719.886	12.92
719.912	16.92
719.938	1.92
719.965	2.92
719.991	15.92
720.017	16.92
720.044	-0.08
720.07	1.92
720.096	16.92
720.122	10.92
720.149	20.92
720.175	36.92
720.201	16.92
720.227	4.92
720.254	1.92
720.28	22.92
720.306	-3.08
720.332	-8.08
720.359	4.92
720.385	-5.08
720.411	1.92
720.437	17.92
720.463	3.92
720.49	12.92
720.516	3.92
720.542	11.92
720.568	1.92
720.595	23.92
720.621	2.92
720.647	10.92
720.673	19.92
720.699	3.92
720.725	9.92
720.752	14.92
720.778	20.92
720.804	18.92
720.83	21.92
720.856	6.92
720.883	-2.08
720.909	-5.08
720.935	15.92
720.961	28.92
720.987	26.92
721.013	22.92
721.04	-1.08
721.066	-8.08
721.092	-0.08
721.118	5.92
721.144	8.92
721.17	-2.08
721.196	12.92
721.223	6.92
721.249	5.92
721.275	23.92
721.301	5.92
721.327	22.92
721.353	9.92
721.379	-9.08
721.405	8.92
721.432	9.92
721.458	9.92
721.484	12.92
721.51	-1.08
721.536	3.92
721.562	8.92
721.588	18.92
721.614	-4.08
721.64	1.92
721.666	8.92
721.693	1.92
721.719	-2.08
721.745	-4.08
721.771	-10.08
721.797	-2.08
721.823	-2.08
721.849	21.92
721.875	0.92
721.901	17.92
721.927	1.92
721.953	-5.08
721.979	11.92
722.005	19.92
722.031	6.92
722.057	13.92
722.083	-2.08
722.109	9.92
722.135	19.92
722.161	13.92
722.187	-1.08
722.214	0.92
722.24	-6.08
722.266	1.92
722.292	-0.08
722.318	14.92
722.344	12.92
722.37	14.92
722.396	17.92
722.422	-1.08
722.448	21.92
722.474	1.92
722.5	9.92
722.526	28.92
722.552	25.92
722.578	9.92
722.603	13.92
722.629	1.92
722.655	9.92
722.681	-6.08
722.707	5.92
722.733	-7.08
722.759	-6.08
722.785	1.92
722.811	20.92
722.837	2.92
722.863	14.92
722.889	13.92
722.915	6.92
722.941	-1.08
722.967	7.92
722.993	0.92
723.019	0.92
723.045	5.92
723.071	-1.08
723.097	-2.08
723.122	-11.08
723.148	-2.08
723.174	-8.08
723.2	6.92
723.226	7.92
723.252	0.92
723.278	7.92
723.304	14.92
723.33	14.92
723.356	1.92
723.381	-7.08
723.407	-14.08
723.433	4.92
723.459	-1.08
723.485	1.92
723.511	5.92
723.537	-3.08
723.563	6.92
723.588	-1.08
723.614	17.92
723.64	-1.08
723.666	-2.08
723.692	27.92
723.718	13.92
723.744	12.92
723.769	-5.08
723.795	2.92
723.821	12.92
723.847	-3.08
723.873	2.92
723.899	-2.08
723.924	1.92
723.95	20.92
723.976	-10.08
724.002	4.92
724.028	14.92
724.053	4.92
724.079	1.92
724.105	1.92
724.131	2.92
724.157	-2.08
724.182	16.92
724.208	-4.08
724.234	-5.08
724.26	2.92
724.286	8.92
724.311	-7.08
724.337	-14.08
724.363	-0.08
724.389	16.92
724.415	8.92
724.44	24.92
724.466	23.92
724.492	-2.08
724.518	6.92
724.543	2.92
724.569	15.92
724.595	14.92
724.621	-0.08
724.646	4.92
724.672	8.92
724.698	-2.08
724.723	-2.08
724.749	1.92
724.775	18.92
724.801	10.92
724.826	10.92
724.852	13.92
724.878	6.92
724.904	1.92
724.929	16.92
724.955	-17.08
724.981	2.92
725.006	0.92
725.032	4.92
725.058	16.92
725.083	-2.08
725.109	4.92
725.135	15.92
725.161	13.92
725.186	14.92
725.212	-2.08
725.238	8.92
725.263	-4.08
725.289	0.92
725.315	-10.08
725.34	-15.08
725.366	-2.08
725.392	-4.08
725.417	-6.08
725.443	3.92
725.468	12.92
725.494	5.92
725.52	17.92
725.545	3.92
725.571	1.92
725.597	9.92
725.622	-4.08
725.648	-8.08
725.674	18.92
725.699	-4.08
725.725	-0.08
725.75	23.92
725.776	6.92
725.802	13.92
725.827	11.92
725.853	18.92
725.878	21.92
725.904	1.92
725.93	-3.08
725.955	-6.08
725.981	-23.08
726.006	7.92
726.032	8.92
726.057	-1.08
726.083	0.92
726.109	15.92
726.134	3.92
726.16	22.92
726.185	-10.08
726.211	-3.08
726.236	17.92
726.262	4.92
726.288	3.92
726.313	13.92
726.339	22.92
726.364	8.92
726.39	9.92
726.415	-15.08
726.441	-4.08
726.466	-2.08
726.492	0.92
726.517	2.92
726.543	10.92
726.568	-4.08
726.594	4.92
726.619	19.92
726.645	9.92
726.67	12.92
726.696	9.92
726.721	-8.08
726.747	-4.08
726.772	-6.08
726.798	-3.08
726.823	6.92
726.849	13.92
726.874	19.92
726.9	23.92
726.925	11.92
726.951	13.92
726.976	10.92
727.002	4.92
727.027	17.92
727.053	14.92
727.078	3.92
727.104	-2.08
727.129	-10.08
727.155	2.92
727.18	1.92
727.205	-3.08
727.231	10.92
727.256	7.92
727.282	9.92
727.307	16.92
727.333	-1.08
727.358	-4.08
727.383	1.92
727.409	7.92
727.434	14.92
727.46	-7.08
727.485	5.92
727.511	6.92
727.536	5.92
727.561	-2.08
727.587	-3.08
727.612	4.92
727.637	1.92
727.663	-3.08
727.688	10.92
727.714	10.92
727.739	4.92
727.764	3.92
727.79	4.92
727.815	9.92
727.841	16.92
727.866	0.92
727.891	7.92
727.917	-14.08
727.942	-5.08
727.967	-3.08
727.993	-4.08
728.018	-4.08
728.043	8.92
728.069	11.92
728.094	18.92
728.119	14.92
728.145	20.92
728.17	9.92
728.195	10.92
728.221	14.92
728.246	7.92
728.271	-7.08
728.297	11.92
728.322	10.92
728.347	0.92
728.373	0.92
728.398	8.92
728.423	-6.08
728.448	-1.08
728.474	17.92
728.499	24.92
728.524	-10.08
728.55	-26.08
728.575	4.92
728.6	5.92
728.625	-7.08
728.651	10.92
728.676	-5.08
728.701	-2.08
728.727	2.92
728.752	-6.08
728.777	11.92
728.802	11.92
728.828	20.92
728.853	-8.08
728.878	-5.08
728.903	-2.08
728.929	-14.08
728.954	3.92
728.979	16.92
729.004	15.92
729.03	-15.08
729.055	4.92
729.08	-4.08
729.105	-2.08
729.13	22.92
729.156	4.92
729.181	8.92
729.206	-7.08
729.231	-1.08
729.256	9.92
729.282	16.92
729.307	-6.08
729.332	-1.08
729.357	5.92
729.382	2.92
729.408	12.92
729.433	12.92
729.458	10.92
729.483	21.92
729.508	21.92
729.533	6.92
729.559	10.92
729.584	-9.08
729.609	5.92
729.634	14.92
729.659	-4.08
729.684	-2.08
729.71	37.92
729.735	9.92
729.76	7.92
729.785	0.92
729.81	13.92
729.835	7.92
729.86	-3.08
729.886	9.92
729.911	16.92
729.936	1.92
729.961	40.92
729.986	23.92
730.011	71.92
730.036	198.92
730.061	1047.92
730.086	2728.92
730.112	3443.92
730.137	2883.92
730.162	2161.92
730.187	1686.92
730.212	1272.92
730.237	810.92
730.262	468.92
730.287	253.92
730.312	156.92
730.337	77.92
730.362	70.92
730.387	31.92
730.413	30.92
730.438	8.92
730.463	18.92
730.488	8.92
730.513	17.92
730.538	0.92
730.563	21.92
730.588	26.92
730.613	15.92
730.638	-7.08
730.663	8.92
730.688	30.92
730.713	17.92
730.738	7.92
730.763	12.92
730.788	12.92
730.813	18.92
730.838	-6.08
730.863	4.92
730.888	6.92
730.913	3.92
730.938	7.92
730.963	44.92
730.988	137.92
731.013	440.92
731.038	626.92
731.063	595.92
731.088	469.92
731.113	376.92
731.138	282.92
731.163	193.92
731.188	120.92
731.213	77.92
731.238	65.92
731.263	28.92
731.288	18.92
731.313	27.92
731.338	14.92
731.363	20.92
731.388	4.92
731.413	5.92
731.438	16.92
731.463	14.92
731.487	14.92
731.512	8.92
731.537	9.92
731.562	8.92
731.587	6.92
731.612	-9.08
731.637	-2.08
731.662	14.92
731.687	-7.08
731.712	-10.08
731.737	8.92
731.762	0.92
731.786	7.92
731.811	18.92
731.836	18.92
731.861	-2.08
731.886	-1.08
731.911	17.92
731.936	9.92
731.961	0.92
731.986	-6.08
732.01	-6.08
732.035	5.92
732.06	7.92
732.085	6.92
732.11	4.92
732.135	-5.08
732.16	-2.08
732.184	-1.08
732.209	3.92
732.234	16.92
732.259	-6.08
732.284	7.92
732.309	-0.08
732.334	6.92
732.358	-21.08
732.383	-19.08
732.408	3.92
732.433	-14.08
732.458	10.92
732.482	-1.08
732.507	1.92
732.532	11.92
732.557	24.92
732.582	20.92
732.607	42.92
732.631	75.92
732.656	102.92
732.681	168.92
732.706	350.92
732.73	448.92
732.755	412.92
732.78	310.92
732.805	228.92
732.83	167.92
732.854	115.92
732.879	83.92
732.904	56.92
732.929	29.92
732.953	28.92
732.978	24.92
733.003	-5.08
733.028	9.92
733.052	13.92
733.077	-0.08
733.102	18.92
733.127	6.92
733.151	19.92
733.176	25.92
733.201	-0.08
733.226	9.92
733.25	-0.08
733.275	7.92
733.3	-4.08
733.324	33.92
733.349	24.92
733.374	20.92
733.399	15.92
733.423	2.92
733.448	1.92
733.473	14.92
733.497	13.92
733.522	-2.08
733.547	31.92
733.571	22.92
733.596	15.92
733.621	5.92
733.646	-4.08
733.67	7.92
733.695	1.92
733.72	4.92
733.744	5.92
733.769	16.92
733.794	18.92
733.818	1.92
733.843	-3.08
733.867	-22.08
733.892	14.92
733.917	11.92
733.941	7.92
733.966	-2.08
733.991	-1.08
734.015	9.92
734.04	-3.08
734.065	2.92
734.089	19.92
734.114	2.92
734.138	8.92
734.163	-1.08
734.188	11.92
734.212	18.92
734.237	-1.08
734.261	9.92
734.286	-4.08
734.311	-1.08
734.335	-4.08
734.36	5.92
734.384	20.92
734.409	20.92
734.434	2.92
734.458	1.92
734.483	1.92
734.507	-11.08
734.532	-4.08
734.556	7.92
734.581	4.92
734.606	9.92
734.63	-6.08
734.655	8.92
734.679	6.92
734.704	-4.08
734.728	3.92
734.753	8.92
734.777	13.92
734.802	3.92
734.826	6.92
734.851	9.92
734.876	8.92
734.9	16.92
734.925	18.92
734.949	15.92
734.974	12.92
734.998	5.92
735.023	-8.08
735.047	7.92
735.072	11.92
735.096	6.92
735.121	0.92
735.145	-3.08
735.17	-5.08
735.194	5.92
735.219	-3.08
735.243	14.92
735.268	15.92
735.292	21.92
735.317	25.92
735.341	13.92
735.365	-7.08
735.39	15.92
735.414	17.92
735.439	0.92
735.463	13.92
735.488	5.92
735.512	-1.08
735.537	7.92
735.561	15.92
735.586	9.92
735.61	11.92
735.634	-15.08
735.659	1.92
735.683	25.92
735.708	3.92
735.732	3.92
735.757	9.92
735.781	13.92
735.805	7.92
735.83	-1.08
735.854	10.92
735.879	2.92
735.903	4.92
735.927	6.92
735.952	7.92
735.976	-1.08
736.001	-5.08
736.025	4.92
736.049	-2.08
736.074	-8.08
736.098	14.92
736.123	11.92
736.147	4.92
736.171	-10.08
736.196	-3.08
736.22	6.92
736.244	4.92
736.269	-11.08
736.293	-2.08
736.317	16.92
736.342	18.92
736.366	24.92
736.39	19.92
736.415	7.92
736.439	6.92
736.463	19.92
736.488	20.92
736.512	13.92
736.536	3.92
736.561	14.92
736.585	-9.08
736.609	11.92
736.634	-15.08
736.658	4.92
736.682	1.92
736.707	0.92
736.731	0.92
736.755	11.92
736.78	15.92
736.804	15.92
736.828	25.92
736.852	0.92
736.877	4.92
736.901	18.92
736.925	19.92
736.949	23.92
736.974	0.92
736.998	1.92
737.022	-0.08
737.047	12.92
737.071	-9.08
737.095	15.92
737.119	31.92
737.144	6.92
737.168	3.92
737.192	2.92
737.216	1.92
737.241	-2.08
737.265	5.92
737.289	0.92
737.313	3.92
737.337	0.92
737.362	2.92
737.386	2.92
737.41	4.92
737.434	17.92
737.459	8.92
737.483	12.92
737.507	2.92
737.531	9.92
737.555	1.92
737.58	4.92
737.604	-4.08
737.628	-2.08
737.652	9.92
737.676	4.92
737.701	12.92
737.725	9.92
737.749	11.92
737.773	5.92
737.797	2.92
737.821	3.92
737.846	6.92
737.87	30.92
737.894	14.92
737.918	6.92
737.942	-11.08
737.966	15.92
737.99	22.92
738.015	-4.08
738.039	8.92
738.063	1.92
738.087	5.92
738.111	0.92
738.135	6.92
738.159	5.92
738.184	-6.08
738.208	9.92
738.232	10.92
738.256	26.92
738.28	9.92
738.304	5.92
738.328	-9.08
738.352	3.92
738.376	18.92
738.4	5.92
738.425	19.92
738.449	-3.08
738.473	29.92
738.497	12.92
738.521	15.92
738.545	2.92
738.569	12.92
738.593	19.92
738.617	-0.08
738.641	8.92
738.665	5.92
738.689	21.92
738.713	1.92
738.737	7.92
738.762	6.92
738.786	16.92
738.81	-5.08
738.834	11.92
738.858	-2.08
738.882	15.92
738.906	-9.08
738.93	3.92
738.954	13.92
738.978	16.92
739.002	-4.08
739.026	12.92
739.05	10.92
739.074	7.92
739.098	32.92
739.122	18.92
739.146	32.92
739.17	22.92
739.194	13.92
739.218	-4.08
739.242	-1.08
739.266	1.92
739.29	0.92
739.314	9.92
739.338	-7.08
739.362	15.92
739.386	-7.08
739.41	-10.08
739.434	-6.08
739.458	12.92
739.482	29.92
739.506	4.92
739.53	-8.08
739.554	10.92
739.577	-5.08
739.601	16.92
739.625	0.92
739.649	7.92
739.673	-5.08
739.697	7.92
739.721	9.92
739.745	22.92
739.769	30.92
739.793	4.92
739.817	28.92
739.841	8.92
739.865	8.92
739.889	-12.08
739.912	16.92
739.936	-2.08
739.96	3.92
739.984	34.92
740.008	10.92
740.032	-6.08
740.056	-4.08
740.08	9.92
740.104	12.92
740.127	14.92
740.151	12.92
740.175	15.92
740.199	17.92
740.223	44.92
740.247	4.92
740.271	0.92
740.295	-3.08
740.318	-6.08
740.342	5.92
740.366	12.92
740.39	7.92
740.414	3.92
740.438	-5.08
740.461	23.92
740.485	28.92
740.509	7.92
740.533	4.92
740.557	-1.08
740.581	12.92
740.604	-10.08
740.628	0.92
740.652	14.92
740.676	4.92
740.7	22.92
740.723	0.92
740.747	-0.08
740.771	-0.08
740.795	-2.08
740.819	8.92
740.842	21.92
740.866	20.92
740.89	7.92
740.914	5.92
740.938	-11.08
740.961	14.92
740.985	3.92
741.009	10.92
741.033	22.92
741.056	12.92
741.08	8.92
741.104	-1.08
741.128	-2.08
741.151	5.92
741.175	-3.08
741.199	14.92
741.223	23.92
741.246	-1.08
741.27	13.92
741.294	21.92
741.318	-10.08
741.341	-8.08
741.365	3.92
741.389	13.92
741.413	9.92
741.436	16.92
741.46	18.92
741.484	21.92
741.507	8.92
741.531	29.92
741.555	15.92
741.579	-1.08
741.602	9.92
741.626	0.92
741.65	-2.08
741.673	-4.08
741.697	13.92
741.721	11.92
741.744	-12.08
741.768	-12.08
741.792	-2.08
741.815	6.92
741.839	1.92
741.863	4.92
741.886	8.92
741.91	30.92
741.934	11.92
741.957	0.92
741.981	19.92
742.005	14.92
742.028	0.92
742.052	-10.08
742.075	3.92
742.099	30.92
742.123	1.92
742.146	4.92
742.17	18.92
742.194	-3.08
742.217	-6.08
742.241	5.92
742.264	1.92
742.288	19.92
742.312	-2.08
742.335	-4.08
742.359	8.92
742.382	21.92
742.406	29.92
742.43	-1.08
742.453	1.92
742.477	-0.08
742.5	6.92
742.524	-12.08
742.548	-0.08
742.571	4.92
742.595	-6.08
742.618	-8.08
742.642	2.92
742.665	32.92
742.689	-6.08
742.712	-5.08
742.736	-2.08
742.76	15.92
742.783	7.92
742.807	8.92
742.83	17.92
742.854	-3.08
742.877	9.92
742.901	6.92
742.924	-6.08
742.948	-4.08
742.971	-10.08
742.995	-2.08
743.018	1.92
743.042	4.92
743.065	1.92
743.089	5.92
743.112	12.92
743.136	-3.08
743.159	-7.08
743.183	1.92
743.206	15.92
743.23	-3.08
743.253	16.92
743.277	-3.08
743.3	1.92
743.324	6.92
743.347	5.92
743.371	18.92
743.394	5.92
743.418	18.92
743.441	2.92
743.465	4.92
743.488	6.92
743.512	0.92
743.535	4.92
743.558	6.92
743.582	-3.08
743.605	9.92
743.629	19.92
743.652	22.92
743.676	2.92
743.699	7.92
743.723	10.92
743.746	8.92
743.769	20.92
743.793	10.92
743.816	2.92
743.84	12.92
743.863	-2.08
743.886	11.92
743.91	16.92
743.933	12.92
743.957	7.92
743.98	6.92
744.003	2.92
744.027	8.92
744.05	12.92
744.074	19.92
744.097	-6.08
744.12	1.92
744.144	-6.08
744.167	1.92
744.19	6.92
744.214	10.92
744.237	-8.08
744.26	5.92
744.284	-2.08
744.307	-7.08
744.331	-0.08
744.354	-9.08
744.377	-5.08
744.401	12.92
744.424	26.92
744.447	1.92
744.471	1.92
