Data from HighRes_mercury_15_13_11_07_2024_HR4C61891__65__15-14-29-686.txt Node

Date: Thu Nov 07 15:14:29 EST 2024
User: crc00042
Spectrometer: HR4C6189
Trigger mode: 4
Integration Time (sec): 1.000000E-1
Scans to average: 1
Electric dark correction enabled: true
Nonlinearity correction enabled: false
Boxcar width: 0
XAxis mode: Wavelengths
Number of Pixels in Spectrum: 3648
>>>>>Begin Spectral Data<<<<<
639.567	-38.62
639.602	-38.62
639.636	-38.62
639.67	-38.62
639.704	-23.62
639.738	-15.62
639.773	21.38
639.807	-16.62
639.841	-10.62
639.875	10.38
639.909	-6.62
639.943	-10.62
639.978	-6.62
640.012	6.38
640.046	8.38
640.08	18.38
640.114	0.38
640.148	1.38
640.182	-20.62
640.217	1.38
640.251	20.38
640.285	15.38
640.319	2.38
640.353	-3.62
640.387	-6.62
640.421	1.38
640.455	2.38
640.49	-9.62
640.524	2.38
640.558	6.38
640.592	-6.62
640.626	-8.62
640.66	-3.62
640.694	-6.62
640.728	1.38
640.762	5.38
640.796	21.38
640.83	21.38
640.865	-2.62
640.899	-7.62
640.933	1.38
640.967	20.38
641.001	7.38
641.035	-0.62
641.069	0.38
641.103	-9.62
641.137	1.38
641.171	-2.62
641.205	11.38
641.239	-2.62
641.273	8.38
641.307	6.38
641.341	6.38
641.375	-6.62
641.409	-12.62
641.443	-6.62
641.477	10.38
641.511	1.38
641.545	26.38
641.579	4.38
641.614	-4.62
641.648	0.38
641.682	-12.62
641.716	-2.62
641.75	6.38
641.784	9.38
641.818	-6.62
641.852	-5.62
641.886	-7.62
641.919	16.38
641.953	-2.62
641.987	-15.62
642.021	-8.62
642.055	-0.62
642.089	6.38
642.123	-22.62
642.157	-13.62
642.191	9.38
642.225	7.38
642.259	10.38
642.293	14.38
642.327	14.38
642.361	3.38
642.395	4.38
642.429	1.38
642.463	4.38
642.497	10.38
642.531	-6.62
642.565	-21.62
642.599	9.38
642.633	3.38
642.666	5.38
642.7	11.38
642.734	17.38
642.768	1.38
642.802	1.38
642.836	15.38
642.87	4.38
642.904	5.38
642.938	-3.62
642.972	14.38
643.005	11.38
643.039	1.38
643.073	-0.62
643.107	15.38
643.141	20.38
643.175	8.38
643.209	-6.62
643.243	2.38
643.276	0.38
643.31	10.38
643.344	4.38
643.378	1.38
643.412	14.38
643.446	-3.62
643.48	-1.62
643.513	-6.62
643.547	-1.62
643.581	-12.62
643.615	19.38
643.649	7.38
643.683	11.38
643.716	-0.62
643.75	3.38
643.784	-28.62
643.818	1.38
643.852	5.38
643.886	-14.62
643.919	6.38
643.953	7.38
643.987	0.38
644.021	-5.62
644.055	13.38
644.088	2.38
644.122	-10.62
644.156	-6.62
644.19	-7.62
644.224	-11.62
644.257	-0.62
644.291	-3.62
644.325	3.38
644.359	-5.62
644.392	9.38
644.426	15.38
644.46	3.38
644.494	15.38
644.527	9.38
644.561	4.38
644.595	-4.62
644.629	-18.62
644.662	6.38
644.696	11.38
644.73	3.38
644.764	-9.62
644.797	-2.62
644.831	4.38
644.865	11.38
644.899	6.38
644.932	38.38
644.966	12.38
645	15.38
645.033	14.38
645.067	-8.62
645.101	4.38
645.135	4.38
645.168	-14.62
645.202	-25.62
645.236	9.38
645.269	5.38
645.303	-0.62
645.337	-23.62
645.37	-2.62
645.404	-4.62
645.438	8.38
645.471	-0.62
645.505	18.38
645.539	5.38
645.572	-1.62
645.606	11.38
645.64	5.38
645.673	1.38
645.707	15.38
645.741	-7.62
645.774	-1.62
645.808	4.38
645.842	-6.62
645.875	1.38
645.909	-11.62
645.943	-4.62
645.976	1.38
646.01	21.38
646.043	1.38
646.077	21.38
646.111	17.38
646.144	-0.62
646.178	10.38
646.212	-16.62
646.245	-6.62
646.279	2.38
646.312	25.38
646.346	27.38
646.38	-3.62
646.413	11.38
646.447	-3.62
646.48	-0.62
646.514	9.38
646.547	5.38
646.581	-8.62
646.615	-19.62
646.648	-22.62
646.682	-0.62
646.715	-4.62
646.749	10.38
646.782	-4.62
646.816	-10.62
646.85	-3.62
646.883	-13.62
646.917	11.38
646.95	2.38
646.984	3.38
647.017	6.38
647.051	0.38
647.084	2.38
647.118	-15.62
647.151	3.38
647.185	8.38
647.218	0.38
647.252	19.38
647.285	-14.62
647.319	-17.62
647.353	-11.62
647.386	0.38
647.42	1.38
647.453	-5.62
647.487	-6.62
647.52	3.38
647.553	15.38
647.587	9.38
647.62	-5.62
647.654	13.38
647.687	1.38
647.721	5.38
647.754	-2.62
647.788	-4.62
647.821	-7.62
647.855	-0.62
647.888	13.38
647.922	10.38
647.955	13.38
647.989	4.38
648.022	3.38
648.055	12.38
648.089	5.38
648.122	24.38
648.156	-4.62
648.189	3.38
648.223	3.38
648.256	9.38
648.29	8.38
648.323	0.38
648.356	28.38
648.39	24.38
648.423	13.38
648.457	13.38
648.49	-4.62
648.523	10.38
648.557	-0.62
648.59	6.38
648.624	1.38
648.657	-0.62
648.69	16.38
648.724	17.38
648.757	14.38
648.791	5.38
648.824	18.38
648.857	21.38
648.891	3.38
648.924	21.38
648.957	4.38
648.991	-15.62
649.024	7.38
649.057	-5.62
649.091	4.38
649.124	-4.62
649.158	1.38
649.191	11.38
649.224	13.38
649.258	15.38
649.291	3.38
649.324	1.38
649.358	-0.62
649.391	3.38
649.424	11.38
649.458	-1.62
649.491	2.38
649.524	-22.62
649.557	-3.62
649.591	-11.62
649.624	18.38
649.657	-10.62
649.691	-0.62
649.724	-11.62
649.757	12.38
649.791	-14.62
649.824	3.38
649.857	11.38
649.89	-1.62
649.924	-5.62
649.957	0.38
649.99	-2.62
650.023	-8.62
650.057	-4.62
650.09	10.38
650.123	-2.62
650.157	8.38
650.19	23.38
650.223	10.38
650.256	-13.62
650.29	-10.62
650.323	0.38
650.356	5.38
650.389	-1.62
650.423	-4.62
650.456	2.38
650.489	-0.62
650.522	-9.62
650.555	6.38
650.589	4.38
650.622	-3.62
650.655	10.38
650.688	5.38
650.721	0.38
650.755	2.38
650.788	13.38
650.821	1.38
650.854	6.38
650.887	10.38
650.921	6.38
650.954	-13.62
650.987	2.38
651.02	-10.62
651.053	-15.62
651.087	0.38
651.12	24.38
651.153	5.38
651.186	8.38
651.219	-8.62
651.252	5.38
651.286	11.38
651.319	-10.62
651.352	-9.62
651.385	-2.62
651.418	0.38
651.451	5.38
651.484	2.38
651.518	-23.62
651.551	5.38
651.584	-2.62
651.617	15.38
651.65	5.38
651.683	10.38
651.716	-18.62
651.749	0.38
651.783	-7.62
651.816	-3.62
651.849	3.38
651.882	0.38
651.915	9.38
651.948	11.38
651.981	-5.62
652.014	-13.62
652.047	-10.62
652.08	-7.62
652.114	2.38
652.147	-0.62
652.18	10.38
652.213	20.38
652.246	3.38
652.279	-1.62
652.312	7.38
652.345	-2.62
652.378	8.38
652.411	32.38
652.444	16.38
652.477	-5.62
652.51	-1.62
652.543	-27.62
652.576	9.38
652.609	-21.62
652.642	-0.62
652.675	3.38
652.709	4.38
652.742	13.38
652.775	-4.62
652.808	10.38
652.841	2.38
652.874	10.38
652.907	10.38
652.94	-15.62
652.973	-18.62
653.006	-10.62
653.039	6.38
653.072	0.38
653.105	-9.62
653.138	-26.62
653.171	-2.62
653.204	-10.62
653.237	6.38
653.27	-1.62
653.303	2.38
653.336	10.38
653.368	-24.62
653.401	3.38
653.434	1.38
653.467	14.38
653.5	-8.62
653.533	-0.62
653.566	6.38
653.599	-11.62
653.632	-1.62
653.665	0.38
653.698	-13.62
653.731	0.38
653.764	7.38
653.797	1.38
653.83	8.38
653.863	0.38
653.896	2.38
653.929	-11.62
653.961	1.38
653.994	7.38
654.027	-16.62
654.06	5.38
654.093	-7.62
654.126	-0.62
654.159	9.38
654.192	-1.62
654.225	-5.62
654.258	-13.62
654.29	6.38
654.323	-0.62
654.356	-11.62
654.389	-2.62
654.422	-5.62
654.455	-5.62
654.488	-0.62
654.521	-17.62
654.553	-19.62
654.586	22.38
654.619	11.38
654.652	-15.62
654.685	7.38
654.718	4.38
654.751	3.38
654.783	-2.62
654.816	12.38
654.849	-1.62
654.882	0.38
654.915	-17.62
654.948	-8.62
654.98	-8.62
655.013	-1.62
655.046	-5.62
655.079	-12.62
655.112	7.38
655.144	-13.62
655.177	0.38
655.21	6.38
655.243	15.38
655.276	4.38
655.308	-4.62
655.341	-7.62
655.374	16.38
655.407	-1.62
655.44	3.38
655.472	2.38
655.505	1.38
655.538	-12.62
655.571	5.38
655.603	0.38
655.636	-9.62
655.669	5.38
655.702	-9.62
655.734	-6.62
655.767	-1.62
655.8	-1.62
655.833	6.38
655.865	1.38
655.898	-8.62
655.931	-8.62
655.964	20.38
655.996	-16.62
656.029	5.38
656.062	1.38
656.095	-5.62
656.127	-13.62
656.16	-5.62
656.193	-9.62
656.225	-6.62
656.258	-6.62
656.291	-4.62
656.324	13.38
656.356	13.38
656.389	18.38
656.422	12.38
656.454	-16.62
656.487	-5.62
656.52	4.38
656.552	1.38
656.585	2.38
656.618	9.38
656.65	6.38
656.683	15.38
656.716	9.38
656.748	-3.62
656.781	-6.62
656.814	1.38
656.846	10.38
656.879	-2.62
656.912	5.38
656.944	-7.62
656.977	-5.62
657.01	-5.62
657.042	4.38
657.075	8.38
657.108	-8.62
657.14	5.38
657.173	16.38
657.205	29.38
657.238	-3.62
657.271	10.38
657.303	-12.62
657.336	2.38
657.369	6.38
657.401	5.38
657.434	8.38
657.466	13.38
657.499	4.38
657.532	15.38
657.564	16.38
657.597	-4.62
657.629	16.38
657.662	3.38
657.694	2.38
657.727	-18.62
657.76	16.38
657.792	-3.62
657.825	-6.62
657.857	2.38
657.89	4.38
657.922	5.38
657.955	-3.62
657.987	10.38
658.02	3.38
658.053	11.38
658.085	9.38
658.118	-0.62
658.15	13.38
658.183	21.38
658.215	-12.62
658.248	-12.62
658.28	0.38
658.313	7.38
658.345	-5.62
658.378	-3.62
658.41	-15.62
658.443	15.38
658.475	2.38
658.508	8.38
658.54	3.38
658.573	3.38
658.605	-6.62
658.638	-3.62
658.67	1.38
658.703	-10.62
658.735	-18.62
658.768	5.38
658.8	3.38
658.833	6.38
658.865	10.38
658.898	-2.62
658.93	-12.62
658.963	-7.62
658.995	-21.62
659.028	13.38
659.06	6.38
659.092	-6.62
659.125	5.38
659.157	22.38
659.19	-2.62
659.222	1.38
659.255	7.38
659.287	7.38
659.32	2.38
659.352	7.38
659.384	21.38
659.417	-12.62
659.449	-12.62
659.482	0.38
659.514	-28.62
659.546	-9.62
659.579	-28.62
659.611	2.38
659.644	-6.62
659.676	-18.62
659.708	-4.62
659.741	11.38
659.773	14.38
659.806	-8.62
659.838	-3.62
659.87	3.38
659.903	-0.62
659.935	9.38
659.967	5.38
660	14.38
660.032	-10.62
660.065	2.38
660.097	9.38
660.129	8.38
660.162	-12.62
660.194	8.38
660.226	8.38
660.259	14.38
660.291	3.38
660.323	-1.62
660.356	11.38
660.388	-18.62
660.42	-11.62
660.453	19.38
660.485	16.38
660.517	8.38
660.55	13.38
660.582	-4.62
660.614	1.38
660.647	-5.62
660.679	-0.62
660.711	12.38
660.743	-8.62
660.776	-13.62
660.808	4.38
660.84	-3.62
660.873	-3.62
660.905	-1.62
660.937	1.38
660.969	0.38
661.002	7.38
661.034	19.38
661.066	8.38
661.099	8.38
661.131	8.38
661.163	-3.62
661.195	11.38
661.228	17.38
661.26	8.38
661.292	5.38
661.324	8.38
661.357	0.38
661.389	-11.62
661.421	-10.62
661.453	4.38
661.485	-12.62
661.518	-3.62
661.55	-13.62
661.582	-11.62
661.614	8.38
661.647	2.38
661.679	-4.62
661.711	6.38
661.743	-22.62
661.775	-3.62
661.808	10.38
661.84	-7.62
661.872	-1.62
661.904	13.38
661.936	5.38
661.969	-18.62
662.001	-16.62
662.033	3.38
662.065	-0.62
662.097	4.38
662.129	1.38
662.162	-15.62
662.194	6.38
662.226	-9.62
662.258	13.38
662.29	12.38
662.322	-7.62
662.355	-6.62
662.387	11.38
662.419	-9.62
662.451	-6.62
662.483	9.38
662.515	-25.62
662.547	-9.62
662.58	-2.62
662.612	-9.62
662.644	-8.62
662.676	-2.62
662.708	0.38
662.74	-1.62
662.772	13.38
662.804	11.38
662.836	24.38
662.869	-11.62
662.901	13.38
662.933	-7.62
662.965	7.38
662.997	12.38
663.029	-12.62
663.061	-8.62
663.093	7.38
663.125	1.38
663.157	10.38
663.189	-8.62
663.221	2.38
663.254	-5.62
663.286	18.38
663.318	-2.62
663.35	8.38
663.382	0.38
663.414	14.38
663.446	-0.62
663.478	2.38
663.51	18.38
663.542	3.38
663.574	6.38
663.606	-1.62
663.638	-7.62
663.67	-14.62
663.702	0.38
663.734	8.38
663.766	9.38
663.798	0.38
663.83	2.38
663.862	6.38
663.894	4.38
663.926	10.38
663.958	11.38
663.99	-14.62
664.022	-11.62
664.054	8.38
664.086	-18.62
664.118	-8.62
664.15	-7.62
664.182	-11.62
664.214	0.38
664.246	7.38
664.278	0.38
664.31	8.38
664.342	11.38
664.374	-10.62
664.406	-5.62
664.438	13.38
664.47	-9.62
664.502	-11.62
664.534	-8.62
664.566	4.38
664.598	1.38
664.63	2.38
664.662	10.38
664.693	1.38
664.725	9.38
664.757	-7.62
664.789	-13.62
664.821	6.38
664.853	10.38
664.885	5.38
664.917	1.38
664.949	14.38
664.981	23.38
665.013	-0.62
665.045	-15.62
665.076	3.38
665.108	2.38
665.14	-9.62
665.172	4.38
665.204	11.38
665.236	-3.62
665.268	11.38
665.3	-6.62
665.331	1.38
665.363	-11.62
665.395	-2.62
665.427	-6.62
665.459	-4.62
665.491	3.38
665.523	0.38
665.555	-0.62
665.586	-4.62
665.618	-8.62
665.65	-11.62
665.682	-8.62
665.714	24.38
665.746	0.38
665.777	6.38
665.809	-0.62
665.841	0.38
665.873	-7.62
665.905	7.38
665.937	21.38
665.968	-15.62
666	-8.62
666.032	4.38
666.064	-7.62
666.096	13.38
666.127	6.38
666.159	21.38
666.191	5.38
666.223	-1.62
666.255	8.38
666.286	7.38
666.318	0.38
666.35	26.38
666.382	-1.62
666.413	10.38
666.445	-18.62
666.477	-7.62
666.509	-10.62
666.54	-3.62
666.572	-14.62
666.604	-0.62
666.636	3.38
666.667	3.38
666.699	17.38
666.731	12.38
666.763	-10.62
666.794	5.38
666.826	12.38
666.858	-4.62
666.89	9.38
666.921	-3.62
666.953	-1.62
666.985	-2.62
667.017	11.38
667.048	10.38
667.08	1.38
667.112	-5.62
667.143	-11.62
667.175	5.38
667.207	-1.62
667.238	14.38
667.27	13.38
667.302	-7.62
667.334	-4.62
667.365	12.38
667.397	5.38
667.429	12.38
667.46	13.38
667.492	12.38
667.524	-2.62
667.555	-9.62
667.587	2.38
667.619	-0.62
667.65	-9.62
667.682	4.38
667.714	10.38
667.745	11.38
667.777	2.38
667.808	20.38
667.84	-4.62
667.872	-10.62
667.903	29.38
667.935	-3.62
667.967	-10.62
667.998	10.38
668.03	-0.62
668.061	17.38
668.093	8.38
668.125	1.38
668.156	8.38
668.188	-2.62
668.22	-9.62
668.251	-5.62
668.283	11.38
668.314	16.38
668.346	8.38
668.377	21.38
668.409	12.38
668.441	30.38
668.472	18.38
668.504	13.38
668.535	13.38
668.567	-10.62
668.599	2.38
668.63	-4.62
668.662	11.38
668.693	11.38
668.725	20.38
668.756	17.38
668.788	1.38
668.819	-0.62
668.851	1.38
668.882	0.38
668.914	-11.62
668.946	11.38
668.977	-17.62
669.009	1.38
669.04	-22.62
669.072	-13.62
669.103	-6.62
669.135	-0.62
669.166	8.38
669.198	0.38
669.229	-2.62
669.261	2.38
669.292	6.38
669.324	4.38
669.355	15.38
669.387	2.38
669.418	15.38
669.45	-1.62
669.481	-8.62
669.513	-1.62
669.544	8.38
669.576	-6.62
669.607	6.38
669.639	19.38
669.67	-21.62
669.701	14.38
669.733	-20.62
669.764	-14.62
669.796	-10.62
669.827	-6.62
669.859	-10.62
669.89	-9.62
669.922	18.38
669.953	24.38
669.985	-8.62
670.016	9.38
670.047	8.38
670.079	3.38
670.11	12.38
670.142	-7.62
670.173	-22.62
670.204	-1.62
670.236	-9.62
670.267	-1.62
670.299	-0.62
670.33	9.38
670.362	6.38
670.393	-0.62
670.424	-0.62
670.456	-3.62
670.487	-2.62
670.518	2.38
670.55	-8.62
670.581	3.38
670.613	2.38
670.644	-10.62
670.675	-4.62
670.707	-7.62
670.738	-4.62
670.769	-1.62
670.801	-0.62
670.832	12.38
670.864	10.38
670.895	-2.62
670.926	-14.62
670.958	5.38
670.989	-6.62
671.02	-5.62
671.052	8.38
671.083	-4.62
671.114	-1.62
671.146	15.38
671.177	4.38
671.208	-12.62
671.24	-17.62
671.271	0.38
671.302	-3.62
671.333	-8.62
671.365	-5.62
671.396	-9.62
671.427	-5.62
671.459	0.38
671.49	2.38
671.521	5.38
671.553	-6.62
671.584	18.38
671.615	-0.62
671.646	23.38
671.678	6.38
671.709	3.38
671.74	-26.62
671.771	-6.62
671.803	-17.62
671.834	-5.62
671.865	-7.62
671.896	16.38
671.928	-5.62
671.959	0.38
671.99	-8.62
672.021	-13.62
672.053	3.38
672.084	2.38
672.115	2.38
672.146	-2.62
672.178	-14.62
672.209	-10.62
672.24	1.38
672.271	20.38
672.303	2.38
672.334	-20.62
672.365	-8.62
672.396	-2.62
672.427	5.38
672.459	7.38
672.49	20.38
672.521	4.38
672.552	20.38
672.583	8.38
672.615	1.38
672.646	11.38
672.677	3.38
672.708	-15.62
672.739	-3.62
672.77	14.38
672.802	4.38
672.833	9.38
672.864	20.38
672.895	-1.62
672.926	5.38
672.957	2.38
672.989	6.38
673.02	-5.62
673.051	-0.62
673.082	10.38
673.113	-1.62
673.144	16.38
673.175	2.38
673.206	-4.62
673.238	-13.62
673.269	0.38
673.3	-11.62
673.331	19.38
673.362	-10.62
673.393	8.38
673.424	27.38
673.455	16.38
673.487	8.38
673.518	6.38
673.549	-3.62
673.58	-3.62
673.611	-6.62
673.642	-14.62
673.673	-11.62
673.704	-0.62
673.735	-9.62
673.766	-13.62
673.797	2.38
673.828	-10.62
673.86	-5.62
673.891	-4.62
673.922	-3.62
673.953	-19.62
673.984	-14.62
674.015	2.38
674.046	-1.62
674.077	6.38
674.108	5.38
674.139	-2.62
674.17	1.38
674.201	-15.62
674.232	-8.62
674.263	-8.62
674.294	11.38
674.325	0.38
674.356	18.38
674.387	14.38
674.418	-5.62
674.449	-6.62
674.48	-10.62
674.511	-10.62
674.542	6.38
674.573	-6.62
674.604	-7.62
674.635	-14.62
674.666	23.38
674.697	8.38
674.728	-17.62
674.759	-2.62
674.79	-15.62
674.821	-7.62
674.852	3.38
674.883	-9.62
674.914	-13.62
674.945	-6.62
674.976	-4.62
675.007	-15.62
675.038	-9.62
675.069	-22.62
675.1	-15.62
675.131	-4.62
675.162	-7.62
675.193	-6.62
675.224	-2.62
675.254	9.38
675.285	2.38
675.316	0.38
675.347	-9.62
675.378	-18.62
675.409	-26.62
675.44	7.38
675.471	-6.62
675.502	-9.62
675.533	-2.62
675.564	-1.62
675.595	-6.62
675.625	15.38
675.656	4.38
675.687	15.38
675.718	-7.62
675.749	10.38
675.78	2.38
675.811	-5.62
675.842	0.38
675.873	-1.62
675.903	-0.62
675.934	2.38
675.965	-16.62
675.996	-13.62
676.027	-0.62
676.058	-1.62
676.089	-10.62
676.119	5.38
676.15	3.38
676.181	-6.62
676.212	-7.62
676.243	-11.62
676.274	-1.62
676.304	21.38
676.335	-4.62
676.366	1.38
676.397	-6.62
676.428	11.38
676.459	13.38
676.489	3.38
676.52	-0.62
676.551	5.38
676.582	-8.62
676.613	-10.62
676.643	-7.62
676.674	19.38
676.705	19.38
676.736	11.38
676.767	17.38
676.797	0.38
676.828	6.38
676.859	1.38
676.89	-1.62
676.92	-16.62
676.951	17.38
676.982	6.38
677.013	-5.62
677.044	22.38
677.074	20.38
677.105	8.38
677.136	1.38
677.167	-4.62
677.197	2.38
677.228	-12.62
677.259	2.38
677.289	2.38
677.32	-11.62
677.351	8.38
677.382	-5.62
677.412	-26.62
677.443	3.38
677.474	-3.62
677.505	-10.62
677.535	3.38
677.566	-0.62
677.597	-2.62
677.627	-3.62
677.658	2.38
677.689	6.38
677.72	15.38
677.75	-2.62
677.781	-5.62
677.812	4.38
677.842	5.38
677.873	6.38
677.904	-11.62
677.934	-9.62
677.965	-2.62
677.996	-23.62
678.026	-8.62
678.057	4.38
678.088	6.38
678.118	-2.62
678.149	-18.62
678.18	1.38
678.21	-5.62
678.241	6.38
678.272	11.38
678.302	-1.62
678.333	9.38
678.363	-2.62
678.394	-6.62
678.425	-2.62
678.455	-1.62
678.486	8.38
678.517	-3.62
678.547	2.38
678.578	12.38
678.608	-20.62
678.639	-6.62
678.67	-1.62
678.7	1.38
678.731	1.38
678.761	0.38
678.792	8.38
678.823	4.38
678.853	-0.62
678.884	-14.62
678.914	7.38
678.945	-9.62
678.975	-16.62
679.006	21.38
679.037	7.38
679.067	19.38
679.098	2.38
679.128	7.38
679.159	2.38
679.189	7.38
679.22	-8.62
679.25	0.38
679.281	-3.62
679.312	2.38
679.342	-3.62
679.373	28.38
679.403	-1.62
679.434	7.38
679.464	0.38
679.495	8.38
679.525	5.38
679.556	-10.62
679.586	-3.62
679.617	6.38
679.647	-2.62
679.678	-0.62
679.708	9.38
679.739	1.38
679.769	1.38
679.8	-0.62
679.83	1.38
679.861	2.38
679.891	-7.62
679.922	-16.62
679.952	0.38
679.983	14.38
680.013	2.38
680.044	-6.62
680.074	4.38
680.105	-5.62
680.135	1.38
680.165	-3.62
680.196	2.38
680.226	6.38
680.257	18.38
680.287	0.38
680.318	0.38
680.348	-12.62
680.379	16.38
680.409	7.38
680.439	-0.62
680.47	2.38
680.5	-2.62
680.531	4.38
680.561	12.38
680.592	2.38
680.622	2.38
680.652	0.38
680.683	0.38
680.713	5.38
680.744	-9.62
680.774	-17.62
680.804	15.38
680.835	-0.62
680.865	1.38
680.896	20.38
680.926	9.38
680.956	18.38
680.987	2.38
681.017	-5.62
681.047	1.38
681.078	-4.62
681.108	-13.62
681.139	-6.62
681.169	-9.62
681.199	-3.62
681.23	21.38
681.26	8.38
681.29	3.38
681.321	-16.62
681.351	-16.62
681.381	-5.62
681.412	4.38
681.442	13.38
681.472	21.38
681.503	6.38
681.533	8.38
681.563	0.38
681.594	-13.62
681.624	3.38
681.654	9.38
681.685	8.38
681.715	-4.62
681.745	-14.62
681.775	-3.62
681.806	-13.62
681.836	-5.62
681.866	-1.62
681.897	8.38
681.927	8.38
681.957	-14.62
681.987	4.38
682.018	-3.62
682.048	-3.62
682.078	4.38
682.109	-5.62
682.139	8.38
682.169	-4.62
682.199	-1.62
682.23	0.38
682.26	9.38
682.29	-14.62
682.32	0.38
682.351	6.38
682.381	1.38
682.411	-5.62
682.441	-8.62
682.472	-5.62
682.502	-9.62
682.532	-0.62
682.562	0.38
682.592	1.38
682.623	14.38
682.653	-0.62
682.683	-2.62
682.713	1.38
682.743	4.38
682.774	-1.62
682.804	1.38
682.834	1.38
682.864	-10.62
682.894	-17.62
682.925	-9.62
682.955	-5.62
682.985	-3.62
683.015	2.38
683.045	9.38
683.076	-3.62
683.106	1.38
683.136	-0.62
683.166	-10.62
683.196	-21.62
683.226	-8.62
683.257	-0.62
683.287	-4.62
683.317	-25.62
683.347	-3.62
683.377	-3.62
683.407	5.38
683.437	5.38
683.468	7.38
683.498	-7.62
683.528	-10.62
683.558	8.38
683.588	-21.62
683.618	-11.62
683.648	-7.62
683.678	3.38
683.708	8.38
683.739	16.38
683.769	6.38
683.799	-12.62
683.829	-9.62
683.859	-6.62
683.889	16.38
683.919	-2.62
683.949	2.38
683.979	-8.62
684.009	-7.62
684.039	-10.62
684.07	-3.62
684.1	7.38
684.13	1.38
684.16	16.38
684.19	-4.62
684.22	2.38
684.25	2.38
684.28	2.38
684.31	16.38
684.34	12.38
684.37	9.38
684.4	-5.62
684.43	-15.62
684.46	4.38
684.49	-5.62
684.52	2.38
684.55	6.38
684.58	2.38
684.61	8.38
684.64	17.38
684.67	0.38
684.7	8.38
684.73	10.38
684.76	13.38
684.79	18.38
684.82	5.38
684.85	1.38
684.88	-1.62
684.91	-0.62
684.94	-6.62
684.97	-14.62
685	-0.62
685.03	-17.62
685.06	-7.62
685.09	-2.62
685.12	14.38
685.15	-8.62
685.18	8.38
685.21	10.38
685.24	1.38
685.27	16.38
685.3	3.38
685.33	18.38
685.36	13.38
685.39	-6.62
685.42	-6.62
685.45	-11.62
685.48	3.38
685.51	-17.62
685.54	13.38
685.569	-4.62
685.599	9.38
685.629	-2.62
685.659	-6.62
685.689	-0.62
685.719	3.38
685.749	-0.62
685.779	13.38
685.809	1.38
685.839	5.38
685.869	4.38
685.898	3.38
685.928	4.38
685.958	-13.62
685.988	1.38
686.018	7.38
686.048	2.38
686.078	6.38
686.108	7.38
686.137	13.38
686.167	1.38
686.197	-16.62
686.227	3.38
686.257	29.38
686.287	8.38
686.317	1.38
686.346	0.38
686.376	-15.62
686.406	-7.62
686.436	12.38
686.466	5.38
686.496	-5.62
686.525	-3.62
686.555	-14.62
686.585	7.38
686.615	25.38
686.645	5.38
686.675	-2.62
686.704	-7.62
686.734	5.38
686.764	-10.62
686.794	12.38
686.824	-0.62
686.853	12.38
686.883	13.38
686.913	13.38
686.943	8.38
686.973	-2.62
687.002	-9.62
687.032	2.38
687.062	-12.62
687.092	12.38
687.121	-7.62
687.151	0.38
687.181	15.38
687.211	11.38
687.24	-0.62
687.27	5.38
687.3	1.38
687.33	11.38
687.359	8.38
687.389	4.38
687.419	-0.62
687.449	2.38
687.478	11.38
687.508	-6.62
687.538	6.38
687.568	6.38
687.597	-3.62
687.627	12.38
687.657	-0.62
687.686	-5.62
687.716	11.38
687.746	-1.62
687.776	4.38
687.805	14.38
687.835	-2.62
687.865	27.38
687.894	16.38
687.924	1.38
687.954	-4.62
687.983	5.38
688.013	2.38
688.043	10.38
688.072	3.38
688.102	16.38
688.132	4.38
688.161	2.38
688.191	2.38
688.221	23.38
688.25	1.38
688.28	-4.62
688.31	-9.62
688.339	0.38
688.369	-8.62
688.399	-12.62
688.428	-5.62
688.458	-5.62
688.488	-2.62
688.517	4.38
688.547	-4.62
688.576	20.38
688.606	26.38
688.636	-0.62
688.665	6.38
688.695	20.38
688.725	13.38
688.754	12.38
688.784	14.38
688.813	18.38
688.843	-0.62
688.873	0.38
688.902	-14.62
688.932	6.38
688.961	1.38
688.991	14.38
689.02	9.38
689.05	-5.62
689.08	2.38
689.109	15.38
689.139	10.38
689.168	6.38
689.198	12.38
689.227	-6.62
689.257	11.38
689.287	21.38
689.316	-1.62
689.346	-10.62
689.375	4.38
689.405	15.38
689.434	11.38
689.464	4.38
689.493	-2.62
689.523	-13.62
689.552	0.38
689.582	-1.62
689.611	-2.62
689.641	9.38
689.67	1.38
689.7	8.38
689.73	12.38
689.759	-1.62
689.789	9.38
689.818	0.38
689.848	-1.62
689.877	22.38
689.906	-3.62
689.936	1.38
689.965	14.38
689.995	19.38
690.024	4.38
690.054	-3.62
690.083	5.38
690.113	11.38
690.142	-1.62
690.172	-5.62
690.201	-1.62
690.231	-9.62
690.26	-3.62
690.29	-9.62
690.319	3.38
690.348	1.38
690.378	1.38
690.407	9.38
690.437	-8.62
690.466	7.38
690.496	-3.62
690.525	17.38
690.555	0.38
690.584	-8.62
690.613	-3.62
690.643	8.38
690.672	4.38
690.702	6.38
690.731	3.38
690.76	17.38
690.79	47.38
690.819	54.38
690.849	30.38
690.878	19.38
690.907	20.38
690.937	20.38
690.966	5.38
690.996	1.38
691.025	6.38
691.054	3.38
691.084	6.38
691.113	-4.62
691.142	13.38
691.172	5.38
691.201	12.38
691.23	1.38
691.26	-3.62
691.289	9.38
691.319	0.38
691.348	1.38
691.377	13.38
691.407	3.38
691.436	-1.62
691.465	-8.62
691.495	5.38
691.524	-2.62
691.553	-15.62
691.583	-2.62
691.612	12.38
691.641	4.38
691.67	-3.62
691.7	13.38
691.729	-3.62
691.758	4.38
691.788	8.38
691.817	-3.62
691.846	-1.62
691.876	0.38
691.905	9.38
691.934	5.38
691.963	5.38
691.993	-1.62
692.022	-8.62
692.051	2.38
692.081	5.38
692.11	7.38
692.139	-0.62
692.168	4.38
692.198	26.38
692.227	8.38
692.256	11.38
692.285	-8.62
692.315	-4.62
692.344	0.38
692.373	4.38
692.402	-14.62
692.432	2.38
692.461	-3.62
692.49	-12.62
692.519	4.38
692.548	11.38
692.578	15.38
692.607	3.38
692.636	-6.62
692.665	27.38
692.694	4.38
692.724	4.38
692.753	0.38
692.782	9.38
692.811	-1.62
692.84	1.38
692.87	9.38
692.899	-1.62
692.928	8.38
692.957	11.38
692.986	10.38
693.016	-6.62
693.045	16.38
693.074	12.38
693.103	2.38
693.132	-0.62
693.161	10.38
693.191	-6.62
693.22	-1.62
693.249	5.38
693.278	2.38
693.307	8.38
693.336	-5.62
693.365	-13.62
693.395	-9.62
693.424	-7.62
693.453	21.38
693.482	0.38
693.511	10.38
693.54	-10.62
693.569	9.38
693.598	10.38
693.628	24.38
693.657	3.38
693.686	5.38
693.715	-0.62
693.744	3.38
693.773	17.38
693.802	3.38
693.831	-6.62
693.86	21.38
693.889	10.38
693.919	28.38
693.948	-6.62
693.977	5.38
694.006	-8.62
694.035	7.38
694.064	9.38
694.093	1.38
694.122	-1.62
694.151	2.38
694.18	6.38
694.209	33.38
694.238	26.38
694.267	21.38
694.296	2.38
694.325	-0.62
694.354	13.38
694.383	15.38
694.412	2.38
694.441	4.38
694.471	1.38
694.5	-8.62
694.529	16.38
694.558	23.38
694.587	7.38
694.616	-3.62
694.645	0.38
694.674	13.38
694.703	-1.62
694.732	6.38
694.761	16.38
694.79	30.38
694.819	3.38
694.848	7.38
694.877	23.38
694.906	26.38
694.935	18.38
694.963	24.38
694.992	7.38
695.021	1.38
695.05	5.38
695.079	7.38
695.108	8.38
695.137	15.38
695.166	17.38
695.195	-8.62
695.224	14.38
695.253	20.38
695.282	-0.62
695.311	-0.62
695.34	0.38
695.369	20.38
695.398	5.38
695.427	21.38
695.456	7.38
695.485	13.38
695.513	8.38
695.542	-1.62
695.571	-1.62
695.6	10.38
695.629	9.38
695.658	10.38
695.687	1.38
695.716	7.38
695.745	34.38
695.774	15.38
695.802	-9.62
695.831	4.38
695.86	18.38
695.889	14.38
695.918	1.38
695.947	9.38
695.976	-1.62
696.005	15.38
696.033	6.38
696.062	16.38
696.091	-2.62
696.12	-4.62
696.149	19.38
696.178	14.38
696.207	1.38
696.235	-17.62
696.264	-5.62
696.293	9.38
696.322	0.38
696.351	9.38
696.38	0.38
696.408	-0.62
696.437	1.38
696.466	15.38
696.495	21.38
696.524	2.38
696.553	16.38
696.581	6.38
696.61	8.38
696.639	2.38
696.668	-0.62
696.697	-6.62
696.725	4.38
696.754	21.38
696.783	19.38
696.812	-7.62
696.84	5.38
696.869	9.38
696.898	-2.62
696.927	-10.62
696.956	11.38
696.984	-6.62
697.013	3.38
697.042	6.38
697.071	16.38
697.099	20.38
697.128	7.38
697.157	-2.62
697.186	-4.62
697.214	8.38
697.243	5.38
697.272	-2.62
697.301	0.38
697.329	16.38
697.358	4.38
697.387	34.38
697.415	20.38
697.444	1.38
697.473	5.38
697.502	9.38
697.53	0.38
697.559	3.38
697.588	0.38
697.616	3.38
697.645	-0.62
697.674	13.38
697.703	-2.62
697.731	17.38
697.76	3.38
697.789	5.38
697.817	1.38
697.846	19.38
697.875	4.38
697.903	20.38
697.932	23.38
697.961	1.38
697.989	-1.62
698.018	-1.62
698.047	11.38
698.075	8.38
698.104	-4.62
698.133	2.38
698.161	-1.62
698.19	7.38
698.218	3.38
698.247	6.38
698.276	11.38
698.304	17.38
698.333	11.38
698.362	8.38
698.39	6.38
698.419	3.38
698.447	-11.62
698.476	7.38
698.505	11.38
698.533	17.38
698.562	9.38
698.591	-3.62
698.619	-14.62
698.648	22.38
698.676	16.38
698.705	8.38
698.733	-0.62
698.762	-14.62
698.791	5.38
698.819	1.38
698.848	2.38
698.876	0.38
698.905	2.38
698.933	1.38
698.962	4.38
698.991	15.38
699.019	21.38
699.048	3.38
699.076	2.38
699.105	-4.62
699.133	-3.62
699.162	-0.62
699.19	13.38
699.219	0.38
699.248	1.38
699.276	-7.62
699.305	-2.62
699.333	-0.62
699.362	1.38
699.39	16.38
699.419	12.38
699.447	3.38
699.476	37.38
699.504	6.38
699.533	9.38
699.561	-3.62
699.59	5.38
699.618	3.38
699.647	19.38
699.675	5.38
699.704	11.38
699.732	-4.62
699.761	11.38
699.789	-1.62
699.818	7.38
699.846	18.38
699.874	-15.62
699.903	-2.62
699.931	8.38
699.96	13.38
699.988	20.38
700.017	-6.62
700.045	5.38
700.074	6.38
700.102	-5.62
700.13	0.38
700.159	14.38
700.187	11.38
700.216	4.38
700.244	-1.62
700.273	-5.62
700.301	1.38
700.329	7.38
700.358	8.38
700.386	-14.62
700.415	-7.62
700.443	13.38
700.472	-4.62
700.5	-3.62
700.528	13.38
700.557	4.38
700.585	-2.62
700.614	-14.62
700.642	12.38
700.67	15.38
700.699	15.38
700.727	6.38
700.755	22.38
700.784	9.38
700.812	-7.62
700.841	5.38
700.869	0.38
700.897	-14.62
700.926	0.38
700.954	23.38
700.982	1.38
701.011	0.38
701.039	18.38
701.067	3.38
701.096	13.38
701.124	0.38
701.152	6.38
701.181	5.38
701.209	-7.62
701.237	-8.62
701.266	-2.62
701.294	-11.62
701.322	9.38
701.351	1.38
701.379	-4.62
701.407	-3.62
701.435	7.38
701.464	7.38
701.492	28.38
701.52	-5.62
701.549	19.38
701.577	2.38
701.605	-0.62
701.634	-2.62
701.662	6.38
701.69	7.38
701.718	-15.62
701.747	4.38
701.775	-6.62
701.803	3.38
701.831	24.38
701.86	0.38
701.888	1.38
701.916	-13.62
701.944	11.38
701.973	7.38
702.001	11.38
702.029	7.38
702.057	-11.62
702.086	-15.62
702.114	-0.62
702.142	1.38
702.17	-1.62
702.199	-9.62
702.227	-12.62
702.255	-14.62
702.283	-9.62
702.311	13.38
702.34	-6.62
702.368	8.38
702.396	-4.62
702.424	5.38
702.452	-2.62
702.481	-5.62
702.509	4.38
702.537	-2.62
702.565	4.38
702.593	-9.62
702.621	-0.62
702.65	2.38
702.678	0.38
702.706	2.38
702.734	-11.62
702.762	0.38
702.79	10.38
702.819	1.38
702.847	9.38
702.875	3.38
702.903	5.38
702.931	-15.62
702.959	-1.62
702.988	-1.62
703.016	-3.62
703.044	2.38
703.072	1.38
703.1	-10.62
703.128	3.38
703.156	5.38
703.184	1.38
703.212	15.38
703.241	-2.62
703.269	-3.62
703.297	1.38
703.325	6.38
703.353	-3.62
703.381	-14.62
703.409	-1.62
703.437	-9.62
703.465	8.38
703.493	-8.62
703.522	-7.62
703.55	3.38
703.578	17.38
703.606	-0.62
703.634	-5.62
703.662	-8.62
703.69	1.38
703.718	14.38
703.746	23.38
703.774	13.38
703.802	11.38
703.83	-6.62
703.858	-1.62
703.886	8.38
703.914	-7.62
703.942	12.38
703.97	2.38
703.998	-16.62
704.027	5.38
704.055	1.38
704.083	-2.62
704.111	-3.62
704.139	-11.62
704.167	-1.62
704.195	5.38
704.223	-14.62
704.251	-5.62
704.279	-2.62
704.307	7.38
704.335	-10.62
704.363	-0.62
704.391	-7.62
704.419	-12.62
704.447	-7.62
704.475	13.38
704.503	-5.62
704.531	11.38
704.558	-1.62
704.586	17.38
704.614	-12.62
704.642	5.38
704.67	-7.62
704.698	-4.62
704.726	1.38
704.754	-7.62
704.782	10.38
704.81	4.38
704.838	17.38
704.866	1.38
704.894	-16.62
704.922	-3.62
704.95	5.38
704.978	11.38
705.006	13.38
705.034	12.38
705.061	-6.62
705.089	-7.62
705.117	-9.62
705.145	4.38
705.173	10.38
705.201	-4.62
705.229	0.38
705.257	0.38
705.285	19.38
705.313	9.38
705.34	9.38
705.368	6.38
705.396	-2.62
705.424	-3.62
705.452	6.38
705.48	-2.62
705.508	0.38
705.536	15.38
705.563	1.38
705.591	-7.62
705.619	4.38
705.647	2.38
705.675	3.38
705.703	-0.62
705.731	-2.62
705.758	-4.62
705.786	11.38
705.814	29.38
705.842	-0.62
705.87	8.38
705.898	20.38
705.925	7.38
705.953	10.38
705.981	4.38
706.009	12.38
706.037	2.38
706.065	-2.62
706.092	-5.62
706.12	-7.62
706.148	-15.62
706.176	-7.62
706.204	9.38
706.231	-2.62
706.259	-11.62
706.287	-18.62
706.315	-8.62
706.342	-14.62
706.37	8.38
706.398	9.38
706.426	-7.62
706.454	0.38
706.481	4.38
706.509	4.38
706.537	4.38
706.565	-15.62
706.592	5.38
706.62	11.38
706.648	24.38
706.676	-1.62
706.703	-14.62
706.731	-8.62
706.759	14.38
706.787	9.38
706.814	1.38
706.842	-13.62
706.87	9.38
706.897	9.38
706.925	4.38
706.953	16.38
706.981	13.38
707.008	5.38
707.036	12.38
707.064	0.38
707.091	-14.62
707.119	5.38
707.147	-2.62
707.174	2.38
707.202	-0.62
707.23	-1.62
707.258	-12.62
707.285	-19.62
707.313	-22.62
707.341	-5.62
707.368	-9.62
707.396	5.38
707.424	25.38
707.451	10.38
707.479	1.38
707.507	-6.62
707.534	-3.62
707.562	2.38
707.59	-3.62
707.617	1.38
707.645	-0.62
707.672	10.38
707.7	-9.62
707.728	13.38
707.755	1.38
707.783	16.38
707.811	0.38
707.838	-6.62
707.866	4.38
707.893	-4.62
707.921	-0.62
707.949	-1.62
707.976	6.38
708.004	8.38
708.031	2.38
708.059	-0.62
708.087	-2.62
708.114	-12.62
708.142	-1.62
708.169	-2.62
708.197	-3.62
708.225	-3.62
708.252	4.38
708.28	13.38
708.307	-5.62
708.335	13.38
708.362	2.38
708.39	-15.62
708.418	3.38
708.445	-3.62
708.473	-4.62
708.5	0.38
708.528	21.38
708.555	-5.62
708.583	0.38
708.61	1.38
708.638	-3.62
708.665	-10.62
708.693	-3.62
708.72	-6.62
708.748	-2.62
708.776	2.38
708.803	22.38
708.831	18.38
708.858	9.38
708.886	9.38
708.913	-2.62
708.941	-8.62
708.968	12.38
708.996	-3.62
709.023	36.38
709.051	10.38
709.078	1.38
709.105	1.38
709.133	-2.62
709.16	-5.62
709.188	13.38
709.215	10.38
709.243	12.38
709.27	-16.62
709.298	-8.62
709.325	-7.62
709.353	-7.62
709.38	5.38
709.408	1.38
709.435	4.38
709.462	10.38
709.49	-7.62
709.517	-5.62
709.545	8.38
709.572	10.38
709.6	7.38
709.627	14.38
709.655	-5.62
709.682	5.38
709.709	8.38
709.737	3.38
709.764	2.38
709.792	7.38
709.819	7.38
709.846	-7.62
709.874	6.38
709.901	9.38
709.929	18.38
709.956	7.38
709.983	-7.62
710.011	-7.62
710.038	-18.62
710.066	16.38
710.093	21.38
710.12	-3.62
710.148	10.38
710.175	-11.62
710.202	-9.62
710.23	-8.62
710.257	5.38
710.284	7.38
710.312	9.38
710.339	-9.62
710.366	-0.62
710.394	-9.62
710.421	5.38
710.448	-6.62
710.476	1.38
710.503	0.38
710.53	7.38
710.558	10.38
710.585	1.38
710.612	-6.62
710.64	-5.62
710.667	-0.62
710.694	-11.62
710.722	-5.62
710.749	2.38
710.776	-1.62
710.804	20.38
710.831	6.38
710.858	5.38
710.885	4.38
710.913	-5.62
710.94	22.38
710.967	5.38
710.995	9.38
711.022	-7.62
711.049	-2.62
711.076	-18.62
711.104	5.38
711.131	-2.62
711.158	6.38
711.185	9.38
711.213	-3.62
711.24	-1.62
711.267	-5.62
711.294	4.38
711.322	16.38
711.349	7.38
711.376	-7.62
711.403	6.38
711.431	-8.62
711.458	-8.62
711.485	-7.62
711.512	-2.62
711.54	13.38
711.567	-7.62
711.594	6.38
711.621	9.38
711.648	-3.62
711.676	-4.62
711.703	-3.62
711.73	-7.62
711.757	8.38
711.784	1.38
711.812	-4.62
711.839	-6.62
711.866	-0.62
711.893	3.38
711.92	16.38
711.947	1.38
711.975	23.38
712.002	0.38
712.029	14.38
712.056	-6.62
712.083	-5.62
712.11	-14.62
712.138	4.38
712.165	7.38
712.192	5.38
712.219	10.38
712.246	-7.62
712.273	-10.62
712.3	-8.62
712.328	-1.62
712.355	13.38
712.382	-1.62
712.409	9.38
712.436	-9.62
712.463	6.38
712.49	8.38
712.517	11.38
712.544	-1.62
712.572	11.38
712.599	-4.62
712.626	-3.62
712.653	-6.62
712.68	6.38
712.707	11.38
712.734	-2.62
712.761	-5.62
712.788	1.38
712.815	2.38
712.842	7.38
712.87	9.38
712.897	2.38
712.924	-8.62
712.951	4.38
712.978	15.38
713.005	18.38
713.032	-6.62
713.059	-8.62
713.086	-11.62
713.113	-1.62
713.14	-12.62
713.167	7.38
713.194	17.38
713.221	1.38
713.248	5.38
713.275	-6.62
713.302	-7.62
713.329	-2.62
713.356	3.38
713.383	1.38
713.41	8.38
713.437	-7.62
713.464	-8.62
713.491	23.38
713.518	9.38
713.545	0.38
713.572	10.38
713.599	14.38
713.626	5.38
713.653	25.38
713.68	-7.62
713.707	-3.62
713.734	1.38
713.761	3.38
713.788	-1.62
713.815	4.38
713.842	-2.62
713.869	14.38
713.896	-1.62
713.923	0.38
713.95	-4.62
713.977	-2.62
714.004	-4.62
714.031	-3.62
714.058	0.38
714.085	-13.62
714.112	2.38
714.139	9.38
714.165	-1.62
714.192	-2.62
714.219	-6.62
714.246	1.38
714.273	-1.62
714.3	5.38
714.327	-4.62
714.354	10.38
714.381	-7.62
714.408	-5.62
714.435	-9.62
714.461	5.38
714.488	10.38
714.515	-4.62
714.542	-4.62
714.569	-11.62
714.596	-3.62
714.623	-0.62
714.65	-3.62
714.677	0.38
714.703	7.38
714.73	1.38
714.757	-6.62
714.784	28.38
714.811	0.38
714.838	16.38
714.865	2.38
714.891	8.38
714.918	3.38
714.945	9.38
714.972	-4.62
714.999	15.38
715.026	-11.62
715.052	6.38
715.079	-0.62
715.106	-8.62
715.133	-14.62
715.16	-11.62
715.187	1.38
715.213	2.38
715.24	-8.62
715.267	-1.62
715.294	-3.62
715.321	3.38
715.347	-7.62
715.374	-8.62
715.401	-7.62
715.428	-13.62
715.455	-2.62
715.481	1.38
715.508	9.38
715.535	0.38
715.562	18.38
715.588	8.38
715.615	5.38
715.642	-0.62
715.669	3.38
715.695	-4.62
715.722	12.38
715.749	17.38
715.776	9.38
715.802	11.38
715.829	11.38
715.856	-3.62
715.883	21.38
715.909	-5.62
715.936	-5.62
715.963	-4.62
715.99	-6.62
716.016	8.38
716.043	14.38
716.07	-7.62
716.096	-2.62
716.123	-6.62
716.15	4.38
716.177	6.38
716.203	10.38
716.23	10.38
716.257	6.38
716.283	16.38
716.31	1.38
716.337	-2.62
716.363	-3.62
716.39	1.38
716.417	20.38
716.443	-1.62
716.47	7.38
716.497	12.38
716.523	14.38
716.55	4.38
716.577	6.38
716.603	5.38
716.63	10.38
716.657	3.38
716.683	-12.62
716.71	2.38
716.737	7.38
716.763	13.38
716.79	-0.62
716.817	15.38
716.843	-6.62
716.87	-8.62
716.897	8.38
716.923	18.38
716.95	-7.62
716.976	-13.62
717.003	-13.62
717.03	-0.62
717.056	9.38
717.083	-6.62
717.109	18.38
717.136	2.38
717.163	-16.62
717.189	4.38
717.216	16.38
717.242	-5.62
717.269	4.38
717.296	9.38
717.322	4.38
717.349	1.38
717.375	-5.62
717.402	-2.62
717.428	-4.62
717.455	17.38
717.481	-2.62
717.508	3.38
717.535	-1.62
717.561	-4.62
717.588	-3.62
717.614	1.38
717.641	-0.62
717.667	-2.62
717.694	11.38
717.72	-0.62
717.747	4.38
717.773	5.38
717.8	11.38
717.826	15.38
717.853	8.38
717.88	6.38
717.906	4.38
717.933	12.38
717.959	3.38
717.986	10.38
718.012	7.38
718.039	8.38
718.065	18.38
718.092	2.38
718.118	-11.62
718.144	-11.62
718.171	-0.62
718.197	12.38
718.224	5.38
718.25	13.38
718.277	8.38
718.303	0.38
718.33	6.38
718.356	6.38
718.383	-15.62
718.409	-9.62
718.436	4.38
718.462	-6.62
718.489	-9.62
718.515	11.38
718.541	14.38
718.568	5.38
718.594	4.38
718.621	13.38
718.647	8.38
718.674	16.38
718.7	13.38
718.726	0.38
718.753	-2.62
718.779	6.38
718.806	7.38
718.832	-6.62
718.858	9.38
718.885	-7.62
718.911	-6.62
718.938	13.38
718.964	6.38
718.99	10.38
719.017	6.38
719.043	7.38
719.07	17.38
719.096	-1.62
719.122	5.38
719.149	11.38
719.175	2.38
719.201	-5.62
719.228	-5.62
719.254	4.38
719.281	4.38
719.307	-5.62
719.333	-3.62
719.36	9.38
719.386	4.38
719.412	22.38
719.439	-4.62
719.465	2.38
719.491	-12.62
719.518	7.38
719.544	3.38
719.57	21.38
719.597	-1.62
719.623	4.38
719.649	-6.62
719.675	5.38
719.702	-5.62
719.728	3.38
719.754	-2.62
719.781	4.38
719.807	4.38
719.833	-2.62
719.86	1.38
719.886	22.38
719.912	2.38
719.938	-14.62
719.965	-10.62
719.991	14.38
720.017	5.38
720.044	0.38
720.07	-9.62
720.096	5.38
720.122	8.38
720.149	6.38
720.175	24.38
720.201	6.38
720.227	-4.62
720.254	3.38
720.28	-3.62
720.306	8.38
720.332	3.38
720.359	6.38
720.385	10.38
720.411	13.38
720.437	22.38
720.463	-7.62
720.49	-2.62
720.516	11.38
720.542	0.38
720.568	-9.62
720.595	0.38
720.621	-6.62
720.647	0.38
720.673	6.38
720.699	-1.62
720.725	7.38
720.752	7.38
720.778	8.38
720.804	6.38
720.83	-6.62
720.856	6.38
720.883	-13.62
720.909	-0.62
720.935	21.38
720.961	27.38
720.987	-1.62
721.013	-1.62
721.04	-4.62
721.066	2.38
721.092	3.38
721.118	4.38
721.144	-7.62
721.17	-8.62
721.196	-10.62
721.223	0.38
721.249	-13.62
721.275	23.38
721.301	-2.62
721.327	0.38
721.353	-0.62
721.379	2.38
721.405	12.38
721.432	12.38
721.458	0.38
721.484	-4.62
721.51	-11.62
721.536	1.38
721.562	-14.62
721.588	4.38
721.614	-7.62
721.64	-3.62
721.666	5.38
721.693	-2.62
721.719	-10.62
721.745	-8.62
721.771	-2.62
721.797	4.38
721.823	5.38
721.849	22.38
721.875	17.38
721.901	12.38
721.927	4.38
721.953	4.38
721.979	11.38
722.005	11.38
722.031	0.38
722.057	21.38
722.083	-2.62
722.109	0.38
722.135	5.38
722.161	-0.62
722.187	-7.62
722.214	-2.62
722.24	-0.62
722.266	-0.62
722.292	-3.62
722.318	24.38
722.344	16.38
722.37	9.38
722.396	12.38
722.422	-14.62
722.448	4.38
722.474	-13.62
722.5	14.38
722.526	-0.62
722.552	10.38
722.578	-0.62
722.603	23.38
722.629	7.38
722.655	-4.62
722.681	-6.62
722.707	-8.62
722.733	-10.62
722.759	-8.62
722.785	12.38
722.811	-7.62
722.837	1.38
722.863	0.38
722.889	2.38
722.915	6.38
722.941	6.38
722.967	14.38
722.993	13.38
723.019	9.38
723.045	4.38
723.071	-10.62
723.097	21.38
723.122	6.38
723.148	-4.62
723.174	1.38
723.2	14.38
723.226	-5.62
723.252	-2.62
723.278	-2.62
723.304	1.38
723.33	11.38
723.356	-19.62
723.381	-10.62
723.407	-5.62
723.433	7.38
723.459	-14.62
723.485	-3.62
723.511	2.38
723.537	11.38
723.563	8.38
723.588	4.38
723.614	1.38
723.64	10.38
723.666	13.38
723.692	5.38
723.718	0.38
723.744	-8.62
723.769	-9.62
723.795	-5.62
723.821	0.38
723.847	-9.62
723.873	6.38
723.899	12.38
723.924	-3.62
723.95	-9.62
723.976	-7.62
724.002	15.38
724.028	1.38
724.053	-1.62
724.079	5.38
724.105	3.38
724.131	-1.62
724.157	-1.62
724.182	4.38
724.208	9.38
724.234	-22.62
724.26	-6.62
724.286	8.38
724.311	-10.62
724.337	-9.62
724.363	-9.62
724.389	7.38
724.415	2.38
724.44	10.38
724.466	-3.62
724.492	2.38
724.518	6.38
724.543	-6.62
724.569	3.38
724.595	9.38
724.621	1.38
724.646	4.38
724.672	-10.62
724.698	-0.62
724.723	0.38
724.749	2.38
724.775	6.38
724.801	2.38
724.826	-8.62
724.852	-14.62
724.878	4.38
724.904	-12.62
724.929	-6.62
724.955	-11.62
724.981	7.38
725.006	-1.62
725.032	-11.62
725.058	14.38
725.083	2.38
725.109	3.38
725.135	11.38
725.161	8.38
725.186	-11.62
725.212	-6.62
725.238	5.38
725.263	-3.62
725.289	4.38
725.315	-13.62
725.34	-5.62
725.366	16.38
725.392	-7.62
725.417	-1.62
725.443	-1.62
725.468	5.38
725.494	-2.62
725.52	3.38
725.545	-6.62
725.571	-18.62
725.597	-1.62
725.622	-7.62
725.648	2.38
725.674	16.38
725.699	20.38
725.725	-6.62
725.75	30.38
725.776	-1.62
725.802	10.38
725.827	6.38
725.853	5.38
725.878	-5.62
725.904	-0.62
725.93	0.38
725.955	-6.62
725.981	-8.62
726.006	-6.62
726.032	15.38
726.057	1.38
726.083	-9.62
726.109	-10.62
726.134	9.38
726.16	2.38
726.185	-15.62
726.211	1.38
726.236	18.38
726.262	16.38
726.288	-0.62
726.313	14.38
726.339	5.38
726.364	1.38
726.39	21.38
726.415	0.38
726.441	1.38
726.466	-7.62
726.492	-10.62
726.517	0.38
726.543	-3.62
726.568	5.38
726.594	-6.62
726.619	12.38
726.645	-1.62
726.67	-1.62
726.696	-2.62
726.721	-9.62
726.747	-12.62
726.772	2.38
726.798	0.38
726.823	6.38
726.849	1.38
726.874	0.38
726.9	13.38
726.925	15.38
726.951	6.38
726.976	10.38
727.002	0.38
727.027	6.38
727.053	2.38
727.078	-6.62
727.104	0.38
727.129	-9.62
727.155	-6.62
727.18	7.38
727.205	-8.62
727.231	1.38
727.256	13.38
727.282	11.38
727.307	7.38
727.333	-3.62
727.358	-10.62
727.383	2.38
727.409	-21.62
727.434	2.38
727.46	-12.62
727.485	7.38
727.511	1.38
727.536	-18.62
727.561	-3.62
727.587	-10.62
727.612	-13.62
727.637	-6.62
727.663	-7.62
727.688	21.38
727.714	-4.62
727.739	-5.62
727.764	-2.62
727.79	7.38
727.815	-5.62
727.841	17.38
727.866	15.38
727.891	0.38
727.917	-16.62
727.942	-6.62
727.967	3.38
727.993	5.38
728.018	16.38
728.043	2.38
728.069	20.38
728.094	12.38
728.119	4.38
728.145	10.38
728.17	16.38
728.195	0.38
728.221	13.38
728.246	6.38
728.271	-16.62
728.297	-5.62
728.322	3.38
728.347	5.38
728.373	-8.62
728.398	6.38
728.423	-8.62
728.448	0.38
728.474	-8.62
728.499	5.38
728.524	-13.62
728.55	-6.62
728.575	-7.62
728.6	5.38
728.625	-7.62
728.651	6.38
728.676	-1.62
728.701	-6.62
728.727	-10.62
728.752	-12.62
728.777	2.38
728.802	11.38
728.828	11.38
728.853	-2.62
728.878	-13.62
728.903	-8.62
728.929	-10.62
728.954	2.38
728.979	7.38
729.004	3.38
729.03	-9.62
729.055	-2.62
729.08	-4.62
729.105	-14.62
729.13	7.38
729.156	5.38
729.181	-6.62
729.206	-24.62
729.231	-2.62
729.256	18.38
729.282	10.38
729.307	-6.62
729.332	-16.62
729.357	-21.62
729.382	-9.62
729.408	7.38
729.433	-2.62
729.458	6.38
729.483	5.38
729.508	16.38
729.533	14.38
729.559	1.38
729.584	-5.62
729.609	-1.62
729.634	25.38
729.659	-7.62
729.684	-2.62
729.71	16.38
729.735	2.38
729.76	1.38
729.785	0.38
729.81	12.38
729.835	4.38
729.86	-13.62
729.886	19.38
729.911	9.38
729.936	6.38
729.961	7.38
729.986	14.38
730.011	69.38
730.036	216.38
730.061	1008.38
730.086	2674.38
730.112	3388.38
730.137	2836.38
730.162	2116.38
730.187	1662.38
730.212	1246.38
730.237	812.38
730.262	473.38
730.287	236.38
730.312	159.38
730.337	69.38
730.362	60.38
730.387	32.38
730.413	34.38
730.438	18.38
730.463	26.38
730.488	22.38
730.513	10.38
730.538	18.38
730.563	27.38
730.588	13.38
730.613	9.38
730.638	-19.62
730.663	-8.62
730.688	13.38
730.713	14.38
730.738	7.38
730.763	3.38
730.788	-8.62
730.813	15.38
730.838	-1.62
730.863	9.38
730.888	12.38
730.913	-4.62
730.938	8.38
730.963	22.38
730.988	116.38
731.013	428.38
731.038	634.38
731.063	604.38
731.088	466.38
731.113	356.38
731.138	264.38
731.163	194.38
731.188	113.38
731.213	69.38
731.238	41.38
731.263	31.38
731.288	9.38
731.313	18.38
731.338	9.38
731.363	22.38
731.388	-2.62
731.413	6.38
731.438	9.38
731.463	-8.62
731.487	5.38
731.512	0.38
731.537	-6.62
731.562	4.38
731.587	-1.62
731.612	-3.62
731.637	-9.62
731.662	7.38
731.687	-1.62
731.712	-11.62
731.737	8.38
731.762	1.38
731.786	6.38
731.811	7.38
731.836	3.38
731.861	0.38
731.886	5.38
731.911	14.38
731.936	1.38
731.961	6.38
731.986	3.38
732.01	13.38
732.035	11.38
732.06	11.38
732.085	13.38
732.11	-1.62
732.135	-4.62
732.16	4.38
732.184	-0.62
732.209	6.38
732.234	8.38
732.259	9.38
732.284	12.38
732.309	-4.62
732.334	4.38
732.358	-3.62
732.383	-4.62
732.408	-2.62
732.433	8.38
732.458	-2.62
732.482	18.38
732.507	9.38
732.532	-15.62
732.557	4.38
732.582	27.38
732.607	29.38
732.631	30.38
732.656	96.38
732.681	144.38
732.706	331.38
732.73	485.38
732.755	416.38
732.78	312.38
732.805	244.38
732.83	182.38
732.854	132.38
732.879	68.38
732.904	34.38
732.929	17.38
732.953	5.38
732.978	-2.62
733.003	0.38
733.028	11.38
733.052	21.38
733.077	12.38
733.102	14.38
733.127	-5.62
733.151	4.38
733.176	0.38
733.201	2.38
733.226	-4.62
733.25	1.38
733.275	-2.62
733.3	7.38
733.324	14.38
733.349	13.38
733.374	14.38
733.399	-0.62
733.423	-6.62
733.448	-6.62
733.473	-1.62
733.497	0.38
733.522	-5.62
733.547	15.38
733.571	23.38
733.596	4.38
733.621	5.38
733.646	-4.62
733.67	1.38
733.695	-14.62
733.72	2.38
733.744	4.38
733.769	21.38
733.794	9.38
733.818	-0.62
733.843	-3.62
733.867	-9.62
733.892	-8.62
733.917	-3.62
733.941	8.38
733.966	-3.62
733.991	13.38
734.015	9.38
734.04	3.38
734.065	9.38
734.089	8.38
734.114	-2.62
734.138	1.38
734.163	-6.62
734.188	21.38
734.212	10.38
734.237	-1.62
734.261	-5.62
734.286	-10.62
734.311	-6.62
734.335	-6.62
734.36	-4.62
734.384	-9.62
734.409	14.38
734.434	-3.62
734.458	12.38
734.483	-11.62
734.507	-16.62
734.532	-9.62
734.556	1.38
734.581	-7.62
734.606	-18.62
734.63	-6.62
734.655	-7.62
734.679	1.38
734.704	-6.62
734.728	-19.62
734.753	-15.62
734.777	4.38
734.802	-0.62
734.826	-8.62
734.851	5.38
734.876	19.38
734.9	9.38
734.925	5.38
734.949	5.38
734.974	6.38
734.998	-3.62
735.023	-15.62
735.047	-13.62
735.072	7.38
735.096	6.38
735.121	9.38
735.145	-10.62
735.17	0.38
735.194	6.38
735.219	-9.62
735.243	-7.62
735.268	4.38
735.292	5.38
735.317	0.38
735.341	-2.62
735.365	-19.62
735.39	7.38
735.414	-13.62
735.439	-2.62
735.463	0.38
735.488	9.38
735.512	1.38
735.537	0.38
735.561	2.38
735.586	-7.62
735.61	1.38
735.634	0.38
735.659	-1.62
735.683	22.38
735.708	-4.62
735.732	-12.62
735.757	-1.62
735.781	17.38
735.805	6.38
735.83	-5.62
735.854	-23.62
735.879	-2.62
735.903	24.38
735.927	-1.62
735.952	-8.62
735.976	7.38
736.001	-5.62
736.025	5.38
736.049	5.38
736.074	6.38
736.098	9.38
736.123	9.38
736.147	-2.62
736.171	10.38
736.196	7.38
736.22	-0.62
736.244	7.38
736.269	-7.62
736.293	-9.62
736.317	10.38
736.342	9.38
736.366	7.38
736.39	16.38
736.415	4.38
736.439	3.38
736.463	16.38
736.488	14.38
736.512	5.38
736.536	-0.62
736.561	21.38
736.585	0.38
736.609	9.38
736.634	-5.62
736.658	10.38
736.682	-25.62
736.707	-14.62
736.731	-6.62
736.755	-6.62
736.78	9.38
736.804	27.38
736.828	8.38
736.852	-5.62
736.877	2.38
736.901	14.38
736.925	0.38
736.949	4.38
736.974	-7.62
736.998	-8.62
737.022	-6.62
737.047	-6.62
737.071	7.38
737.095	-20.62
737.119	32.38
737.144	-3.62
737.168	-14.62
737.192	-9.62
737.216	11.38
737.241	2.38
737.265	14.38
737.289	8.38
737.313	3.38
737.337	10.38
737.362	9.38
737.386	-1.62
737.41	-7.62
737.434	0.38
737.459	1.38
737.483	22.38
737.507	13.38
737.531	5.38
737.555	6.38
737.58	-3.62
737.604	7.38
737.628	-0.62
737.652	5.38
737.676	10.38
737.701	13.38
737.725	4.38
737.749	11.38
737.773	-1.62
737.797	9.38
737.821	-4.62
737.846	-1.62
737.87	21.38
737.894	12.38
737.918	-2.62
737.942	-10.62
737.966	11.38
737.99	19.38
738.015	7.38
738.039	17.38
738.063	-5.62
738.087	9.38
738.111	-15.62
738.135	-1.62
738.159	-5.62
738.184	9.38
738.208	13.38
738.232	11.38
738.256	12.38
738.28	16.38
738.304	10.38
738.328	-10.62
738.352	-10.62
738.376	-19.62
738.4	3.38
738.425	2.38
738.449	-6.62
738.473	26.38
738.497	11.38
738.521	3.38
738.545	28.38
738.569	21.38
738.593	18.38
738.617	14.38
738.641	9.38
738.665	3.38
738.689	14.38
738.713	4.38
738.737	7.38
738.762	15.38
738.786	8.38
738.81	0.38
738.834	16.38
738.858	3.38
738.882	11.38
738.906	-1.62
738.93	4.38
738.954	0.38
738.978	12.38
739.002	-0.62
739.026	12.38
739.05	7.38
739.074	-0.62
739.098	25.38
739.122	24.38
739.146	12.38
739.17	8.38
739.194	10.38
739.218	-3.62
739.242	3.38
739.266	-2.62
739.29	5.38
739.314	8.38
739.338	0.38
739.362	-2.62
739.386	-2.62
739.41	-25.62
739.434	3.38
739.458	21.38
739.482	19.38
739.506	9.38
739.53	11.38
739.554	11.38
739.577	0.38
739.601	0.38
739.625	2.38
739.649	0.38
739.673	4.38
739.697	22.38
739.721	5.38
739.745	14.38
739.769	5.38
739.793	5.38
739.817	6.38
739.841	-3.62
739.865	-10.62
739.889	-15.62
739.912	5.38
739.936	-3.62
739.96	18.38
739.984	14.38
740.008	5.38
740.032	-17.62
740.056	-10.62
740.08	9.38
740.104	3.38
740.127	7.38
740.151	9.38
740.175	10.38
740.199	-0.62
740.223	45.38
740.247	13.38
740.271	1.38
740.295	-3.62
740.318	-17.62
740.342	-8.62
740.366	-6.62
740.39	-1.62
740.414	3.38
740.438	-5.62
740.461	31.38
740.485	22.38
740.509	-9.62
740.533	23.38
740.557	-3.62
740.581	-5.62
740.604	-11.62
740.628	-5.62
740.652	16.38
740.676	12.38
740.7	26.38
740.723	-5.62
740.747	-13.62
740.771	-1.62
740.795	-10.62
740.819	-0.62
740.842	5.38
740.866	10.38
740.89	6.38
740.914	4.38
740.938	-16.62
740.961	16.38
740.985	0.38
741.009	-5.62
741.033	0.38
741.056	4.38
741.08	5.38
741.104	-3.62
741.128	-4.62
741.151	10.38
741.175	-9.62
741.199	6.38
741.223	2.38
741.246	-5.62
741.27	16.38
741.294	16.38
741.318	-2.62
741.341	3.38
741.365	3.38
741.389	-6.62
741.413	14.38
741.436	24.38
741.46	4.38
741.484	17.38
741.507	-3.62
741.531	40.38
741.555	25.38
741.579	4.38
741.602	-0.62
741.626	-1.62
741.65	5.38
741.673	6.38
741.697	5.38
741.721	14.38
741.744	-6.62
741.768	-2.62
741.792	-5.62
741.815	-4.62
741.839	9.38
741.863	9.38
741.886	26.38
741.91	-0.62
741.934	1.38
741.957	-13.62
741.981	7.38
742.005	-2.62
742.028	-15.62
742.052	6.38
742.075	10.38
742.099	15.38
742.123	0.38
742.146	7.38
742.17	-6.62
742.194	-14.62
742.217	-6.62
742.241	-8.62
742.264	13.38
742.288	15.38
742.312	0.38
742.335	0.38
742.359	3.38
742.382	2.38
742.406	5.38
742.43	-3.62
742.453	-4.62
742.477	-7.62
742.5	-0.62
742.524	-11.62
742.548	-4.62
742.571	2.38
742.595	4.38
742.618	-15.62
742.642	-6.62
742.665	9.38
742.689	1.38
742.712	9.38
742.736	-1.62
742.76	5.38
742.783	9.38
742.807	-2.62
742.83	1.38
742.854	-13.62
742.877	-3.62
742.901	13.38
742.924	-4.62
742.948	16.38
742.971	8.38
742.995	6.38
743.018	-9.62
743.042	-5.62
743.065	-17.62
743.089	-8.62
743.112	10.38
743.136	7.38
743.159	-3.62
743.183	-12.62
743.206	-2.62
743.23	-1.62
743.253	5.38
743.277	8.38
743.3	-3.62
743.324	0.38
743.347	4.38
743.371	21.38
743.394	23.38
743.418	21.38
743.441	11.38
743.465	9.38
743.488	7.38
743.512	0.38
743.535	2.38
743.558	-5.62
743.582	4.38
743.605	8.38
743.629	8.38
743.652	-0.62
743.676	-0.62
743.699	-6.62
743.723	-1.62
743.746	4.38
743.769	4.38
743.793	3.38
743.816	-9.62
743.84	20.38
743.863	1.38
743.886	4.38
743.91	18.38
743.933	5.38
743.957	3.38
743.98	4.38
744.003	-7.62
744.027	0.38
744.05	6.38
744.074	10.38
744.097	-12.62
744.12	-9.62
744.144	-11.62
744.167	2.38
744.19	-1.62
744.214	-1.62
744.237	-7.62
744.26	19.38
744.284	-5.62
744.307	-17.62
744.331	-9.62
744.354	12.38
744.377	-9.62
744.401	-1.62
744.424	-7.62
744.447	-7.62
744.471	-1.62
