Data from HighRes_mercury_15_13_11_07_2024_HR4C61891__99__15-14-33-085.txt Node

Date: Thu Nov 07 15:14:33 EST 2024
User: crc00042
Spectrometer: HR4C6189
Trigger mode: 4
Integration Time (sec): 1.000000E-1
Scans to average: 1
Electric dark correction enabled: true
Nonlinearity correction enabled: false
Boxcar width: 0
XAxis mode: Wavelengths
Number of Pixels in Spectrum: 3648
>>>>>Begin Spectral Data<<<<<
639.567	-49.08
639.602	-49.08
639.636	-49.08
639.67	-47.08
639.704	-16.08
639.738	-3.08
639.773	11.92
639.807	-10.08
639.841	-4.08
639.875	8.92
639.909	-7.08
639.943	-10.08
639.978	-0.08
640.012	0.92
640.046	9.92
640.08	10.92
640.114	-0.08
640.148	-8.08
640.182	-3.08
640.217	5.92
640.251	28.92
640.285	9.92
640.319	-10.08
640.353	9.92
640.387	1.92
640.421	-3.08
640.455	-3.08
640.49	-2.08
640.524	-5.08
640.558	9.92
640.592	7.92
640.626	16.92
640.66	9.92
640.694	-6.08
640.728	10.92
640.762	24.92
640.796	24.92
640.83	14.92
640.865	-6.08
640.899	-1.08
640.933	2.92
640.967	7.92
641.001	1.92
641.035	4.92
641.069	-8.08
641.103	-15.08
641.137	-13.08
641.171	-25.08
641.205	2.92
641.239	16.92
641.273	17.92
641.307	11.92
641.341	5.92
641.375	-1.08
641.409	-5.08
641.443	6.92
641.477	20.92
641.511	24.92
641.545	2.92
641.579	-9.08
641.614	7.92
641.648	14.92
641.682	-13.08
641.716	11.92
641.75	6.92
641.784	11.92
641.818	13.92
641.852	6.92
641.886	3.92
641.919	16.92
641.953	0.92
641.987	-25.08
642.021	-4.08
642.055	5.92
642.089	9.92
642.123	-5.08
642.157	15.92
642.191	1.92
642.225	10.92
642.259	10.92
642.293	2.92
642.327	-1.08
642.361	0.92
642.395	4.92
642.429	14.92
642.463	8.92
642.497	22.92
642.531	1.92
642.565	-1.08
642.599	7.92
642.633	4.92
642.666	20.92
642.7	17.92
642.734	11.92
642.768	-0.08
642.802	3.92
642.836	2.92
642.87	-4.08
642.904	2.92
642.938	16.92
642.972	-0.08
643.005	9.92
643.039	7.92
643.073	12.92
643.107	1.92
643.141	-6.08
643.175	3.92
643.209	11.92
643.243	3.92
643.276	-2.08
643.31	-5.08
643.344	5.92
643.378	6.92
643.412	14.92
643.446	11.92
643.48	1.92
643.513	1.92
643.547	-4.08
643.581	-13.08
643.615	11.92
643.649	-5.08
643.683	-5.08
643.716	-5.08
643.75	-5.08
643.784	-9.08
643.818	1.92
643.852	3.92
643.886	-4.08
643.919	14.92
643.953	-4.08
643.987	4.92
644.021	13.92
644.055	17.92
644.088	4.92
644.122	-13.08
644.156	-7.08
644.19	4.92
644.224	19.92
644.257	10.92
644.291	-18.08
644.325	9.92
644.359	0.92
644.392	31.92
644.426	14.92
644.46	6.92
644.494	-13.08
644.527	-30.08
644.561	-11.08
644.595	-0.08
644.629	-7.08
644.662	5.92
644.696	20.92
644.73	-12.08
644.764	3.92
644.797	-8.08
644.831	1.92
644.865	21.92
644.899	2.92
644.932	12.92
644.966	8.92
645	14.92
645.033	38.92
645.067	-11.08
645.101	10.92
645.135	1.92
645.168	-1.08
645.202	-3.08
645.236	-1.08
645.269	10.92
645.303	-2.08
645.337	-6.08
645.37	-10.08
645.404	-12.08
645.438	6.92
645.471	-2.08
645.505	2.92
645.539	-0.08
645.572	-13.08
645.606	-7.08
645.64	2.92
645.673	10.92
645.707	8.92
645.741	-2.08
645.774	-6.08
645.808	-16.08
645.842	-7.08
645.875	15.92
645.909	-0.08
645.943	-6.08
645.976	-2.08
646.01	4.92
646.043	3.92
646.077	15.92
646.111	-0.08
646.144	20.92
646.178	11.92
646.212	-2.08
646.245	-18.08
646.279	9.92
646.312	18.92
646.346	32.92
646.38	-7.08
646.413	12.92
646.447	11.92
646.48	-0.08
646.514	11.92
646.547	6.92
646.581	9.92
646.615	-4.08
646.648	-4.08
646.682	-7.08
646.715	-1.08
646.749	3.92
646.782	-13.08
646.816	-10.08
646.85	3.92
646.883	1.92
646.917	3.92
646.95	8.92
646.984	-1.08
647.017	5.92
647.051	11.92
647.084	-6.08
647.118	-1.08
647.151	6.92
647.185	1.92
647.218	-9.08
647.252	-2.08
647.285	2.92
647.319	-10.08
647.353	-7.08
647.386	19.92
647.42	21.92
647.453	2.92
647.487	-7.08
647.52	-4.08
647.553	0.92
647.587	-10.08
647.62	3.92
647.654	5.92
647.687	-0.08
647.721	6.92
647.754	2.92
647.788	8.92
647.821	-4.08
647.855	5.92
647.888	12.92
647.922	9.92
647.955	15.92
647.989	5.92
648.022	-1.08
648.055	8.92
648.089	-11.08
648.122	20.92
648.156	-1.08
648.189	6.92
648.223	8.92
648.256	18.92
648.29	6.92
648.323	3.92
648.356	20.92
648.39	-2.08
648.423	13.92
648.457	-0.08
648.49	-8.08
648.523	7.92
648.557	-8.08
648.59	-2.08
648.624	-3.08
648.657	-3.08
648.69	4.92
648.724	-1.08
648.757	9.92
648.791	14.92
648.824	7.92
648.857	18.92
648.891	6.92
648.924	5.92
648.957	20.92
648.991	-6.08
649.024	13.92
649.057	-9.08
649.091	3.92
649.124	4.92
649.158	6.92
649.191	23.92
649.224	9.92
649.258	-3.08
649.291	13.92
649.324	8.92
649.358	-0.08
649.391	5.92
649.424	-9.08
649.458	-5.08
649.491	5.92
649.524	-16.08
649.557	-5.08
649.591	-18.08
649.624	5.92
649.657	-3.08
649.691	9.92
649.724	5.92
649.757	1.92
649.791	-11.08
649.824	16.92
649.857	12.92
649.89	-1.08
649.924	-7.08
649.957	-5.08
649.99	-22.08
650.023	0.92
650.057	-15.08
650.09	-6.08
650.123	3.92
650.157	21.92
650.19	34.92
650.223	10.92
650.256	-8.08
650.29	-8.08
650.323	-1.08
650.356	15.92
650.389	4.92
650.423	-6.08
650.456	0.92
650.489	8.92
650.522	9.92
650.555	22.92
650.589	19.92
650.622	11.92
650.655	21.92
650.688	21.92
650.721	-1.08
650.755	3.92
650.788	8.92
650.821	6.92
650.854	4.92
650.887	8.92
650.921	-8.08
650.954	-8.08
650.987	2.92
651.02	-7.08
651.053	-10.08
651.087	-16.08
651.12	12.92
651.153	-2.08
651.186	-0.08
651.219	-9.08
651.252	16.92
651.286	6.92
651.319	-16.08
651.352	13.92
651.385	6.92
651.418	-2.08
651.451	15.92
651.484	17.92
651.518	-6.08
651.551	10.92
651.584	-10.08
651.617	7.92
651.65	-5.08
651.683	15.92
651.716	2.92
651.749	-7.08
651.783	0.92
651.816	13.92
651.849	12.92
651.882	8.92
651.915	3.92
651.948	5.92
651.981	-0.08
652.014	-21.08
652.047	-2.08
652.08	2.92
652.114	9.92
652.147	4.92
652.18	-11.08
652.213	31.92
652.246	-4.08
652.279	-1.08
652.312	12.92
652.345	-0.08
652.378	-3.08
652.411	19.92
652.444	10.92
652.477	7.92
652.51	13.92
652.543	-23.08
652.576	-2.08
652.609	-14.08
652.642	-13.08
652.675	7.92
652.709	16.92
652.742	3.92
652.775	14.92
652.808	1.92
652.841	-11.08
652.874	-7.08
652.907	4.92
652.94	-3.08
652.973	-17.08
653.006	-15.08
653.039	-1.08
653.072	5.92
653.105	3.92
653.138	-9.08
653.171	-12.08
653.204	17.92
653.237	7.92
653.27	6.92
653.303	4.92
653.336	-2.08
653.368	-2.08
653.401	-5.08
653.434	-1.08
653.467	1.92
653.5	-29.08
653.533	-10.08
653.566	1.92
653.599	4.92
653.632	-0.08
653.665	0.92
653.698	-10.08
653.731	-10.08
653.764	-5.08
653.797	-2.08
653.83	18.92
653.863	-4.08
653.896	-0.08
653.929	-9.08
653.961	-7.08
653.994	-1.08
654.027	-6.08
654.06	4.92
654.093	-0.08
654.126	-3.08
654.159	-9.08
654.192	3.92
654.225	-3.08
654.258	1.92
654.29	0.92
654.323	20.92
654.356	-3.08
654.389	3.92
654.422	-1.08
654.455	8.92
654.488	3.92
654.521	-6.08
654.553	-16.08
654.586	9.92
654.619	-1.08
654.652	-3.08
654.685	18.92
654.718	8.92
654.751	8.92
654.783	-11.08
654.816	17.92
654.849	2.92
654.882	-11.08
654.915	-18.08
654.948	-7.08
654.98	-5.08
655.013	6.92
655.046	-6.08
655.079	-10.08
655.112	12.92
655.144	-19.08
655.177	1.92
655.21	15.92
655.243	8.92
655.276	-11.08
655.308	-18.08
655.341	-14.08
655.374	16.92
655.407	0.92
655.44	9.92
655.472	-6.08
655.505	2.92
655.538	-2.08
655.571	4.92
655.603	11.92
655.636	-5.08
655.669	0.92
655.702	4.92
655.734	-12.08
655.767	-4.08
655.8	7.92
655.833	13.92
655.865	9.92
655.898	-16.08
655.931	2.92
655.964	19.92
655.996	-2.08
656.029	19.92
656.062	2.92
656.095	5.92
656.127	-11.08
656.16	-11.08
656.193	-14.08
656.225	11.92
656.258	14.92
656.291	11.92
656.324	14.92
656.356	1.92
656.389	13.92
656.422	3.92
656.454	-5.08
656.487	-0.08
656.52	4.92
656.552	0.92
656.585	5.92
656.618	21.92
656.65	7.92
656.683	4.92
656.716	20.92
656.748	-11.08
656.781	-19.08
656.814	-2.08
656.846	3.92
656.879	2.92
656.912	6.92
656.944	-9.08
656.977	-12.08
657.01	4.92
657.042	7.92
657.075	1.92
657.108	-9.08
657.14	11.92
657.173	19.92
657.205	20.92
657.238	12.92
657.271	8.92
657.303	2.92
657.336	17.92
657.369	-5.08
657.401	7.92
657.434	1.92
657.466	0.92
657.499	-3.08
657.532	-0.08
657.564	0.92
657.597	-7.08
657.629	-2.08
657.662	-0.08
657.694	1.92
657.727	-15.08
657.76	-7.08
657.792	-13.08
657.825	-17.08
657.857	-3.08
657.89	-8.08
657.922	6.92
657.955	-15.08
657.987	0.92
658.02	8.92
658.053	2.92
658.085	1.92
658.118	-8.08
658.15	-3.08
658.183	4.92
658.215	-0.08
658.248	-11.08
658.28	5.92
658.313	9.92
658.345	8.92
658.378	-11.08
658.41	0.92
658.443	1.92
658.475	-9.08
658.508	9.92
658.54	8.92
658.573	-10.08
658.605	16.92
658.638	-5.08
658.67	6.92
658.703	0.92
658.735	-14.08
658.768	-0.08
658.8	-13.08
658.833	22.92
658.865	1.92
658.898	-1.08
658.93	-5.08
658.963	1.92
658.995	-9.08
659.028	8.92
659.06	-15.08
659.092	-27.08
659.125	-16.08
659.157	16.92
659.19	-0.08
659.222	-11.08
659.255	-0.08
659.287	5.92
659.32	-7.08
659.352	-4.08
659.384	13.92
659.417	2.92
659.449	0.92
659.482	18.92
659.514	-6.08
659.546	-6.08
659.579	-12.08
659.611	-0.08
659.644	-16.08
659.676	-5.08
659.708	-25.08
659.741	-14.08
659.773	-10.08
659.806	-0.08
659.838	-3.08
659.87	11.92
659.903	-11.08
659.935	13.92
659.967	13.92
660	1.92
660.032	-5.08
660.065	-1.08
660.097	-7.08
660.129	-1.08
660.162	6.92
660.194	-9.08
660.226	5.92
660.259	0.92
660.291	-7.08
660.323	3.92
660.356	3.92
660.388	2.92
660.42	-17.08
660.453	8.92
660.485	23.92
660.517	21.92
660.55	7.92
660.582	0.92
660.614	3.92
660.647	0.92
660.679	-16.08
660.711	8.92
660.743	-8.08
660.776	-14.08
660.808	-11.08
660.84	-10.08
660.873	15.92
660.905	18.92
660.937	-0.08
660.969	-3.08
661.002	0.92
661.034	-3.08
661.066	5.92
661.099	12.92
661.131	28.92
661.163	20.92
661.195	-2.08
661.228	10.92
661.26	-0.08
661.292	-11.08
661.324	5.92
661.357	1.92
661.389	1.92
661.421	17.92
661.453	2.92
661.485	-1.08
661.518	-4.08
661.55	-3.08
661.582	-18.08
661.614	8.92
661.647	11.92
661.679	-3.08
661.711	-0.08
661.743	-2.08
661.775	5.92
661.808	19.92
661.84	2.92
661.872	9.92
661.904	-4.08
661.936	4.92
661.969	0.92
662.001	-11.08
662.033	1.92
662.065	15.92
662.097	7.92
662.129	2.92
662.162	1.92
662.194	-0.08
662.226	11.92
662.258	15.92
662.29	-11.08
662.322	-13.08
662.355	-20.08
662.387	12.92
662.419	9.92
662.451	16.92
662.483	5.92
662.515	4.92
662.547	-12.08
662.58	-7.08
662.612	-10.08
662.644	-14.08
662.676	-7.08
662.708	17.92
662.74	-3.08
662.772	14.92
662.804	9.92
662.836	5.92
662.869	2.92
662.901	1.92
662.933	-3.08
662.965	5.92
662.997	0.92
663.029	13.92
663.061	13.92
663.093	-4.08
663.125	20.92
663.157	-4.08
663.189	3.92
663.221	15.92
663.254	-2.08
663.286	-1.08
663.318	-7.08
663.35	-12.08
663.382	2.92
663.414	17.92
663.446	-12.08
663.478	-2.08
663.51	29.92
663.542	-1.08
663.574	-6.08
663.606	4.92
663.638	3.92
663.67	-14.08
663.702	-9.08
663.734	-0.08
663.766	1.92
663.798	-4.08
663.83	0.92
663.862	3.92
663.894	18.92
663.926	-6.08
663.958	33.92
663.99	12.92
664.022	-12.08
664.054	15.92
664.086	-11.08
664.118	-7.08
664.15	-2.08
664.182	3.92
664.214	9.92
664.246	18.92
664.278	9.92
664.31	24.92
664.342	6.92
664.374	-1.08
664.406	-2.08
664.438	12.92
664.47	25.92
664.502	0.92
664.534	0.92
664.566	-9.08
664.598	21.92
664.63	-4.08
664.662	16.92
664.693	-9.08
664.725	-14.08
664.757	-3.08
664.789	-17.08
664.821	-4.08
664.853	14.92
664.885	-5.08
664.917	13.92
664.949	6.92
664.981	14.92
665.013	-4.08
665.045	-9.08
665.076	-3.08
665.108	12.92
665.14	-13.08
665.172	-6.08
665.204	1.92
665.236	0.92
665.268	23.92
665.3	5.92
665.331	-4.08
665.363	6.92
665.395	-1.08
665.427	2.92
665.459	2.92
665.491	4.92
665.523	16.92
665.555	-3.08
665.586	6.92
665.618	1.92
665.65	-3.08
665.682	0.92
665.714	14.92
665.746	-21.08
665.777	-16.08
665.809	-1.08
665.841	8.92
665.873	1.92
665.905	4.92
665.937	11.92
665.968	6.92
666	1.92
666.032	9.92
666.064	-5.08
666.096	3.92
666.127	-4.08
666.159	1.92
666.191	17.92
666.223	0.92
666.255	-2.08
666.286	8.92
666.318	-11.08
666.35	17.92
666.382	4.92
666.413	-10.08
666.445	-2.08
666.477	-29.08
666.509	-14.08
666.54	-0.08
666.572	-20.08
666.604	-2.08
666.636	2.92
666.667	4.92
666.699	2.92
666.731	-1.08
666.763	-5.08
666.794	0.92
666.826	-15.08
666.858	-6.08
666.89	0.92
666.921	-6.08
666.953	13.92
666.985	21.92
667.017	8.92
667.048	11.92
667.08	-0.08
667.112	-7.08
667.143	-13.08
667.175	3.92
667.207	14.92
667.238	-3.08
667.27	0.92
667.302	-5.08
667.334	-3.08
667.365	12.92
667.397	9.92
667.429	-13.08
667.46	8.92
667.492	3.92
667.524	0.92
667.555	2.92
667.587	1.92
667.619	2.92
667.65	4.92
667.682	14.92
667.714	2.92
667.745	9.92
667.777	3.92
667.808	5.92
667.84	9.92
667.872	3.92
667.903	24.92
667.935	1.92
667.967	3.92
667.998	1.92
668.03	-3.08
668.061	10.92
668.093	4.92
668.125	-12.08
668.156	2.92
668.188	0.92
668.22	-4.08
668.251	14.92
668.283	10.92
668.314	36.92
668.346	0.92
668.377	25.92
668.409	1.92
668.441	24.92
668.472	22.92
668.504	28.92
668.535	14.92
668.567	12.92
668.599	11.92
668.63	3.92
668.662	3.92
668.693	10.92
668.725	-26.08
668.756	-1.08
668.788	-3.08
668.819	-11.08
668.851	-0.08
668.882	8.92
668.914	4.92
668.946	0.92
668.977	1.92
669.009	-0.08
669.04	1.92
669.072	11.92
669.103	1.92
669.135	-26.08
669.166	0.92
669.198	2.92
669.229	0.92
669.261	2.92
669.292	-15.08
669.324	-9.08
669.355	4.92
669.387	-1.08
669.418	13.92
669.45	-3.08
669.481	11.92
669.513	8.92
669.544	5.92
669.576	17.92
669.607	9.92
669.639	6.92
669.67	-12.08
669.701	5.92
669.733	-6.08
669.764	4.92
669.796	8.92
669.827	-4.08
669.859	-6.08
669.89	13.92
669.922	23.92
669.953	-0.08
669.985	17.92
670.016	15.92
670.047	15.92
670.079	1.92
670.11	1.92
670.142	3.92
670.173	-8.08
670.204	-2.08
670.236	-8.08
670.267	-25.08
670.299	-3.08
670.33	11.92
670.362	10.92
670.393	-14.08
670.424	13.92
670.456	-11.08
670.487	-12.08
670.518	11.92
670.55	7.92
670.581	5.92
670.613	2.92
670.644	-8.08
670.675	-18.08
670.707	-0.08
670.738	-5.08
670.769	-1.08
670.801	-10.08
670.832	5.92
670.864	-0.08
670.895	8.92
670.926	1.92
670.958	-7.08
670.989	6.92
671.02	-8.08
671.052	0.92
671.083	7.92
671.114	9.92
671.146	15.92
671.177	11.92
671.208	-5.08
671.24	-7.08
671.271	0.92
671.302	5.92
671.333	-17.08
671.365	-6.08
671.396	-7.08
671.427	0.92
671.459	2.92
671.49	5.92
671.521	3.92
671.553	16.92
671.584	17.92
671.615	7.92
671.646	3.92
671.678	-9.08
671.709	-7.08
671.74	-2.08
671.771	-6.08
671.803	-11.08
671.834	9.92
671.865	0.92
671.896	6.92
671.928	-1.08
671.959	-5.08
671.99	-4.08
672.021	9.92
672.053	-2.08
672.084	17.92
672.115	3.92
672.146	10.92
672.178	-0.08
672.209	15.92
672.24	4.92
672.271	17.92
672.303	11.92
672.334	-4.08
672.365	2.92
672.396	8.92
672.427	7.92
672.459	-6.08
672.49	18.92
672.521	15.92
672.552	20.92
672.583	10.92
672.615	1.92
672.646	10.92
672.677	-1.08
672.708	-5.08
672.739	5.92
672.77	3.92
672.802	10.92
672.833	-2.08
672.864	4.92
672.895	-10.08
672.926	6.92
672.957	-8.08
672.989	3.92
673.02	1.92
673.051	-4.08
673.082	10.92
673.113	5.92
673.144	7.92
673.175	13.92
673.206	-1.08
673.238	3.92
673.269	9.92
673.3	3.92
673.331	-0.08
673.362	1.92
673.393	0.92
673.424	7.92
673.455	20.92
673.487	-10.08
673.518	3.92
673.549	0.92
673.58	-0.08
673.611	-9.08
673.642	9.92
673.673	-5.08
673.704	3.92
673.735	0.92
673.766	-13.08
673.797	-1.08
673.828	1.92
673.86	11.92
673.891	-19.08
673.922	-10.08
673.953	6.92
673.984	6.92
674.015	4.92
674.046	-8.08
674.077	3.92
674.108	-8.08
674.139	-14.08
674.17	-3.08
674.201	-11.08
674.232	-7.08
674.263	-10.08
674.294	-5.08
674.325	-35.08
674.356	-11.08
674.387	14.92
674.418	8.92
674.449	-18.08
674.48	-20.08
674.511	-16.08
674.542	1.92
674.573	-10.08
674.604	10.92
674.635	3.92
674.666	-1.08
674.697	10.92
674.728	13.92
674.759	-3.08
674.79	-25.08
674.821	-1.08
674.852	-2.08
674.883	-5.08
674.914	3.92
674.945	-12.08
674.976	4.92
675.007	-4.08
675.038	-12.08
675.069	0.92
675.1	-20.08
675.131	-0.08
675.162	-14.08
675.193	-23.08
675.224	6.92
675.254	0.92
675.285	-2.08
675.316	6.92
675.347	-3.08
675.378	-10.08
675.409	0.92
675.44	5.92
675.471	1.92
675.502	-8.08
675.533	-11.08
675.564	4.92
675.595	-10.08
675.625	28.92
675.656	18.92
675.687	-11.08
675.718	-6.08
675.749	3.92
675.78	-0.08
675.811	4.92
675.842	8.92
675.873	-5.08
675.903	-12.08
675.934	-9.08
675.965	3.92
675.996	-11.08
676.027	-10.08
676.058	-19.08
676.089	-14.08
676.119	-2.08
676.15	-0.08
676.181	11.92
676.212	-1.08
676.243	3.92
676.274	5.92
676.304	-0.08
676.335	-14.08
676.366	-3.08
676.397	-11.08
676.428	5.92
676.459	10.92
676.489	21.92
676.52	5.92
676.551	0.92
676.582	0.92
676.613	3.92
676.643	0.92
676.674	28.92
676.705	2.92
676.736	0.92
676.767	5.92
676.797	13.92
676.828	-0.08
676.859	12.92
676.89	-3.08
676.92	-6.08
676.951	3.92
676.982	1.92
677.013	9.92
677.044	15.92
677.074	16.92
677.105	6.92
677.136	17.92
677.167	-2.08
677.197	4.92
677.228	-5.08
677.259	-3.08
677.289	4.92
677.32	-12.08
677.351	-1.08
677.382	-10.08
677.412	0.92
677.443	2.92
677.474	-9.08
677.505	-15.08
677.535	-9.08
677.566	-4.08
677.597	-1.08
677.627	-7.08
677.658	-6.08
677.689	-6.08
677.72	10.92
677.75	-2.08
677.781	3.92
677.812	9.92
677.842	13.92
677.873	-0.08
677.904	-7.08
677.934	3.92
677.965	6.92
677.996	-18.08
678.026	6.92
678.057	5.92
678.088	-11.08
678.118	-8.08
678.149	-15.08
678.18	-7.08
678.21	-0.08
678.241	6.92
678.272	3.92
678.302	-0.08
678.333	9.92
678.363	0.92
678.394	17.92
678.425	7.92
678.455	-4.08
678.486	-8.08
678.517	-9.08
678.547	3.92
678.578	-3.08
678.608	-16.08
678.639	-5.08
678.67	3.92
678.7	-4.08
678.731	-11.08
678.761	2.92
678.792	7.92
678.823	15.92
678.853	8.92
678.884	-12.08
678.914	15.92
678.945	16.92
678.975	-13.08
679.006	5.92
679.037	-2.08
679.067	28.92
679.098	9.92
679.128	-12.08
679.159	-3.08
679.189	0.92
679.22	-3.08
679.25	-0.08
679.281	-18.08
679.312	-8.08
679.342	0.92
679.373	24.92
679.403	-4.08
679.434	9.92
679.464	-7.08
679.495	-9.08
679.525	13.92
679.556	19.92
679.586	10.92
679.617	12.92
679.647	-13.08
679.678	1.92
679.708	2.92
679.739	-3.08
679.769	-3.08
679.8	-9.08
679.83	5.92
679.861	14.92
679.891	-6.08
679.922	-2.08
679.952	-7.08
679.983	9.92
680.013	4.92
680.044	-15.08
680.074	-9.08
680.105	7.92
680.135	-15.08
680.165	-0.08
680.196	1.92
680.226	4.92
680.257	3.92
680.287	3.92
680.318	-2.08
680.348	-9.08
680.379	14.92
680.409	8.92
680.439	12.92
680.47	8.92
680.5	7.92
680.531	2.92
680.561	13.92
680.592	6.92
680.622	19.92
680.652	6.92
680.683	12.92
680.713	-10.08
680.744	-17.08
680.774	-11.08
680.804	7.92
680.835	1.92
680.865	-2.08
680.896	8.92
680.926	2.92
680.956	-7.08
680.987	2.92
681.017	-5.08
681.047	-9.08
681.078	-10.08
681.108	-1.08
681.139	13.92
681.169	-11.08
681.199	0.92
681.23	-4.08
681.26	-10.08
681.29	-2.08
681.321	-23.08
681.351	-8.08
681.381	-2.08
681.412	12.92
681.442	8.92
681.472	14.92
681.503	8.92
681.533	5.92
681.563	14.92
681.594	-6.08
681.624	10.92
681.654	2.92
681.685	4.92
681.715	21.92
681.745	-8.08
681.775	-3.08
681.806	-11.08
681.836	-1.08
681.866	-4.08
681.897	13.92
681.927	3.92
681.957	-7.08
681.987	-14.08
682.018	-10.08
682.048	-0.08
682.078	5.92
682.109	27.92
682.139	19.92
682.169	-8.08
682.199	1.92
682.23	1.92
682.26	10.92
682.29	-2.08
682.32	3.92
682.351	-10.08
682.381	-1.08
682.411	-9.08
682.441	-18.08
682.472	-14.08
682.502	-18.08
682.532	-3.08
682.562	4.92
682.592	19.92
682.623	10.92
682.653	-4.08
682.683	-14.08
682.713	15.92
682.743	-9.08
682.774	-8.08
682.804	4.92
682.834	18.92
682.864	-10.08
682.894	0.92
682.925	-3.08
682.955	3.92
682.985	-16.08
683.015	4.92
683.045	4.92
683.076	-5.08
683.106	1.92
683.136	0.92
683.166	-6.08
683.196	1.92
683.226	-2.08
683.257	-4.08
683.287	-1.08
683.317	-18.08
683.347	-15.08
683.377	0.92
683.407	11.92
683.437	2.92
683.468	9.92
683.498	-13.08
683.528	-10.08
683.558	4.92
683.588	2.92
683.618	-2.08
683.648	1.92
683.678	2.92
683.708	6.92
683.739	-12.08
683.769	-0.08
683.799	2.92
683.829	7.92
683.859	11.92
683.889	9.92
683.919	-3.08
683.949	-2.08
683.979	-2.08
684.009	10.92
684.039	0.92
684.07	-7.08
684.1	13.92
684.13	8.92
684.16	13.92
684.19	10.92
684.22	9.92
684.25	-18.08
684.28	-17.08
684.31	16.92
684.34	-1.08
684.37	7.92
684.4	0.92
684.43	6.92
684.46	-2.08
684.49	5.92
684.52	3.92
684.55	6.92
684.58	-13.08
684.61	-6.08
684.64	2.92
684.67	0.92
684.7	-7.08
684.73	2.92
684.76	-1.08
684.79	10.92
684.82	-7.08
684.85	-5.08
684.88	-3.08
684.91	-9.08
684.94	-12.08
684.97	-7.08
685	4.92
685.03	1.92
685.06	-4.08
685.09	-1.08
685.12	16.92
685.15	-0.08
685.18	-2.08
685.21	-8.08
685.24	-4.08
685.27	2.92
685.3	5.92
685.33	7.92
685.36	-2.08
685.39	-18.08
685.42	-11.08
685.45	-12.08
685.48	7.92
685.51	10.92
685.54	10.92
685.569	-6.08
685.599	13.92
685.629	9.92
685.659	17.92
685.689	6.92
685.719	-6.08
685.749	-2.08
685.779	0.92
685.809	21.92
685.839	-3.08
685.869	-7.08
685.898	14.92
685.928	5.92
685.958	6.92
685.988	15.92
686.018	10.92
686.048	1.92
686.078	8.92
686.108	-6.08
686.137	-1.08
686.167	14.92
686.197	-9.08
686.227	9.92
686.257	24.92
686.287	16.92
686.317	4.92
686.346	-7.08
686.376	0.92
686.406	-5.08
686.436	12.92
686.466	-2.08
686.496	8.92
686.525	17.92
686.555	14.92
686.585	17.92
686.615	6.92
686.645	7.92
686.675	11.92
686.704	9.92
686.734	14.92
686.764	-6.08
686.794	8.92
686.824	-16.08
686.853	3.92
686.883	2.92
686.913	8.92
686.943	7.92
686.973	-0.08
687.002	8.92
687.032	18.92
687.062	-9.08
687.092	23.92
687.121	2.92
687.151	4.92
687.181	1.92
687.211	-3.08
687.24	-6.08
687.27	-2.08
687.3	5.92
687.33	-4.08
687.359	-16.08
687.389	3.92
687.419	-2.08
687.449	10.92
687.478	15.92
687.508	8.92
687.538	8.92
687.568	2.92
687.597	-14.08
687.627	-14.08
687.657	3.92
687.686	0.92
687.716	13.92
687.746	-1.08
687.776	1.92
687.805	6.92
687.835	7.92
687.865	23.92
687.894	4.92
687.924	0.92
687.954	-0.08
687.983	4.92
688.013	9.92
688.043	13.92
688.072	0.92
688.102	4.92
688.132	2.92
688.161	4.92
688.191	-6.08
688.221	26.92
688.25	-0.08
688.28	4.92
688.31	-4.08
688.339	7.92
688.369	-4.08
688.399	-6.08
688.428	4.92
688.458	2.92
688.488	-2.08
688.517	11.92
688.547	13.92
688.576	20.92
688.606	-2.08
688.636	-17.08
688.665	12.92
688.695	19.92
688.725	6.92
688.754	8.92
688.784	1.92
688.813	15.92
688.843	20.92
688.873	0.92
688.902	5.92
688.932	-2.08
688.961	-18.08
688.991	7.92
689.02	-6.08
689.05	-6.08
689.08	16.92
689.109	1.92
689.139	-1.08
689.168	-16.08
689.198	3.92
689.227	-3.08
689.257	-3.08
689.287	7.92
689.316	1.92
689.346	-2.08
689.375	-18.08
689.405	17.92
689.434	6.92
689.464	-0.08
689.493	-10.08
689.523	-16.08
689.552	-14.08
689.582	-7.08
689.611	-5.08
689.641	-1.08
689.67	-11.08
689.7	-6.08
689.73	11.92
689.759	3.92
689.789	6.92
689.818	0.92
689.848	1.92
689.877	14.92
689.906	1.92
689.936	-18.08
689.965	10.92
689.995	2.92
690.024	10.92
690.054	-0.08
690.083	-4.08
690.113	-0.08
690.142	-4.08
690.172	13.92
690.201	17.92
690.231	-2.08
690.26	-1.08
690.29	2.92
690.319	10.92
690.348	6.92
690.378	28.92
690.407	9.92
690.437	2.92
690.466	-11.08
690.496	-2.08
690.525	0.92
690.555	-14.08
690.584	-7.08
690.613	-4.08
690.643	6.92
690.672	15.92
690.702	15.92
690.731	-6.08
690.76	23.92
690.79	44.92
690.819	40.92
690.849	47.92
690.878	24.92
690.907	28.92
690.937	25.92
690.966	22.92
690.996	19.92
691.025	11.92
691.054	6.92
691.084	4.92
691.113	8.92
691.142	7.92
691.172	8.92
691.201	27.92
691.23	-24.08
691.26	0.92
691.289	11.92
691.319	-2.08
691.348	-3.08
691.377	13.92
691.407	14.92
691.436	5.92
691.465	-2.08
691.495	-5.08
691.524	-5.08
691.553	-17.08
691.583	-0.08
691.612	22.92
691.641	11.92
691.67	8.92
691.7	10.92
691.729	-8.08
691.758	-3.08
691.788	-3.08
691.817	-5.08
691.846	-2.08
691.876	0.92
691.905	14.92
691.934	-8.08
691.963	13.92
691.993	5.92
692.022	-7.08
692.051	-4.08
692.081	14.92
692.11	9.92
692.139	10.92
692.168	8.92
692.198	13.92
692.227	8.92
692.256	0.92
692.285	-5.08
692.315	0.92
692.344	-2.08
692.373	1.92
692.402	-1.08
692.432	-9.08
692.461	3.92
692.49	8.92
692.519	1.92
692.548	17.92
692.578	0.92
692.607	4.92
692.636	-19.08
692.665	-1.08
692.694	8.92
692.724	-1.08
692.753	-3.08
692.782	1.92
692.811	-16.08
692.84	5.92
692.87	10.92
692.899	-16.08
692.928	-9.08
692.957	3.92
692.986	6.92
693.016	4.92
693.045	1.92
693.074	-8.08
693.103	-1.08
693.132	10.92
693.161	23.92
693.191	5.92
693.22	-14.08
693.249	-1.08
693.278	-2.08
693.307	24.92
693.336	-13.08
693.365	-20.08
693.395	1.92
693.424	12.92
693.453	39.92
693.482	14.92
693.511	8.92
693.54	10.92
693.569	4.92
693.598	-2.08
693.628	7.92
693.657	8.92
693.686	18.92
693.715	8.92
693.744	6.92
693.773	13.92
693.802	2.92
693.831	-0.08
693.86	23.92
693.889	11.92
693.919	10.92
693.948	-5.08
693.977	-6.08
694.006	11.92
694.035	2.92
694.064	-13.08
694.093	-1.08
694.122	-3.08
694.151	0.92
694.18	21.92
694.209	13.92
694.238	16.92
694.267	13.92
694.296	-1.08
694.325	5.92
694.354	20.92
694.383	3.92
694.412	-6.08
694.441	-11.08
694.471	8.92
694.5	-0.08
694.529	-4.08
694.558	18.92
694.587	7.92
694.616	5.92
694.645	16.92
694.674	25.92
694.703	5.92
694.732	11.92
694.761	-0.08
694.79	18.92
694.819	0.92
694.848	-5.08
694.877	11.92
694.906	33.92
694.935	11.92
694.963	10.92
694.992	3.92
695.021	8.92
695.05	17.92
695.079	4.92
695.108	9.92
695.137	22.92
695.166	14.92
695.195	2.92
695.224	18.92
695.253	3.92
695.282	-5.08
695.311	13.92
695.34	-3.08
695.369	0.92
695.398	-5.08
695.427	14.92
695.456	2.92
695.485	-1.08
695.513	0.92
695.542	10.92
695.571	4.92
695.6	17.92
695.629	13.92
695.658	3.92
695.687	-12.08
695.716	-1.08
695.745	15.92
695.774	3.92
695.802	-5.08
695.831	25.92
695.86	17.92
695.889	19.92
695.918	2.92
695.947	-1.08
695.976	4.92
696.005	7.92
696.033	24.92
696.062	5.92
696.091	-9.08
696.12	-8.08
696.149	-0.08
696.178	4.92
696.207	13.92
696.235	-11.08
696.264	10.92
696.293	9.92
696.322	3.92
696.351	29.92
696.38	1.92
696.408	8.92
696.437	-5.08
696.466	3.92
696.495	-0.08
696.524	16.92
696.553	3.92
696.581	14.92
696.61	-6.08
696.639	15.92
696.668	11.92
696.697	1.92
696.725	2.92
696.754	3.92
696.783	-1.08
696.812	-1.08
696.84	18.92
696.869	18.92
696.898	-15.08
696.927	-5.08
696.956	9.92
696.984	-1.08
697.013	-0.08
697.042	3.92
697.071	10.92
697.099	23.92
697.128	16.92
697.157	8.92
697.186	-5.08
697.214	-9.08
697.243	-1.08
697.272	4.92
697.301	6.92
697.329	10.92
697.358	7.92
697.387	25.92
697.415	17.92
697.444	11.92
697.473	10.92
697.502	-0.08
697.53	1.92
697.559	20.92
697.588	9.92
697.616	-0.08
697.645	-3.08
697.674	4.92
697.703	12.92
697.731	6.92
697.76	24.92
697.789	-3.08
697.817	14.92
697.846	12.92
697.875	4.92
697.903	22.92
697.932	34.92
697.961	20.92
697.989	8.92
698.018	-6.08
698.047	-4.08
698.075	1.92
698.104	-6.08
698.133	7.92
698.161	8.92
698.19	-2.08
698.218	3.92
698.247	15.92
698.276	2.92
698.304	14.92
698.333	10.92
698.362	2.92
698.39	14.92
698.419	4.92
698.447	-5.08
698.476	-2.08
698.505	14.92
698.533	8.92
698.562	9.92
698.591	-2.08
698.619	5.92
698.648	2.92
698.676	15.92
698.705	1.92
698.733	10.92
698.762	17.92
698.791	27.92
698.819	18.92
698.848	0.92
698.876	14.92
698.905	9.92
698.933	-0.08
698.962	7.92
698.991	10.92
699.019	11.92
699.048	1.92
699.076	5.92
699.105	-2.08
699.133	-9.08
699.162	-4.08
699.19	8.92
699.219	-12.08
699.248	12.92
699.276	4.92
699.305	-9.08
699.333	13.92
699.362	-2.08
699.39	1.92
699.419	2.92
699.447	8.92
699.476	2.92
699.504	13.92
699.533	11.92
699.561	-16.08
699.59	6.92
699.618	-0.08
699.647	-2.08
699.675	1.92
699.704	24.92
699.732	2.92
699.761	18.92
699.789	14.92
699.818	0.92
699.846	5.92
699.874	4.92
699.903	-0.08
699.931	0.92
699.96	9.92
699.988	-9.08
700.017	-6.08
700.045	8.92
700.074	-1.08
700.102	12.92
700.13	-3.08
700.159	16.92
700.187	14.92
700.216	7.92
700.244	1.92
700.273	-9.08
700.301	-0.08
700.329	22.92
700.358	25.92
700.386	-2.08
700.415	-1.08
700.443	-6.08
700.472	-18.08
700.5	-13.08
700.528	3.92
700.557	-0.08
700.585	7.92
700.614	-11.08
700.642	8.92
700.67	17.92
700.699	13.92
700.727	16.92
700.755	15.92
700.784	5.92
700.812	-13.08
700.841	15.92
700.869	14.92
700.897	-6.08
700.926	-16.08
700.954	1.92
700.982	-2.08
701.011	-10.08
701.039	4.92
701.067	11.92
701.096	5.92
701.124	-10.08
701.152	-1.08
701.181	4.92
701.209	-5.08
701.237	4.92
701.266	-0.08
701.294	-4.08
701.322	7.92
701.351	5.92
701.379	1.92
701.407	-4.08
701.435	7.92
701.464	9.92
701.492	24.92
701.52	3.92
701.549	2.92
701.577	-6.08
701.605	-5.08
701.634	-1.08
701.662	16.92
701.69	-1.08
701.718	-4.08
701.747	9.92
701.775	-1.08
701.803	-5.08
701.831	8.92
701.86	5.92
701.888	-1.08
701.916	15.92
701.944	0.92
701.973	-8.08
702.001	-1.08
702.029	2.92
702.057	1.92
702.086	-7.08
702.114	-26.08
702.142	5.92
702.17	-8.08
702.199	-2.08
702.227	11.92
702.255	-0.08
702.283	-7.08
702.311	2.92
702.34	-13.08
702.368	-17.08
702.396	10.92
702.424	-0.08
702.452	-10.08
702.481	-5.08
702.509	5.92
702.537	-4.08
702.565	8.92
702.593	-10.08
702.621	13.92
702.65	8.92
702.678	5.92
702.706	1.92
702.734	-7.08
702.762	-2.08
702.79	-2.08
702.819	5.92
702.847	4.92
702.875	21.92
702.903	0.92
702.931	-2.08
702.959	4.92
702.988	-2.08
703.016	0.92
703.044	-5.08
703.072	-9.08
703.1	-3.08
703.128	-4.08
703.156	1.92
703.184	-1.08
703.212	0.92
703.241	1.92
703.269	6.92
703.297	4.92
703.325	-1.08
703.353	-5.08
703.381	-16.08
703.409	-3.08
703.437	1.92
703.465	12.92
703.493	9.92
703.522	29.92
703.55	20.92
703.578	10.92
703.606	-4.08
703.634	0.92
703.662	11.92
703.69	3.92
703.718	-2.08
703.746	22.92
703.774	16.92
703.802	14.92
703.83	0.92
703.858	0.92
703.886	-22.08
703.914	-9.08
703.942	20.92
703.97	0.92
703.998	8.92
704.027	17.92
704.055	24.92
704.083	6.92
704.111	-10.08
704.139	-5.08
704.167	2.92
704.195	16.92
704.223	3.92
704.251	-0.08
704.279	16.92
704.307	-2.08
704.335	-4.08
704.363	5.92
704.391	4.92
704.419	0.92
704.447	-9.08
704.475	10.92
704.503	3.92
704.531	6.92
704.558	4.92
704.586	9.92
704.614	4.92
704.642	1.92
704.67	-10.08
704.698	6.92
704.726	-2.08
704.754	-2.08
704.782	-7.08
704.81	-0.08
704.838	28.92
704.866	11.92
704.894	-2.08
704.922	-14.08
704.95	14.92
704.978	18.92
705.006	-11.08
705.034	20.92
705.061	-3.08
705.089	-1.08
705.117	-4.08
705.145	-11.08
705.173	-4.08
705.201	11.92
705.229	-1.08
705.257	-7.08
705.285	0.92
705.313	6.92
705.34	5.92
705.368	-10.08
705.396	5.92
705.424	-3.08
705.452	-3.08
705.48	0.92
705.508	2.92
705.536	9.92
705.563	-3.08
705.591	12.92
705.619	15.92
705.647	-5.08
705.675	3.92
705.703	14.92
705.731	9.92
705.758	17.92
705.786	-3.08
705.814	21.92
705.842	6.92
705.87	17.92
705.898	18.92
705.925	5.92
705.953	4.92
705.981	4.92
706.009	5.92
706.037	8.92
706.065	-0.08
706.092	-17.08
706.12	-1.08
706.148	-11.08
706.176	0.92
706.204	9.92
706.231	1.92
706.259	12.92
706.287	-9.08
706.315	-6.08
706.342	2.92
706.37	4.92
706.398	-4.08
706.426	-1.08
706.454	3.92
706.481	7.92
706.509	-17.08
706.537	-10.08
706.565	-1.08
706.592	6.92
706.62	-8.08
706.648	1.92
706.676	1.92
706.703	7.92
706.731	12.92
706.759	7.92
706.787	13.92
706.814	-11.08
706.842	-5.08
706.87	-14.08
706.897	5.92
706.925	9.92
706.953	11.92
706.981	16.92
707.008	8.92
707.036	-0.08
707.064	-3.08
707.091	-9.08
707.119	-5.08
707.147	-2.08
707.174	15.92
707.202	14.92
707.23	-11.08
707.258	-9.08
707.285	-15.08
707.313	-8.08
707.341	-15.08
707.368	-6.08
707.396	8.92
707.424	22.92
707.451	2.92
707.479	7.92
707.507	-7.08
707.534	-7.08
707.562	3.92
707.59	-7.08
707.617	-22.08
707.645	2.92
707.672	-5.08
707.7	10.92
707.728	2.92
707.755	4.92
707.783	-0.08
707.811	5.92
707.838	-1.08
707.866	-5.08
707.893	3.92
707.921	-1.08
707.949	2.92
707.976	13.92
708.004	-7.08
708.031	-2.08
708.059	-14.08
708.087	8.92
708.114	5.92
708.142	-12.08
708.169	6.92
708.197	4.92
708.225	3.92
708.252	9.92
708.28	24.92
708.307	7.92
708.335	0.92
708.362	-12.08
708.39	-3.08
708.418	1.92
708.445	-12.08
708.473	-5.08
708.5	-3.08
708.528	9.92
708.555	-5.08
708.583	3.92
708.61	-0.08
708.638	15.92
708.665	-8.08
708.693	-5.08
708.72	1.92
708.748	-14.08
708.776	16.92
708.803	21.92
708.831	-5.08
708.858	2.92
708.886	4.92
708.913	7.92
708.941	-15.08
708.968	2.92
708.996	-1.08
709.023	24.92
709.051	14.92
709.078	-2.08
709.105	0.92
709.133	-18.08
709.16	-2.08
709.188	14.92
709.215	6.92
709.243	19.92
709.27	-3.08
709.298	-6.08
709.325	-5.08
709.353	13.92
709.38	16.92
709.408	17.92
709.435	7.92
709.462	-8.08
709.49	-5.08
709.517	-17.08
709.545	-13.08
709.572	-11.08
709.6	-8.08
709.627	9.92
709.655	-10.08
709.682	-12.08
709.709	2.92
709.737	11.92
709.764	-24.08
709.792	-4.08
709.819	-3.08
709.846	-11.08
709.874	10.92
709.901	5.92
709.929	4.92
709.956	19.92
709.983	-1.08
710.011	2.92
710.038	1.92
710.066	8.92
710.093	2.92
710.12	18.92
710.148	-4.08
710.175	-7.08
710.202	-7.08
710.23	14.92
710.257	11.92
710.284	9.92
710.312	8.92
710.339	7.92
710.366	5.92
710.394	9.92
710.421	-1.08
710.448	-3.08
710.476	-15.08
710.503	0.92
710.53	9.92
710.558	38.92
710.585	7.92
710.612	-11.08
710.64	-2.08
710.667	-1.08
710.694	-12.08
710.722	-7.08
710.749	-4.08
710.776	1.92
710.804	15.92
710.831	3.92
710.858	-8.08
710.885	3.92
710.913	-2.08
710.94	18.92
710.967	22.92
710.995	-1.08
711.022	15.92
711.049	-5.08
711.076	-11.08
711.104	4.92
711.131	-5.08
711.158	5.92
711.185	16.92
711.213	-7.08
711.24	-6.08
711.267	-3.08
711.294	-14.08
711.322	13.92
711.349	5.92
711.376	-11.08
711.403	0.92
711.431	-15.08
711.458	-4.08
711.485	1.92
711.512	0.92
711.54	-3.08
711.567	-0.08
711.594	-13.08
711.621	-3.08
711.648	11.92
711.676	-2.08
711.703	8.92
711.73	-19.08
711.757	-3.08
711.784	0.92
711.812	-19.08
711.839	5.92
711.866	-2.08
711.893	8.92
711.92	6.92
711.947	-1.08
711.975	0.92
712.002	-8.08
712.029	-3.08
712.056	0.92
712.083	7.92
712.11	0.92
712.138	10.92
712.165	9.92
712.192	0.92
712.219	-13.08
712.246	-9.08
712.273	-12.08
712.3	-10.08
712.328	-4.08
712.355	-2.08
712.382	-9.08
712.409	18.92
712.436	-6.08
712.463	-13.08
712.49	4.92
712.517	14.92
712.544	0.92
712.572	6.92
712.599	-2.08
712.626	-4.08
712.653	1.92
712.68	-9.08
712.707	3.92
712.734	1.92
712.761	13.92
712.788	3.92
712.815	10.92
712.842	20.92
712.87	-2.08
712.897	-15.08
712.924	1.92
712.951	11.92
712.978	1.92
713.005	7.92
713.032	4.92
713.059	1.92
713.086	-8.08
713.113	3.92
713.14	-8.08
713.167	2.92
713.194	0.92
713.221	-15.08
713.248	2.92
713.275	-3.08
713.302	-1.08
713.329	8.92
713.356	10.92
713.383	-9.08
713.41	12.92
713.437	2.92
713.464	-4.08
713.491	18.92
713.518	-3.08
713.545	-23.08
713.572	-2.08
713.599	6.92
713.626	-1.08
713.653	8.92
713.68	11.92
713.707	-12.08
713.734	-3.08
713.761	-2.08
713.788	7.92
713.815	5.92
713.842	-0.08
713.869	-11.08
713.896	-6.08
713.923	1.92
713.95	5.92
713.977	-0.08
714.004	1.92
714.031	-13.08
714.058	-4.08
714.085	3.92
714.112	23.92
714.139	11.92
714.165	9.92
714.192	-3.08
714.219	7.92
714.246	2.92
714.273	-2.08
714.3	-2.08
714.327	1.92
714.354	7.92
714.381	12.92
714.408	2.92
714.435	3.92
714.461	-3.08
714.488	-5.08
714.515	-5.08
714.542	-10.08
714.569	-14.08
714.596	-7.08
714.623	-4.08
714.65	-7.08
714.677	-7.08
714.703	-6.08
714.73	5.92
714.757	-2.08
714.784	4.92
714.811	-5.08
714.838	2.92
714.865	-3.08
714.891	16.92
714.918	-4.08
714.945	-11.08
714.972	-3.08
714.999	3.92
715.026	-5.08
715.052	10.92
715.079	5.92
715.106	12.92
715.133	13.92
715.16	-10.08
715.187	-6.08
715.213	10.92
715.24	-7.08
715.267	-0.08
715.294	-5.08
715.321	-3.08
715.347	-10.08
715.374	-6.08
715.401	-11.08
715.428	0.92
715.455	1.92
715.481	-5.08
715.508	16.92
715.535	4.92
715.562	9.92
715.588	8.92
715.615	12.92
715.642	-4.08
715.669	4.92
715.695	-6.08
715.722	5.92
715.749	9.92
715.776	1.92
715.802	10.92
715.829	2.92
715.856	-5.08
715.883	19.92
715.909	-6.08
715.936	-3.08
715.963	-2.08
715.99	-5.08
716.016	0.92
716.043	5.92
716.07	-10.08
716.096	-9.08
716.123	1.92
716.15	-2.08
716.177	10.92
716.203	18.92
716.23	28.92
716.257	2.92
716.283	9.92
716.31	0.92
716.337	-2.08
716.363	6.92
716.39	-4.08
716.417	2.92
716.443	-17.08
716.47	11.92
716.497	24.92
716.523	10.92
716.55	1.92
716.577	17.92
716.603	4.92
716.63	-2.08
716.657	13.92
716.683	-6.08
716.71	-0.08
716.737	12.92
716.763	7.92
716.79	9.92
716.817	7.92
716.843	5.92
716.87	1.92
716.897	15.92
716.923	12.92
716.95	-6.08
716.976	-21.08
717.003	12.92
717.03	2.92
717.056	2.92
717.083	-1.08
717.109	13.92
717.136	15.92
717.163	-5.08
717.189	0.92
717.216	-6.08
717.242	-3.08
717.269	13.92
717.296	21.92
717.322	16.92
717.349	8.92
717.375	2.92
717.402	-8.08
717.428	-8.08
717.455	3.92
717.481	8.92
717.508	2.92
717.535	0.92
717.561	14.92
717.588	-11.08
717.614	-0.08
717.641	-6.08
717.667	2.92
717.694	0.92
717.72	-13.08
717.747	-3.08
717.773	-21.08
717.8	16.92
717.826	5.92
717.853	1.92
717.88	-10.08
717.906	8.92
717.933	0.92
717.959	-0.08
717.986	4.92
718.012	-1.08
718.039	9.92
718.065	24.92
718.092	7.92
718.118	10.92
718.144	4.92
718.171	9.92
718.197	31.92
718.224	3.92
718.25	0.92
718.277	-5.08
718.303	5.92
718.33	-4.08
718.356	-12.08
718.383	-11.08
718.409	-16.08
718.436	6.92
718.462	-5.08
718.489	-3.08
718.515	11.92
718.541	16.92
718.568	12.92
718.594	-6.08
718.621	7.92
718.647	-1.08
718.674	5.92
718.7	1.92
718.726	3.92
718.753	6.92
718.779	0.92
718.806	-2.08
718.832	-6.08
718.858	7.92
718.885	-3.08
718.911	-2.08
718.938	12.92
718.964	-2.08
718.99	-0.08
719.017	-1.08
719.043	-4.08
719.07	17.92
719.096	1.92
719.122	8.92
719.149	16.92
719.175	5.92
719.201	-1.08
719.228	2.92
719.254	-1.08
719.281	0.92
719.307	4.92
719.333	6.92
719.36	2.92
719.386	-4.08
719.412	11.92
719.439	-19.08
719.465	-2.08
719.491	-7.08
719.518	12.92
719.544	-1.08
719.57	10.92
719.597	13.92
719.623	-2.08
719.649	5.92
719.675	10.92
719.702	13.92
719.728	8.92
719.754	-11.08
719.781	-0.08
719.807	2.92
719.833	5.92
719.86	-1.08
719.886	1.92
719.912	1.92
719.938	-22.08
719.965	-11.08
719.991	21.92
720.017	8.92
720.044	-11.08
720.07	-2.08
720.096	4.92
720.122	1.92
720.149	5.92
720.175	33.92
720.201	8.92
720.227	-9.08
720.254	8.92
720.28	-1.08
720.306	-7.08
720.332	12.92
720.359	11.92
720.385	0.92
720.411	1.92
720.437	12.92
720.463	11.92
720.49	16.92
720.516	9.92
720.542	-10.08
720.568	3.92
720.595	9.92
720.621	10.92
720.647	17.92
720.673	14.92
720.699	-3.08
720.725	4.92
720.752	15.92
720.778	16.92
720.804	22.92
720.83	7.92
720.856	11.92
720.883	-14.08
720.909	-22.08
720.935	2.92
720.961	28.92
720.987	-2.08
721.013	-1.08
721.04	0.92
721.066	0.92
721.092	-9.08
721.118	1.92
721.144	-3.08
721.17	-5.08
721.196	6.92
721.223	-2.08
721.249	11.92
721.275	9.92
721.301	-6.08
721.327	1.92
721.353	10.92
721.379	5.92
721.405	-7.08
721.432	13.92
721.458	0.92
721.484	8.92
721.51	-25.08
721.536	15.92
721.562	-7.08
721.588	4.92
721.614	-16.08
721.64	7.92
721.666	16.92
721.693	-4.08
721.719	10.92
721.745	3.92
721.771	-2.08
721.797	0.92
721.823	9.92
721.849	32.92
721.875	10.92
721.901	14.92
721.927	-3.08
721.953	-4.08
721.979	13.92
722.005	17.92
722.031	2.92
722.057	5.92
722.083	13.92
722.109	26.92
722.135	11.92
722.161	12.92
722.187	0.92
722.214	-13.08
722.24	16.92
722.266	-1.08
722.292	16.92
722.318	15.92
722.344	-2.08
722.37	-0.08
722.396	4.92
722.422	-5.08
722.448	3.92
722.474	-2.08
722.5	14.92
722.526	2.92
722.552	-1.08
722.578	-4.08
722.603	-10.08
722.629	-4.08
722.655	2.92
722.681	-2.08
722.707	2.92
722.733	4.92
722.759	-2.08
722.785	2.92
722.811	10.92
722.837	-11.08
722.863	-3.08
722.889	20.92
722.915	2.92
722.941	-5.08
722.967	-3.08
722.993	18.92
723.019	7.92
723.045	-0.08
723.071	0.92
723.097	8.92
723.122	0.92
723.148	-5.08
723.174	-0.08
723.2	17.92
723.226	-0.08
723.252	3.92
723.278	0.92
723.304	-6.08
723.33	14.92
723.356	-4.08
723.381	-4.08
723.407	-13.08
723.433	13.92
723.459	-6.08
723.485	-2.08
723.511	2.92
723.537	-18.08
723.563	-3.08
723.588	1.92
723.614	23.92
723.64	5.92
723.666	-3.08
723.692	12.92
723.718	0.92
723.744	-5.08
723.769	-6.08
723.795	-3.08
723.821	0.92
723.847	-3.08
723.873	6.92
723.899	11.92
723.924	-17.08
723.95	7.92
723.976	-5.08
724.002	1.92
724.028	17.92
724.053	-10.08
724.079	-9.08
724.105	1.92
724.131	-7.08
724.157	17.92
724.182	7.92
724.208	-0.08
724.234	7.92
724.26	-2.08
724.286	16.92
724.311	-1.08
724.337	-4.08
724.363	-6.08
724.389	2.92
724.415	1.92
724.44	25.92
724.466	1.92
724.492	-10.08
724.518	-4.08
724.543	-5.08
724.569	10.92
724.595	8.92
724.621	6.92
724.646	0.92
724.672	-11.08
724.698	-3.08
724.723	3.92
724.749	13.92
724.775	5.92
724.801	8.92
724.826	-9.08
724.852	2.92
724.878	-3.08
724.904	-11.08
724.929	7.92
724.955	-11.08
724.981	5.92
725.006	-10.08
725.032	12.92
725.058	0.92
725.083	-13.08
725.109	-4.08
725.135	-16.08
725.161	7.92
725.186	0.92
725.212	-5.08
725.238	6.92
725.263	4.92
725.289	-12.08
725.315	-10.08
725.34	13.92
725.366	19.92
725.392	-4.08
725.417	-4.08
725.443	3.92
725.468	4.92
725.494	7.92
725.52	13.92
725.545	10.92
725.571	5.92
725.597	-6.08
725.622	-1.08
725.648	0.92
725.674	10.92
725.699	5.92
725.725	-6.08
725.75	25.92
725.776	-10.08
725.802	6.92
725.827	3.92
725.853	6.92
725.878	1.92
725.904	-13.08
725.93	-1.08
725.955	-24.08
725.981	4.92
726.006	13.92
726.032	15.92
726.057	-11.08
726.083	-3.08
726.109	20.92
726.134	9.92
726.16	-10.08
726.185	-12.08
726.211	-10.08
726.236	-4.08
726.262	5.92
726.288	10.92
726.313	17.92
726.339	-0.08
726.364	-2.08
726.39	-1.08
726.415	-3.08
726.441	-5.08
726.466	-6.08
726.492	15.92
726.517	-3.08
726.543	-13.08
726.568	-5.08
726.594	6.92
726.619	9.92
726.645	5.92
726.67	2.92
726.696	3.92
726.721	-11.08
726.747	-15.08
726.772	2.92
726.798	3.92
726.823	2.92
726.849	8.92
726.874	-1.08
726.9	16.92
726.925	6.92
726.951	4.92
726.976	17.92
727.002	-11.08
727.027	3.92
727.053	17.92
727.078	0.92
727.104	1.92
727.129	-11.08
727.155	0.92
727.18	3.92
727.205	6.92
727.231	-15.08
727.256	-7.08
727.282	7.92
727.307	14.92
727.333	-4.08
727.358	-3.08
727.383	-20.08
727.409	14.92
727.434	6.92
727.46	-9.08
727.485	-6.08
727.511	-4.08
727.536	5.92
727.561	-1.08
727.587	11.92
727.612	-16.08
727.637	2.92
727.663	-7.08
727.688	9.92
727.714	-1.08
727.739	-9.08
727.764	-6.08
727.79	18.92
727.815	2.92
727.841	30.92
727.866	14.92
727.891	0.92
727.917	-6.08
727.942	-7.08
727.967	-2.08
727.993	-3.08
728.018	-10.08
728.043	-5.08
728.069	13.92
728.094	14.92
728.119	16.92
728.145	32.92
728.17	16.92
728.195	8.92
728.221	28.92
728.246	5.92
728.271	-21.08
728.297	0.92
728.322	-6.08
728.347	-14.08
728.373	9.92
728.398	23.92
728.423	6.92
728.448	-5.08
728.474	2.92
728.499	2.92
728.524	-1.08
728.55	-3.08
728.575	-9.08
728.6	-2.08
728.625	-3.08
728.651	-2.08
728.676	-0.08
728.701	-1.08
728.727	-5.08
728.752	-4.08
728.777	-7.08
728.802	-0.08
728.828	-6.08
728.853	-1.08
728.878	-3.08
728.903	6.92
728.929	-3.08
728.954	-17.08
728.979	-9.08
729.004	8.92
729.03	13.92
729.055	14.92
729.08	-7.08
729.105	-11.08
729.13	8.92
729.156	8.92
729.181	9.92
729.206	-13.08
729.231	-10.08
729.256	11.92
729.282	8.92
729.307	-8.08
729.332	-14.08
729.357	-2.08
729.382	1.92
729.408	-0.08
729.433	12.92
729.458	-1.08
729.483	13.92
729.508	19.92
729.533	24.92
729.559	8.92
729.584	-3.08
729.609	23.92
729.634	8.92
729.659	-2.08
729.684	-8.08
729.71	17.92
729.735	5.92
729.76	-0.08
729.785	-2.08
729.81	9.92
729.835	-3.08
729.86	-9.08
729.886	12.92
729.911	22.92
729.936	4.92
729.961	26.92
729.986	34.92
730.011	46.92
730.036	180.92
730.061	1005.92
730.086	2708.92
730.112	3344.92
730.137	2825.92
730.162	2132.92
730.187	1661.92
730.212	1261.92
730.237	781.92
730.262	448.92
730.287	249.92
730.312	146.92
730.337	76.92
730.362	61.92
730.387	29.92
730.413	14.92
730.438	-2.08
730.463	10.92
730.488	1.92
730.513	28.92
730.538	4.92
730.563	16.92
730.588	11.92
730.613	11.92
730.638	7.92
730.663	-8.08
730.688	27.92
730.713	0.92
730.738	2.92
730.763	5.92
730.788	-0.08
730.813	11.92
730.838	-1.08
730.863	22.92
730.888	-1.08
730.913	-2.08
730.938	-5.08
730.963	29.92
730.988	128.92
731.013	428.92
731.038	629.92
731.063	588.92
731.088	466.92
731.113	360.92
731.138	251.92
731.163	187.92
731.188	107.92
731.213	68.92
731.238	39.92
731.263	18.92
731.288	9.92
731.313	1.92
731.338	1.92
731.363	0.92
731.388	-12.08
731.413	10.92
731.438	5.92
731.463	-5.08
731.487	21.92
731.512	7.92
731.537	-4.08
731.562	7.92
731.587	10.92
731.612	-4.08
731.637	5.92
731.662	-8.08
731.687	8.92
731.712	-1.08
731.737	6.92
731.762	9.92
731.786	-2.08
731.811	7.92
731.836	-13.08
731.861	-7.08
731.886	-7.08
731.911	-2.08
731.936	3.92
731.961	-5.08
731.986	-0.08
732.01	7.92
732.035	-8.08
732.06	12.92
732.085	2.92
732.11	5.92
732.135	-5.08
732.16	1.92
732.184	5.92
732.209	1.92
732.234	22.92
732.259	-3.08
732.284	9.92
732.309	-1.08
732.334	-9.08
732.358	0.92
732.383	0.92
732.408	6.92
732.433	1.92
732.458	2.92
732.482	-2.08
732.507	-2.08
732.532	8.92
732.557	12.92
732.582	7.92
732.607	29.92
732.631	52.92
732.656	90.92
732.681	137.92
732.706	342.92
732.73	451.92
732.755	406.92
732.78	296.92
732.805	225.92
732.83	182.92
732.854	130.92
732.879	89.92
732.904	30.92
732.929	37.92
732.953	20.92
732.978	17.92
733.003	-1.08
733.028	-10.08
733.052	6.92
733.077	3.92
733.102	2.92
733.127	-1.08
733.151	12.92
733.176	16.92
733.201	7.92
733.226	-7.08
733.25	18.92
733.275	2.92
733.3	14.92
733.324	3.92
733.349	16.92
733.374	17.92
733.399	-12.08
733.423	-5.08
733.448	-14.08
733.473	-5.08
733.497	-3.08
733.522	-6.08
733.547	7.92
733.571	7.92
733.596	1.92
733.621	10.92
733.646	11.92
733.67	18.92
733.695	-5.08
733.72	7.92
733.744	8.92
733.769	11.92
733.794	19.92
733.818	7.92
733.843	-2.08
733.867	-9.08
733.892	-8.08
733.917	0.92
733.941	4.92
733.966	-23.08
733.991	-7.08
734.015	20.92
734.04	15.92
734.065	5.92
734.089	8.92
734.114	6.92
734.138	20.92
734.163	12.92
734.188	7.92
734.212	16.92
734.237	-3.08
734.261	-7.08
734.286	4.92
734.311	2.92
734.335	-1.08
734.36	-7.08
734.384	12.92
734.409	17.92
734.434	-3.08
734.458	1.92
734.483	10.92
734.507	-11.08
734.532	0.92
734.556	-1.08
734.581	-18.08
734.606	4.92
734.63	-1.08
734.655	11.92
734.679	-3.08
734.704	-16.08
734.728	-2.08
734.753	-8.08
734.777	-8.08
734.802	-2.08
734.826	-2.08
734.851	1.92
734.876	9.92
734.9	7.92
734.925	9.92
734.949	13.92
734.974	4.92
734.998	14.92
735.023	-10.08
735.047	-16.08
735.072	11.92
735.096	-1.08
735.121	-7.08
735.145	-7.08
735.17	1.92
735.194	-1.08
735.219	-0.08
735.243	10.92
735.268	4.92
735.292	7.92
735.317	-1.08
735.341	5.92
735.365	-14.08
735.39	8.92
735.414	13.92
735.439	2.92
735.463	13.92
735.488	-7.08
735.512	2.92
735.537	9.92
735.561	-7.08
735.586	-2.08
735.61	13.92
735.634	10.92
735.659	10.92
735.683	21.92
735.708	-2.08
735.732	1.92
735.757	-10.08
735.781	4.92
735.805	-11.08
735.83	-7.08
735.854	-3.08
735.879	-2.08
735.903	6.92
735.927	9.92
735.952	9.92
735.976	-7.08
736.001	-6.08
736.025	11.92
736.049	14.92
736.074	0.92
736.098	-8.08
736.123	-1.08
736.147	-1.08
736.171	-5.08
736.196	9.92
736.22	-6.08
736.244	-7.08
736.269	-2.08
736.293	-8.08
736.317	-5.08
736.342	14.92
736.366	13.92
736.39	20.92
736.415	-0.08
736.439	-3.08
736.463	3.92
736.488	-1.08
736.512	3.92
736.536	-2.08
736.561	14.92
736.585	-7.08
736.609	6.92
736.634	-1.08
736.658	-2.08
736.682	-2.08
736.707	-25.08
736.731	-9.08
736.755	4.92
736.78	34.92
736.804	12.92
736.828	8.92
736.852	0.92
736.877	8.92
736.901	8.92
736.925	16.92
736.949	15.92
736.974	-2.08
736.998	-6.08
737.022	9.92
737.047	9.92
737.071	-5.08
737.095	15.92
737.119	18.92
737.144	9.92
737.168	10.92
737.192	2.92
737.216	16.92
737.241	2.92
737.265	5.92
737.289	5.92
737.313	-3.08
737.337	16.92
737.362	-2.08
737.386	-8.08
737.41	-3.08
737.434	-1.08
737.459	0.92
737.483	6.92
737.507	-1.08
737.531	-2.08
737.555	-6.08
737.58	3.92
737.604	-9.08
737.628	-13.08
737.652	5.92
737.676	3.92
737.701	7.92
737.725	-9.08
737.749	10.92
737.773	-2.08
737.797	7.92
737.821	-3.08
737.846	-10.08
737.87	25.92
737.894	1.92
737.918	-0.08
737.942	5.92
737.966	15.92
737.99	0.92
738.015	9.92
738.039	-3.08
738.063	-6.08
738.087	-1.08
738.111	-7.08
738.135	1.92
738.159	-11.08
738.184	10.92
738.208	16.92
738.232	16.92
738.256	9.92
738.28	4.92
738.304	13.92
738.328	3.92
738.352	8.92
738.376	5.92
738.4	4.92
738.425	2.92
738.449	-7.08
738.473	26.92
738.497	14.92
738.521	0.92
738.545	4.92
738.569	1.92
738.593	22.92
738.617	14.92
738.641	0.92
738.665	5.92
738.689	1.92
738.713	-4.08
738.737	-11.08
738.762	2.92
738.786	-13.08
738.81	-18.08
738.834	2.92
738.858	-7.08
738.882	9.92
738.906	-6.08
738.93	10.92
738.954	4.92
738.978	6.92
739.002	-10.08
739.026	1.92
739.05	17.92
739.074	-0.08
739.098	32.92
739.122	24.92
739.146	1.92
739.17	29.92
739.194	4.92
739.218	-6.08
739.242	-3.08
739.266	-5.08
739.29	8.92
739.314	12.92
739.338	8.92
739.362	-9.08
739.386	5.92
739.41	4.92
739.434	-15.08
739.458	13.92
739.482	5.92
739.506	6.92
739.53	0.92
739.554	21.92
739.577	-7.08
739.601	-4.08
739.625	-9.08
739.649	2.92
739.673	-3.08
739.697	13.92
739.721	-1.08
739.745	18.92
739.769	20.92
739.793	8.92
739.817	15.92
739.841	-6.08
739.865	0.92
739.889	1.92
739.912	11.92
739.936	4.92
739.96	2.92
739.984	22.92
740.008	-3.08
740.032	-3.08
740.056	1.92
740.08	9.92
740.104	0.92
740.127	-0.08
740.151	7.92
740.175	10.92
740.199	7.92
740.223	32.92
740.247	18.92
740.271	-0.08
740.295	-5.08
740.318	-15.08
740.342	-1.08
740.366	2.92
740.39	8.92
740.414	-11.08
740.438	-6.08
740.461	22.92
740.485	21.92
740.509	-11.08
740.533	-2.08
740.557	1.92
740.581	2.92
740.604	-11.08
740.628	2.92
740.652	18.92
740.676	-14.08
740.7	9.92
740.723	12.92
740.747	-5.08
740.771	-11.08
740.795	-9.08
740.819	24.92
740.842	9.92
740.866	8.92
740.89	-5.08
740.914	-6.08
740.938	-3.08
740.961	19.92
740.985	7.92
741.009	-11.08
741.033	4.92
741.056	22.92
741.08	1.92
741.104	-0.08
741.128	-10.08
741.151	4.92
741.175	1.92
741.199	10.92
741.223	-3.08
741.246	-9.08
741.27	2.92
741.294	0.92
741.318	-26.08
741.341	-16.08
741.365	-8.08
741.389	-0.08
741.413	6.92
741.436	7.92
741.46	2.92
741.484	9.92
741.507	-10.08
741.531	14.92
741.555	18.92
741.579	-1.08
741.602	-0.08
741.626	4.92
741.65	1.92
741.673	1.92
741.697	3.92
741.721	8.92
741.744	-14.08
741.768	1.92
741.792	-2.08
741.815	4.92
741.839	16.92
741.863	17.92
741.886	19.92
741.91	20.92
741.934	2.92
741.957	-11.08
741.981	11.92
742.005	7.92
742.028	1.92
742.052	6.92
742.075	-1.08
742.099	14.92
742.123	16.92
742.146	-9.08
742.17	-3.08
742.194	-5.08
742.217	-13.08
742.241	-5.08
742.264	-2.08
742.288	22.92
742.312	-2.08
742.335	-0.08
742.359	7.92
742.382	15.92
742.406	22.92
742.43	-7.08
742.453	11.92
742.477	-14.08
742.5	4.92
742.524	-10.08
742.548	-13.08
742.571	8.92
742.595	5.92
742.618	-5.08
742.642	1.92
742.665	14.92
742.689	-8.08
742.712	15.92
742.736	-0.08
742.76	7.92
742.783	8.92
742.807	10.92
742.83	9.92
742.854	-7.08
742.877	15.92
742.901	8.92
742.924	-1.08
742.948	2.92
742.971	4.92
742.995	-1.08
743.018	-4.08
743.042	-9.08
743.065	5.92
743.089	4.92
743.112	0.92
743.136	0.92
743.159	0.92
743.183	-0.08
743.206	7.92
743.23	3.92
743.253	-0.08
743.277	7.92
743.3	-9.08
743.324	-6.08
743.347	-1.08
743.371	0.92
743.394	18.92
743.418	24.92
743.441	18.92
743.465	13.92
743.488	12.92
743.512	2.92
743.535	-9.08
743.558	5.92
743.582	11.92
743.605	6.92
743.629	10.92
743.652	-1.08
743.676	-6.08
743.699	6.92
743.723	-7.08
743.746	7.92
743.769	1.92
743.793	16.92
743.816	-1.08
743.84	14.92
743.863	-5.08
743.886	12.92
743.91	6.92
743.933	-6.08
743.957	8.92
743.98	-4.08
744.003	4.92
744.027	3.92
744.05	-13.08
744.074	-0.08
744.097	-6.08
744.12	-3.08
744.144	0.92
744.167	-2.08
744.19	1.92
744.214	4.92
744.237	3.92
744.26	23.92
744.284	6.92
744.307	-9.08
744.331	-2.08
744.354	-11.08
744.377	-16.08
744.401	-6.08
744.424	-0.08
744.447	-4.08
744.471	-14.08
