Data from HighRes_mercury_15_13_11_07_2024_HR4C61891__58__15-14-28-986.txt Node

Date: Thu Nov 07 15:14:28 EST 2024
User: crc00042
Spectrometer: HR4C6189
Trigger mode: 4
Integration Time (sec): 1.000000E-1
Scans to average: 1
Electric dark correction enabled: true
Nonlinearity correction enabled: false
Boxcar width: 0
XAxis mode: Wavelengths
Number of Pixels in Spectrum: 3648
>>>>>Begin Spectral Data<<<<<
639.567	-38.69
639.602	-38.69
639.636	-38.69
639.67	-26.69
639.704	-17.69
639.738	-1.69
639.773	18.31
639.807	-12.69
639.841	-4.69
639.875	11.31
639.909	4.31
639.943	8.31
639.978	-6.69
640.012	-9.69
640.046	11.31
640.08	3.31
640.114	-2.69
640.148	-18.69
640.182	-16.69
640.217	-14.69
640.251	23.31
640.285	3.31
640.319	1.31
640.353	0.31
640.387	-3.69
640.421	-4.69
640.455	2.31
640.49	3.31
640.524	-6.69
640.558	2.31
640.592	-0.69
640.626	-24.69
640.66	-5.69
640.694	-15.69
640.728	11.31
640.762	10.31
640.796	18.31
640.83	23.31
640.865	6.31
640.899	4.31
640.933	2.31
640.967	-10.69
641.001	8.31
641.035	9.31
641.069	1.31
641.103	-5.69
641.137	-6.69
641.171	-3.69
641.205	2.31
641.239	-0.69
641.273	1.31
641.307	-5.69
641.341	-6.69
641.375	8.31
641.409	-3.69
641.443	-0.69
641.477	1.31
641.511	-1.69
641.545	-1.69
641.579	-0.69
641.614	10.31
641.648	7.31
641.682	-1.69
641.716	19.31
641.75	26.31
641.784	19.31
641.818	-4.69
641.852	11.31
641.886	7.31
641.919	17.31
641.953	-2.69
641.987	-12.69
642.021	-7.69
642.055	4.31
642.089	1.31
642.123	-11.69
642.157	-12.69
642.191	1.31
642.225	10.31
642.259	-10.69
642.293	7.31
642.327	7.31
642.361	7.31
642.395	5.31
642.429	39.31
642.463	9.31
642.497	27.31
642.531	17.31
642.565	8.31
642.599	6.31
642.633	-0.69
642.666	11.31
642.7	11.31
642.734	27.31
642.768	-10.69
642.802	-4.69
642.836	8.31
642.87	0.31
642.904	3.31
642.938	17.31
642.972	-0.69
643.005	9.31
643.039	12.31
643.073	19.31
643.107	18.31
643.141	5.31
643.175	-2.69
643.209	-12.69
643.243	-5.69
643.276	-5.69
643.31	0.31
643.344	4.31
643.378	10.31
643.412	0.31
643.446	1.31
643.48	-7.69
643.513	7.31
643.547	-0.69
643.581	12.31
643.615	24.31
643.649	3.31
643.683	9.31
643.716	-0.69
643.75	7.31
643.784	-20.69
643.818	7.31
643.852	-4.69
643.886	-10.69
643.919	15.31
643.953	-0.69
643.987	-3.69
644.021	2.31
644.055	11.31
644.088	7.31
644.122	10.31
644.156	12.31
644.19	15.31
644.224	7.31
644.257	17.31
644.291	14.31
644.325	4.31
644.359	-9.69
644.392	8.31
644.426	6.31
644.46	9.31
644.494	-0.69
644.527	7.31
644.561	-8.69
644.595	-1.69
644.629	1.31
644.662	-13.69
644.696	9.31
644.73	7.31
644.764	9.31
644.797	-2.69
644.831	-5.69
644.865	8.31
644.899	3.31
644.932	23.31
644.966	0.31
645	10.31
645.033	9.31
645.067	5.31
645.101	-7.69
645.135	5.31
645.168	-7.69
645.202	-8.69
645.236	-2.69
645.269	19.31
645.303	3.31
645.337	-26.69
645.37	-0.69
645.404	12.31
645.438	-2.69
645.471	0.31
645.505	24.31
645.539	-4.69
645.572	-6.69
645.606	-5.69
645.64	-4.69
645.673	11.31
645.707	17.31
645.741	-8.69
645.774	-8.69
645.808	4.31
645.842	-7.69
645.875	16.31
645.909	-10.69
645.943	-0.69
645.976	2.31
646.01	-1.69
646.043	5.31
646.077	-6.69
646.111	11.31
646.144	13.31
646.178	2.31
646.212	-6.69
646.245	3.31
646.279	5.31
646.312	20.31
646.346	11.31
646.38	-5.69
646.413	-4.69
646.447	-1.69
646.48	8.31
646.514	9.31
646.547	-12.69
646.581	4.31
646.615	8.31
646.648	8.31
646.682	-2.69
646.715	-8.69
646.749	7.31
646.782	-11.69
646.816	-4.69
646.85	17.31
646.883	8.31
646.917	5.31
646.95	-7.69
646.984	3.31
647.017	14.31
647.051	7.31
647.084	4.31
647.118	-12.69
647.151	-4.69
647.185	0.31
647.218	4.31
647.252	18.31
647.285	-1.69
647.319	-6.69
647.353	4.31
647.386	4.31
647.42	-7.69
647.453	4.31
647.487	2.31
647.52	5.31
647.553	19.31
647.587	8.31
647.62	10.31
647.654	10.31
647.687	-7.69
647.721	7.31
647.754	12.31
647.788	-14.69
647.821	-0.69
647.855	-2.69
647.888	12.31
647.922	22.31
647.955	12.31
647.989	19.31
648.022	7.31
648.055	13.31
648.089	4.31
648.122	37.31
648.156	6.31
648.189	1.31
648.223	10.31
648.256	14.31
648.29	8.31
648.323	-22.69
648.356	2.31
648.39	11.31
648.423	12.31
648.457	-0.69
648.49	9.31
648.523	12.31
648.557	-17.69
648.59	3.31
648.624	-3.69
648.657	6.31
648.69	20.31
648.724	4.31
648.757	24.31
648.791	5.31
648.824	9.31
648.857	7.31
648.891	-2.69
648.924	7.31
648.957	18.31
648.991	-11.69
649.024	12.31
649.057	-4.69
649.091	-10.69
649.124	7.31
649.158	4.31
649.191	17.31
649.224	7.31
649.258	20.31
649.291	19.31
649.324	-1.69
649.358	0.31
649.391	10.31
649.424	13.31
649.458	5.31
649.491	9.31
649.524	7.31
649.557	-3.69
649.591	-22.69
649.624	5.31
649.657	2.31
649.691	2.31
649.724	9.31
649.757	-1.69
649.791	1.31
649.824	30.31
649.857	10.31
649.89	2.31
649.924	-13.69
649.957	-2.69
649.99	-15.69
650.023	-5.69
650.057	-4.69
650.09	9.31
650.123	4.31
650.157	4.31
650.19	18.31
650.223	-1.69
650.256	-5.69
650.29	-0.69
650.323	12.31
650.356	10.31
650.389	-2.69
650.423	-5.69
650.456	1.31
650.489	-3.69
650.522	0.31
650.555	6.31
650.589	2.31
650.622	4.31
650.655	13.31
650.688	0.31
650.721	-15.69
650.755	-0.69
650.788	5.31
650.821	-3.69
650.854	-15.69
650.887	11.31
650.921	8.31
650.954	-2.69
650.987	2.31
651.02	-6.69
651.053	-12.69
651.087	-10.69
651.12	16.31
651.153	29.31
651.186	5.31
651.219	-3.69
651.252	5.31
651.286	7.31
651.319	-12.69
651.352	1.31
651.385	3.31
651.418	6.31
651.451	15.31
651.484	4.31
651.518	7.31
651.551	13.31
651.584	-11.69
651.617	26.31
651.65	25.31
651.683	11.31
651.716	2.31
651.749	-1.69
651.783	8.31
651.816	-9.69
651.849	14.31
651.882	11.31
651.915	-0.69
651.948	12.31
651.981	-15.69
652.014	-25.69
652.047	-17.69
652.08	-15.69
652.114	11.31
652.147	4.31
652.18	9.31
652.213	30.31
652.246	-2.69
652.279	-8.69
652.312	5.31
652.345	3.31
652.378	11.31
652.411	10.31
652.444	8.31
652.477	7.31
652.51	-3.69
652.543	-28.69
652.576	1.31
652.609	1.31
652.642	-0.69
652.675	8.31
652.709	19.31
652.742	9.31
652.775	5.31
652.808	2.31
652.841	5.31
652.874	15.31
652.907	-0.69
652.94	-7.69
652.973	-4.69
653.006	-8.69
653.039	-21.69
653.072	-2.69
653.105	2.31
653.138	-24.69
653.171	-12.69
653.204	15.31
653.237	13.31
653.27	-13.69
653.303	6.31
653.336	-2.69
653.368	4.31
653.401	7.31
653.434	-10.69
653.467	3.31
653.5	-6.69
653.533	-3.69
653.566	12.31
653.599	2.31
653.632	21.31
653.665	7.31
653.698	-9.69
653.731	-0.69
653.764	7.31
653.797	-1.69
653.83	19.31
653.863	3.31
653.896	14.31
653.929	-1.69
653.961	2.31
653.994	-4.69
654.027	-11.69
654.06	-5.69
654.093	-6.69
654.126	11.31
654.159	4.31
654.192	-12.69
654.225	-19.69
654.258	-7.69
654.29	-0.69
654.323	0.31
654.356	2.31
654.389	12.31
654.422	6.31
654.455	3.31
654.488	16.31
654.521	-2.69
654.553	4.31
654.586	17.31
654.619	3.31
654.652	7.31
654.685	20.31
654.718	9.31
654.751	11.31
654.783	-1.69
654.816	25.31
654.849	5.31
654.882	-5.69
654.915	-21.69
654.948	-12.69
654.98	-19.69
655.013	-12.69
655.046	5.31
655.079	-15.69
655.112	-3.69
655.144	-11.69
655.177	3.31
655.21	17.31
655.243	37.31
655.276	11.31
655.308	-3.69
655.341	-7.69
655.374	-3.69
655.407	-10.69
655.44	9.31
655.472	3.31
655.505	22.31
655.538	8.31
655.571	3.31
655.603	5.31
655.636	4.31
655.669	8.31
655.702	1.31
655.734	-4.69
655.767	-12.69
655.8	-6.69
655.833	8.31
655.865	13.31
655.898	6.31
655.931	1.31
655.964	6.31
655.996	-5.69
656.029	15.31
656.062	-2.69
656.095	-6.69
656.127	-8.69
656.16	4.31
656.193	0.31
656.225	2.31
656.258	11.31
656.291	-7.69
656.324	-2.69
656.356	16.31
656.389	8.31
656.422	8.31
656.454	-1.69
656.487	4.31
656.52	22.31
656.552	2.31
656.585	1.31
656.618	14.31
656.65	15.31
656.683	9.31
656.716	5.31
656.748	9.31
656.781	-20.69
656.814	-4.69
656.846	6.31
656.879	0.31
656.912	-6.69
656.944	-25.69
656.977	-6.69
657.01	2.31
657.042	18.31
657.075	20.31
657.108	1.31
657.14	5.31
657.173	11.31
657.205	26.31
657.238	16.31
657.271	10.31
657.303	1.31
657.336	3.31
657.369	-4.69
657.401	7.31
657.434	12.31
657.466	4.31
657.499	1.31
657.532	-4.69
657.564	10.31
657.597	5.31
657.629	0.31
657.662	1.31
657.694	1.31
657.727	-4.69
657.76	18.31
657.792	3.31
657.825	15.31
657.857	-26.69
657.89	-0.69
657.922	13.31
657.955	7.31
657.987	7.31
658.02	4.31
658.053	-4.69
658.085	13.31
658.118	-5.69
658.15	5.31
658.183	12.31
658.215	1.31
658.248	4.31
658.28	-7.69
658.313	23.31
658.345	8.31
658.378	6.31
658.41	-8.69
658.443	19.31
658.475	7.31
658.508	11.31
658.54	-11.69
658.573	-11.69
658.605	3.31
658.638	13.31
658.67	1.31
658.703	2.31
658.735	-12.69
658.768	4.31
658.8	-3.69
658.833	30.31
658.865	13.31
658.898	-5.69
658.93	-7.69
658.963	3.31
658.995	-3.69
659.028	7.31
659.06	4.31
659.092	18.31
659.125	-6.69
659.157	2.31
659.19	-11.69
659.222	-2.69
659.255	-5.69
659.287	4.31
659.32	0.31
659.352	7.31
659.384	7.31
659.417	-5.69
659.449	-5.69
659.482	9.31
659.514	8.31
659.546	-1.69
659.579	-7.69
659.611	3.31
659.644	-1.69
659.676	-21.69
659.708	-6.69
659.741	-8.69
659.773	7.31
659.806	-9.69
659.838	-1.69
659.87	6.31
659.903	-16.69
659.935	1.31
659.967	16.31
660	-4.69
660.032	-25.69
660.065	7.31
660.097	4.31
660.129	-5.69
660.162	-19.69
660.194	13.31
660.226	-4.69
660.259	6.31
660.291	-15.69
660.323	-9.69
660.356	8.31
660.388	3.31
660.42	17.31
660.453	0.31
660.485	4.31
660.517	22.31
660.55	15.31
660.582	-5.69
660.614	12.31
660.647	-9.69
660.679	-2.69
660.711	11.31
660.743	-5.69
660.776	-9.69
660.808	-5.69
660.84	-3.69
660.873	12.31
660.905	-6.69
660.937	8.31
660.969	-8.69
661.002	-6.69
661.034	-0.69
661.066	-7.69
661.099	6.31
661.131	17.31
661.163	19.31
661.195	-7.69
661.228	10.31
661.26	-5.69
661.292	-16.69
661.324	16.31
661.357	3.31
661.389	-4.69
661.421	15.31
661.453	5.31
661.485	13.31
661.518	-0.69
661.55	-5.69
661.582	-2.69
661.614	0.31
661.647	-3.69
661.679	1.31
661.711	3.31
661.743	0.31
661.775	-0.69
661.808	17.31
661.84	-34.69
661.872	-3.69
661.904	4.31
661.936	14.31
661.969	0.31
662.001	3.31
662.033	-0.69
662.065	2.31
662.097	11.31
662.129	5.31
662.162	-3.69
662.194	-5.69
662.226	4.31
662.258	3.31
662.29	-11.69
662.322	-7.69
662.355	-8.69
662.387	10.31
662.419	7.31
662.451	7.31
662.483	16.31
662.515	9.31
662.547	-2.69
662.58	-11.69
662.612	1.31
662.644	-16.69
662.676	4.31
662.708	18.31
662.74	0.31
662.772	7.31
662.804	-1.69
662.836	6.31
662.869	10.31
662.901	22.31
662.933	-5.69
662.965	12.31
662.997	6.31
663.029	1.31
663.061	6.31
663.093	0.31
663.125	11.31
663.157	8.31
663.189	-5.69
663.221	16.31
663.254	-4.69
663.286	4.31
663.318	-7.69
663.35	0.31
663.382	-9.69
663.414	-6.69
663.446	7.31
663.478	-5.69
663.51	20.31
663.542	-11.69
663.574	8.31
663.606	16.31
663.638	2.31
663.67	-11.69
663.702	7.31
663.734	2.31
663.766	10.31
663.798	8.31
663.83	1.31
663.862	2.31
663.894	12.31
663.926	-5.69
663.958	1.31
663.99	-18.69
664.022	-3.69
664.054	4.31
664.086	-20.69
664.118	-11.69
664.15	-7.69
664.182	-14.69
664.214	-0.69
664.246	8.31
664.278	-3.69
664.31	-6.69
664.342	11.31
664.374	5.31
664.406	-8.69
664.438	-2.69
664.47	25.31
664.502	-2.69
664.534	5.31
664.566	-4.69
664.598	8.31
664.63	-10.69
664.662	6.31
664.693	-5.69
664.725	5.31
664.757	3.31
664.789	5.31
664.821	22.31
664.853	19.31
664.885	-18.69
664.917	-8.69
664.949	5.31
664.981	9.31
665.013	3.31
665.045	-13.69
665.076	12.31
665.108	9.31
665.14	2.31
665.172	1.31
665.204	-0.69
665.236	-9.69
665.268	-3.69
665.3	-10.69
665.331	-3.69
665.363	-3.69
665.395	-8.69
665.427	-18.69
665.459	-3.69
665.491	-2.69
665.523	4.31
665.555	-3.69
665.586	-5.69
665.618	-7.69
665.65	-19.69
665.682	11.31
665.714	3.31
665.746	-19.69
665.777	3.31
665.809	-13.69
665.841	2.31
665.873	1.31
665.905	2.31
665.937	15.31
665.968	16.31
666	8.31
666.032	16.31
666.064	-6.69
666.096	-9.69
666.127	6.31
666.159	0.31
666.191	18.31
666.223	4.31
666.255	0.31
666.286	5.31
666.318	0.31
666.35	14.31
666.382	23.31
666.413	-7.69
666.445	-9.69
666.477	-30.69
666.509	0.31
666.54	10.31
666.572	-2.69
666.604	7.31
666.636	1.31
666.667	23.31
666.699	6.31
666.731	-5.69
666.763	8.31
666.794	8.31
666.826	-2.69
666.858	-17.69
666.89	19.31
666.921	11.31
666.953	-5.69
666.985	23.31
667.017	4.31
667.048	14.31
667.08	-8.69
667.112	-13.69
667.143	0.31
667.175	3.31
667.207	-4.69
667.238	-4.69
667.27	7.31
667.302	-0.69
667.334	2.31
667.365	20.31
667.397	-6.69
667.429	-3.69
667.46	10.31
667.492	5.31
667.524	10.31
667.555	5.31
667.587	14.31
667.619	1.31
667.65	1.31
667.682	-3.69
667.714	6.31
667.745	-7.69
667.777	10.31
667.808	12.31
667.84	3.31
667.872	-5.69
667.903	17.31
667.935	3.31
667.967	1.31
667.998	-3.69
668.03	-6.69
668.061	-2.69
668.093	0.31
668.125	-12.69
668.156	7.31
668.188	1.31
668.22	0.31
668.251	2.31
668.283	7.31
668.314	11.31
668.346	23.31
668.377	32.31
668.409	9.31
668.441	19.31
668.472	4.31
668.504	12.31
668.535	12.31
668.567	27.31
668.599	12.31
668.63	8.31
668.662	-6.69
668.693	22.31
668.725	19.31
668.756	8.31
668.788	9.31
668.819	-3.69
668.851	5.31
668.882	-10.69
668.914	11.31
668.946	-1.69
668.977	-4.69
669.009	-13.69
669.04	-8.69
669.072	0.31
669.103	-4.69
669.135	-2.69
669.166	2.31
669.198	8.31
669.229	3.31
669.261	-0.69
669.292	7.31
669.324	3.31
669.355	17.31
669.387	-13.69
669.418	-8.69
669.45	1.31
669.481	14.31
669.513	5.31
669.544	5.31
669.576	0.31
669.607	17.31
669.639	8.31
669.67	-14.69
669.701	-0.69
669.733	-0.69
669.764	7.31
669.796	-9.69
669.827	1.31
669.859	2.31
669.89	7.31
669.922	9.31
669.953	3.31
669.985	23.31
670.016	6.31
670.047	13.31
670.079	0.31
670.11	3.31
670.142	7.31
670.173	18.31
670.204	1.31
670.236	6.31
670.267	-2.69
670.299	1.31
670.33	1.31
670.362	5.31
670.393	-13.69
670.424	4.31
670.456	-13.69
670.487	-2.69
670.518	1.31
670.55	17.31
670.581	3.31
670.613	14.31
670.644	9.31
670.675	2.31
670.707	-0.69
670.738	6.31
670.769	-21.69
670.801	-31.69
670.832	-3.69
670.864	10.31
670.895	1.31
670.926	-3.69
670.958	-1.69
670.989	3.31
671.02	-14.69
671.052	4.31
671.083	1.31
671.114	-4.69
671.146	17.31
671.177	0.31
671.208	-13.69
671.24	1.31
671.271	-1.69
671.302	6.31
671.333	-10.69
671.365	3.31
671.396	5.31
671.427	-2.69
671.459	-2.69
671.49	19.31
671.521	6.31
671.553	-3.69
671.584	4.31
671.615	-5.69
671.646	14.31
671.678	18.31
671.709	-10.69
671.74	-13.69
671.771	-1.69
671.803	-12.69
671.834	0.31
671.865	-13.69
671.896	1.31
671.928	-0.69
671.959	5.31
671.99	-7.69
672.021	4.31
672.053	-8.69
672.084	-1.69
672.115	3.31
672.146	11.31
672.178	-2.69
672.209	3.31
672.24	-2.69
672.271	25.31
672.303	3.31
672.334	-9.69
672.365	8.31
672.396	-7.69
672.427	-11.69
672.459	12.31
672.49	34.31
672.521	-1.69
672.552	9.31
672.583	-0.69
672.615	5.31
672.646	10.31
672.677	-10.69
672.708	-1.69
672.739	7.31
672.77	5.31
672.802	4.31
672.833	-5.69
672.864	-7.69
672.895	-11.69
672.926	9.31
672.957	-4.69
672.989	-9.69
673.02	11.31
673.051	4.31
673.082	12.31
673.113	-1.69
673.144	10.31
673.175	7.31
673.206	11.31
673.238	0.31
673.269	-2.69
673.3	-6.69
673.331	6.31
673.362	-0.69
673.393	-2.69
673.424	10.31
673.455	15.31
673.487	-5.69
673.518	8.31
673.549	-7.69
673.58	3.31
673.611	14.31
673.642	3.31
673.673	-13.69
673.704	4.31
673.735	2.31
673.766	-12.69
673.797	-4.69
673.828	8.31
673.86	2.31
673.891	-2.69
673.922	-2.69
673.953	-3.69
673.984	-10.69
674.015	5.31
674.046	-10.69
674.077	8.31
674.108	-0.69
674.139	10.31
674.17	-10.69
674.201	-3.69
674.232	-2.69
674.263	10.31
674.294	-6.69
674.325	-5.69
674.356	-4.69
674.387	10.31
674.418	-10.69
674.449	-0.69
674.48	2.31
674.511	-12.69
674.542	2.31
674.573	-2.69
674.604	14.31
674.635	3.31
674.666	15.31
674.697	-0.69
674.728	2.31
674.759	7.31
674.79	-6.69
674.821	-2.69
674.852	10.31
674.883	-7.69
674.914	-5.69
674.945	10.31
674.976	4.31
675.007	-5.69
675.038	-1.69
675.069	-5.69
675.1	-5.69
675.131	3.31
675.162	-14.69
675.193	2.31
675.224	2.31
675.254	12.31
675.285	4.31
675.316	15.31
675.347	-5.69
675.378	4.31
675.409	1.31
675.44	8.31
675.471	8.31
675.502	-4.69
675.533	-8.69
675.564	-2.69
675.595	-1.69
675.625	17.31
675.656	11.31
675.687	2.31
675.718	-9.69
675.749	7.31
675.78	6.31
675.811	4.31
675.842	7.31
675.873	2.31
675.903	0.31
675.934	5.31
675.965	2.31
675.996	-10.69
676.027	-1.69
676.058	-4.69
676.089	-13.69
676.119	-3.69
676.15	-3.69
676.181	3.31
676.212	-6.69
676.243	-0.69
676.274	1.31
676.304	23.31
676.335	11.31
676.366	11.31
676.397	12.31
676.428	2.31
676.459	0.31
676.489	19.31
676.52	4.31
676.551	17.31
676.582	-19.69
676.613	2.31
676.643	-12.69
676.674	27.31
676.705	3.31
676.736	12.31
676.767	2.31
676.797	12.31
676.828	9.31
676.859	1.31
676.89	2.31
676.92	2.31
676.951	4.31
676.982	16.31
677.013	-2.69
677.044	23.31
677.074	13.31
677.105	-7.69
677.136	12.31
677.167	8.31
677.197	20.31
677.228	10.31
677.259	2.31
677.289	20.31
677.32	-0.69
677.351	-10.69
677.382	2.31
677.412	-12.69
677.443	13.31
677.474	0.31
677.505	-3.69
677.535	4.31
677.566	-7.69
677.597	-15.69
677.627	-7.69
677.658	-4.69
677.689	7.31
677.72	-6.69
677.75	-8.69
677.781	-1.69
677.812	5.31
677.842	16.31
677.873	6.31
677.904	8.31
677.934	3.31
677.965	-20.69
677.996	-27.69
678.026	-15.69
678.057	-14.69
678.088	-8.69
678.118	5.31
678.149	-5.69
678.18	7.31
678.21	14.31
678.241	2.31
678.272	-2.69
678.302	3.31
678.333	3.31
678.363	13.31
678.394	26.31
678.425	1.31
678.455	-3.69
678.486	11.31
678.517	5.31
678.547	10.31
678.578	-4.69
678.608	-16.69
678.639	4.31
678.67	10.31
678.7	-0.69
678.731	12.31
678.761	10.31
678.792	-9.69
678.823	8.31
678.853	-1.69
678.884	-7.69
678.914	4.31
678.945	1.31
678.975	-10.69
679.006	5.31
679.037	-5.69
679.067	21.31
679.098	4.31
679.128	-4.69
679.159	-7.69
679.189	-3.69
679.22	-16.69
679.25	4.31
679.281	0.31
679.312	-5.69
679.342	-1.69
679.373	35.31
679.403	22.31
679.434	4.31
679.464	-2.69
679.495	6.31
679.525	4.31
679.556	5.31
679.586	9.31
679.617	1.31
679.647	-0.69
679.678	-4.69
679.708	7.31
679.739	12.31
679.769	3.31
679.8	-0.69
679.83	-6.69
679.861	13.31
679.891	-8.69
679.922	0.31
679.952	-10.69
679.983	11.31
680.013	14.31
680.044	9.31
680.074	14.31
680.105	3.31
680.135	4.31
680.165	12.31
680.196	13.31
680.226	5.31
680.257	-1.69
680.287	-0.69
680.318	9.31
680.348	-1.69
680.379	20.31
680.409	17.31
680.439	0.31
680.47	-3.69
680.5	4.31
680.531	-9.69
680.561	9.31
680.592	3.31
680.622	24.31
680.652	-4.69
680.683	6.31
680.713	15.31
680.744	-8.69
680.774	-11.69
680.804	22.31
680.835	1.31
680.865	2.31
680.896	22.31
680.926	14.31
680.956	8.31
680.987	-7.69
681.017	-24.69
681.047	-8.69
681.078	-6.69
681.108	5.31
681.139	5.31
681.169	-0.69
681.199	2.31
681.23	14.31
681.26	9.31
681.29	7.31
681.321	-16.69
681.351	10.31
681.381	-16.69
681.412	-3.69
681.442	11.31
681.472	17.31
681.503	17.31
681.533	-8.69
681.563	-17.69
681.594	-0.69
681.624	15.31
681.654	-5.69
681.685	2.31
681.715	3.31
681.745	-3.69
681.775	-20.69
681.806	10.31
681.836	11.31
681.866	2.31
681.897	1.31
681.927	-3.69
681.957	-19.69
681.987	-3.69
682.018	-5.69
682.048	4.31
682.078	19.31
682.109	23.31
682.139	6.31
682.169	6.31
682.199	5.31
682.23	-7.69
682.26	15.31
682.29	-11.69
682.32	-12.69
682.351	15.31
682.381	2.31
682.411	-7.69
682.441	-10.69
682.472	-5.69
682.502	2.31
682.532	-14.69
682.562	-0.69
682.592	6.31
682.623	9.31
682.653	3.31
682.683	-2.69
682.713	11.31
682.743	1.31
682.774	-0.69
682.804	-2.69
682.834	12.31
682.864	8.31
682.894	7.31
682.925	7.31
682.955	-8.69
682.985	-17.69
683.015	5.31
683.045	6.31
683.076	-4.69
683.106	5.31
683.136	-6.69
683.166	-9.69
683.196	-2.69
683.226	-1.69
683.257	-3.69
683.287	0.31
683.317	-2.69
683.347	-1.69
683.377	2.31
683.407	-7.69
683.437	15.31
683.468	19.31
683.498	0.31
683.528	-0.69
683.558	-1.69
683.588	-13.69
683.618	-15.69
683.648	-15.69
683.678	3.31
683.708	4.31
683.739	7.31
683.769	-1.69
683.799	-0.69
683.829	7.31
683.859	-0.69
683.889	18.31
683.919	-7.69
683.949	12.31
683.979	-3.69
684.009	0.31
684.039	-0.69
684.07	-11.69
684.1	28.31
684.13	3.31
684.16	16.31
684.19	-4.69
684.22	6.31
684.25	0.31
684.28	-9.69
684.31	26.31
684.34	-2.69
684.37	-5.69
684.4	7.31
684.43	-0.69
684.46	7.31
684.49	-6.69
684.52	1.31
684.55	7.31
684.58	19.31
684.61	0.31
684.64	18.31
684.67	7.31
684.7	1.31
684.73	7.31
684.76	-2.69
684.79	20.31
684.82	6.31
684.85	6.31
684.88	11.31
684.91	0.31
684.94	0.31
684.97	-8.69
685	-11.69
685.03	-9.69
685.06	-9.69
685.09	-8.69
685.12	22.31
685.15	3.31
685.18	-7.69
685.21	-0.69
685.24	2.31
685.27	24.31
685.3	-0.69
685.33	-1.69
685.36	0.31
685.39	-1.69
685.42	-15.69
685.45	-4.69
685.48	13.31
685.51	-0.69
685.54	8.31
685.569	16.31
685.599	21.31
685.629	6.31
685.659	3.31
685.689	1.31
685.719	-3.69
685.749	-3.69
685.779	4.31
685.809	5.31
685.839	1.31
685.869	-4.69
685.898	6.31
685.928	-4.69
685.958	4.31
685.988	12.31
686.018	4.31
686.048	-14.69
686.078	-1.69
686.108	22.31
686.137	6.31
686.167	22.31
686.197	-6.69
686.227	-8.69
686.257	35.31
686.287	9.31
686.317	-13.69
686.346	-15.69
686.376	-19.69
686.406	-0.69
686.436	6.31
686.466	12.31
686.496	17.31
686.525	8.31
686.555	4.31
686.585	30.31
686.615	41.31
686.645	7.31
686.675	-5.69
686.704	9.31
686.734	5.31
686.764	-5.69
686.794	-1.69
686.824	-8.69
686.853	-7.69
686.883	8.31
686.913	9.31
686.943	0.31
686.973	10.31
687.002	3.31
687.032	0.31
687.062	0.31
687.092	14.31
687.121	3.31
687.151	20.31
687.181	16.31
687.211	14.31
687.24	1.31
687.27	6.31
687.3	5.31
687.33	0.31
687.359	-18.69
687.389	0.31
687.419	2.31
687.449	2.31
687.478	12.31
687.508	3.31
687.538	-0.69
687.568	1.31
687.597	-6.69
687.627	-1.69
687.657	8.31
687.686	12.31
687.716	32.31
687.746	-8.69
687.776	0.31
687.805	23.31
687.835	7.31
687.865	24.31
687.894	10.31
687.924	6.31
687.954	8.31
687.983	8.31
688.013	27.31
688.043	10.31
688.072	-3.69
688.102	-0.69
688.132	-16.69
688.161	0.31
688.191	2.31
688.221	15.31
688.25	3.31
688.28	9.31
688.31	7.31
688.339	-6.69
688.369	8.31
688.399	-7.69
688.428	-7.69
688.458	4.31
688.488	-7.69
688.517	3.31
688.547	11.31
688.576	25.31
688.606	10.31
688.636	-13.69
688.665	5.31
688.695	6.31
688.725	-0.69
688.754	-3.69
688.784	3.31
688.813	11.31
688.843	12.31
688.873	0.31
688.902	-2.69
688.932	-2.69
688.961	12.31
688.991	12.31
689.02	13.31
689.05	10.31
689.08	30.31
689.109	20.31
689.139	2.31
689.168	6.31
689.198	2.31
689.227	0.31
689.257	4.31
689.287	9.31
689.316	16.31
689.346	-17.69
689.375	-3.69
689.405	11.31
689.434	2.31
689.464	3.31
689.493	2.31
689.523	-4.69
689.552	3.31
689.582	14.31
689.611	2.31
689.641	12.31
689.67	-6.69
689.7	-0.69
689.73	21.31
689.759	8.31
689.789	19.31
689.818	1.31
689.848	0.31
689.877	-6.69
689.906	-0.69
689.936	7.31
689.965	8.31
689.995	20.31
690.024	13.31
690.054	3.31
690.083	2.31
690.113	14.31
690.142	1.31
690.172	-7.69
690.201	3.31
690.231	0.31
690.26	-1.69
690.29	8.31
690.319	16.31
690.348	-5.69
690.378	7.31
690.407	4.31
690.437	7.31
690.466	6.31
690.496	0.31
690.525	5.31
690.555	-3.69
690.584	0.31
690.613	3.31
690.643	23.31
690.672	9.31
690.702	11.31
690.731	-5.69
690.76	31.31
690.79	57.31
690.819	54.31
690.849	34.31
690.878	30.31
690.907	23.31
690.937	20.31
690.966	11.31
690.996	0.31
691.025	6.31
691.054	-1.69
691.084	-7.69
691.113	2.31
691.142	5.31
691.172	19.31
691.201	2.31
691.23	5.31
691.26	15.31
691.289	10.31
691.319	-6.69
691.348	8.31
691.377	22.31
691.407	-6.69
691.436	6.31
691.465	5.31
691.495	7.31
691.524	5.31
691.553	3.31
691.583	-0.69
691.612	0.31
691.641	8.31
691.67	14.31
691.7	3.31
691.729	-13.69
691.758	5.31
691.788	-7.69
691.817	2.31
691.846	-6.69
691.876	12.31
691.905	-1.69
691.934	2.31
691.963	12.31
691.993	9.31
692.022	1.31
692.051	0.31
692.081	15.31
692.11	21.31
692.139	-2.69
692.168	6.31
692.198	21.31
692.227	17.31
692.256	8.31
692.285	-9.69
692.315	12.31
692.344	17.31
692.373	8.31
692.402	-0.69
692.432	15.31
692.461	-8.69
692.49	9.31
692.519	0.31
692.548	11.31
692.578	15.31
692.607	-5.69
692.636	-1.69
692.665	17.31
692.694	7.31
692.724	-2.69
692.753	16.31
692.782	31.31
692.811	0.31
692.84	15.31
692.87	-5.69
692.899	12.31
692.928	1.31
692.957	0.31
692.986	14.31
693.016	-12.69
693.045	9.31
693.074	12.31
693.103	0.31
693.132	13.31
693.161	29.31
693.191	3.31
693.22	-3.69
693.249	0.31
693.278	4.31
693.307	14.31
693.336	-1.69
693.365	-19.69
693.395	-5.69
693.424	-1.69
693.453	24.31
693.482	2.31
693.511	13.31
693.54	11.31
693.569	7.31
693.598	-1.69
693.628	9.31
693.657	24.31
693.686	24.31
693.715	8.31
693.744	13.31
693.773	25.31
693.802	7.31
693.831	18.31
693.86	19.31
693.889	-1.69
693.919	3.31
693.948	3.31
693.977	4.31
694.006	-2.69
694.035	13.31
694.064	20.31
694.093	7.31
694.122	-0.69
694.151	9.31
694.18	10.31
694.209	30.31
694.238	8.31
694.267	20.31
694.296	10.31
694.325	-1.69
694.354	13.31
694.383	8.31
694.412	8.31
694.441	8.31
694.471	10.31
694.5	-5.69
694.529	9.31
694.558	23.31
694.587	13.31
694.616	15.31
694.645	16.31
694.674	22.31
694.703	1.31
694.732	-3.69
694.761	11.31
694.79	38.31
694.819	-1.69
694.848	12.31
694.877	14.31
694.906	31.31
694.935	11.31
694.963	18.31
694.992	5.31
695.021	1.31
695.05	16.31
695.079	22.31
695.108	-1.69
695.137	10.31
695.166	5.31
695.195	-7.69
695.224	-0.69
695.253	8.31
695.282	3.31
695.311	-2.69
695.34	9.31
695.369	6.31
695.398	2.31
695.427	16.31
695.456	12.31
695.485	7.31
695.513	-0.69
695.542	0.31
695.571	-3.69
695.6	7.31
695.629	6.31
695.658	7.31
695.687	18.31
695.716	5.31
695.745	32.31
695.774	-7.69
695.802	-1.69
695.831	7.31
695.86	26.31
695.889	6.31
695.918	4.31
695.947	-6.69
695.976	10.31
696.005	1.31
696.033	3.31
696.062	14.31
696.091	4.31
696.12	12.31
696.149	18.31
696.178	4.31
696.207	15.31
696.235	-10.69
696.264	11.31
696.293	3.31
696.322	31.31
696.351	20.31
696.38	8.31
696.408	16.31
696.437	3.31
696.466	15.31
696.495	6.31
696.524	10.31
696.553	-1.69
696.581	14.31
696.61	9.31
696.639	-12.69
696.668	-0.69
696.697	-1.69
696.725	13.31
696.754	-4.69
696.783	-3.69
696.812	13.31
696.84	22.31
696.869	18.31
696.898	10.31
696.927	-13.69
696.956	20.31
696.984	0.31
697.013	24.31
697.042	4.31
697.071	29.31
697.099	11.31
697.128	14.31
697.157	6.31
697.186	3.31
697.214	-4.69
697.243	-2.69
697.272	-6.69
697.301	5.31
697.329	7.31
697.358	0.31
697.387	32.31
697.415	17.31
697.444	-0.69
697.473	8.31
697.502	-3.69
697.53	7.31
697.559	2.31
697.588	7.31
697.616	8.31
697.645	-5.69
697.674	8.31
697.703	-1.69
697.731	17.31
697.76	24.31
697.789	4.31
697.817	-7.69
697.846	10.31
697.875	6.31
697.903	24.31
697.932	27.31
697.961	2.31
697.989	14.31
698.018	28.31
698.047	7.31
698.075	0.31
698.104	-2.69
698.133	-0.69
698.161	0.31
698.19	0.31
698.218	-5.69
698.247	6.31
698.276	-0.69
698.304	1.31
698.333	22.31
698.362	4.31
698.39	12.31
698.419	10.31
698.447	12.31
698.476	8.31
698.505	8.31
698.533	10.31
698.562	-0.69
698.591	7.31
698.619	1.31
698.648	6.31
698.676	5.31
698.705	10.31
698.733	1.31
698.762	-5.69
698.791	2.31
698.819	3.31
698.848	22.31
698.876	10.31
698.905	19.31
698.933	3.31
698.962	4.31
698.991	-1.69
699.019	16.31
699.048	10.31
699.076	2.31
699.105	-10.69
699.133	-14.69
699.162	26.31
699.19	21.31
699.219	33.31
699.248	19.31
699.276	11.31
699.305	5.31
699.333	3.31
699.362	6.31
699.39	15.31
699.419	11.31
699.447	9.31
699.476	9.31
699.504	-4.69
699.533	-5.69
699.561	-3.69
699.59	-5.69
699.618	-0.69
699.647	-1.69
699.675	11.31
699.704	22.31
699.732	9.31
699.761	7.31
699.789	1.31
699.818	6.31
699.846	3.31
699.874	-3.69
699.903	10.31
699.931	11.31
699.96	-0.69
699.988	0.31
700.017	-17.69
700.045	7.31
700.074	8.31
700.102	-1.69
700.13	-4.69
700.159	3.31
700.187	5.31
700.216	3.31
700.244	-1.69
700.273	-10.69
700.301	4.31
700.329	15.31
700.358	14.31
700.386	10.31
700.415	1.31
700.443	3.31
700.472	-7.69
700.5	12.31
700.528	6.31
700.557	6.31
700.585	8.31
700.614	3.31
700.642	15.31
700.67	22.31
700.699	14.31
700.727	-1.69
700.755	6.31
700.784	5.31
700.812	11.31
700.841	6.31
700.869	-9.69
700.897	-10.69
700.926	-0.69
700.954	22.31
700.982	17.31
701.011	-4.69
701.039	7.31
701.067	5.31
701.096	11.31
701.124	8.31
701.152	14.31
701.181	3.31
701.209	-14.69
701.237	3.31
701.266	-0.69
701.294	-10.69
701.322	13.31
701.351	18.31
701.379	4.31
701.407	-2.69
701.435	-4.69
701.464	14.31
701.492	19.31
701.52	-1.69
701.549	9.31
701.577	-8.69
701.605	6.31
701.634	4.31
701.662	19.31
701.69	-16.69
701.718	9.31
701.747	9.31
701.775	10.31
701.803	-4.69
701.831	13.31
701.86	3.31
701.888	19.31
701.916	-1.69
701.944	5.31
701.973	-1.69
702.001	3.31
702.029	-3.69
702.057	-8.69
702.086	-3.69
702.114	-15.69
702.142	1.31
702.17	-1.69
702.199	-2.69
702.227	3.31
702.255	16.31
702.283	3.31
702.311	3.31
702.34	22.31
702.368	-22.69
702.396	-7.69
702.424	-5.69
702.452	-1.69
702.481	2.31
702.509	7.31
702.537	28.31
702.565	6.31
702.593	-16.69
702.621	12.31
702.65	2.31
702.678	4.31
702.706	3.31
702.734	-10.69
702.762	12.31
702.79	15.31
702.819	-4.69
702.847	1.31
702.875	-0.69
702.903	-4.69
702.931	-8.69
702.959	-1.69
702.988	13.31
703.016	-10.69
703.044	12.31
703.072	-0.69
703.1	-6.69
703.128	0.31
703.156	30.31
703.184	-5.69
703.212	17.31
703.241	6.31
703.269	6.31
703.297	7.31
703.325	8.31
703.353	-20.69
703.381	-5.69
703.409	8.31
703.437	-3.69
703.465	7.31
703.493	-0.69
703.522	10.31
703.55	13.31
703.578	3.31
703.606	5.31
703.634	3.31
703.662	-7.69
703.69	7.31
703.718	10.31
703.746	15.31
703.774	-3.69
703.802	13.31
703.83	4.31
703.858	-3.69
703.886	-4.69
703.914	-16.69
703.942	-5.69
703.97	-9.69
703.998	7.31
704.027	12.31
704.055	2.31
704.083	4.31
704.111	-15.69
704.139	-0.69
704.167	-16.69
704.195	4.31
704.223	-6.69
704.251	-10.69
704.279	-1.69
704.307	8.31
704.335	-9.69
704.363	-2.69
704.391	-3.69
704.419	13.31
704.447	-8.69
704.475	-5.69
704.503	-3.69
704.531	20.31
704.558	13.31
704.586	20.31
704.614	9.31
704.642	-6.69
704.67	-8.69
704.698	8.31
704.726	0.31
704.754	-14.69
704.782	4.31
704.81	8.31
704.838	19.31
704.866	13.31
704.894	-1.69
704.922	3.31
704.95	10.31
704.978	3.31
705.006	20.31
705.034	21.31
705.061	4.31
705.089	-0.69
705.117	-14.69
705.145	-3.69
705.173	10.31
705.201	1.31
705.229	11.31
705.257	11.31
705.285	11.31
705.313	8.31
705.34	2.31
705.368	-5.69
705.396	8.31
705.424	5.31
705.452	-3.69
705.48	3.31
705.508	-6.69
705.536	-2.69
705.563	-19.69
705.591	9.31
705.619	10.31
705.647	1.31
705.675	11.31
705.703	8.31
705.731	-5.69
705.758	-0.69
705.786	7.31
705.814	13.31
705.842	13.31
705.87	26.31
705.898	18.31
705.925	-4.69
705.953	6.31
705.981	0.31
706.009	-3.69
706.037	-16.69
706.065	-2.69
706.092	4.31
706.12	3.31
706.148	7.31
706.176	17.31
706.204	1.31
706.231	-1.69
706.259	-3.69
706.287	6.31
706.315	3.31
706.342	-1.69
706.37	4.31
706.398	5.31
706.426	-9.69
706.454	-0.69
706.481	6.31
706.509	-6.69
706.537	6.31
706.565	-2.69
706.592	14.31
706.62	11.31
706.648	10.31
706.676	10.31
706.703	11.31
706.731	2.31
706.759	5.31
706.787	13.31
706.814	4.31
706.842	15.31
706.87	15.31
706.897	10.31
706.925	-2.69
706.953	2.31
706.981	12.31
707.008	-0.69
707.036	7.31
707.064	2.31
707.091	-12.69
707.119	2.31
707.147	1.31
707.174	-11.69
707.202	11.31
707.23	-16.69
707.258	2.31
707.285	-8.69
707.313	0.31
707.341	-4.69
707.368	-11.69
707.396	4.31
707.424	22.31
707.451	7.31
707.479	-1.69
707.507	-3.69
707.534	1.31
707.562	-2.69
707.59	-11.69
707.617	-10.69
707.645	2.31
707.672	0.31
707.7	-4.69
707.728	-2.69
707.755	-2.69
707.783	2.31
707.811	18.31
707.838	-7.69
707.866	-0.69
707.893	-20.69
707.921	-17.69
707.949	7.31
707.976	10.31
708.004	19.31
708.031	1.31
708.059	-8.69
708.087	-6.69
708.114	-12.69
708.142	-9.69
708.169	7.31
708.197	-5.69
708.225	10.31
708.252	-5.69
708.28	21.31
708.307	2.31
708.335	11.31
708.362	-7.69
708.39	-10.69
708.418	15.31
708.445	1.31
708.473	4.31
708.5	-0.69
708.528	20.31
708.555	4.31
708.583	5.31
708.61	-4.69
708.638	10.31
708.665	-1.69
708.693	0.31
708.72	-13.69
708.748	-5.69
708.776	3.31
708.803	22.31
708.831	8.31
708.858	17.31
708.886	-2.69
708.913	1.31
708.941	-11.69
708.968	17.31
708.996	-0.69
709.023	23.31
709.051	2.31
709.078	-9.69
709.105	3.31
709.133	1.31
709.16	-7.69
709.188	-0.69
709.215	5.31
709.243	5.31
709.27	-13.69
709.298	-7.69
709.325	10.31
709.353	-5.69
709.38	3.31
709.408	25.31
709.435	5.31
709.462	-0.69
709.49	-1.69
709.517	15.31
709.545	2.31
709.572	-8.69
709.6	-4.69
709.627	-9.69
709.655	-17.69
709.682	1.31
709.709	12.31
709.737	2.31
709.764	-5.69
709.792	8.31
709.819	8.31
709.846	7.31
709.874	4.31
709.901	15.31
709.929	-1.69
709.956	-2.69
709.983	-0.69
710.011	-14.69
710.038	-4.69
710.066	8.31
710.093	17.31
710.12	11.31
710.148	-1.69
710.175	-15.69
710.202	-8.69
710.23	5.31
710.257	-2.69
710.284	-3.69
710.312	-4.69
710.339	4.31
710.366	5.31
710.394	-1.69
710.421	14.31
710.448	3.31
710.476	1.31
710.503	-0.69
710.53	-11.69
710.558	25.31
710.585	11.31
710.612	-8.69
710.64	5.31
710.667	3.31
710.694	1.31
710.722	-19.69
710.749	8.31
710.776	9.31
710.804	15.31
710.831	2.31
710.858	1.31
710.885	12.31
710.913	11.31
710.94	24.31
710.967	6.31
710.995	-8.69
711.022	6.31
711.049	2.31
711.076	-4.69
711.104	-14.69
711.131	-7.69
711.158	-3.69
711.185	13.31
711.213	-8.69
711.24	-4.69
711.267	4.31
711.294	8.31
711.322	12.31
711.349	2.31
711.376	-7.69
711.403	24.31
711.431	-9.69
711.458	-3.69
711.485	15.31
711.512	19.31
711.54	8.31
711.567	-6.69
711.594	16.31
711.621	12.31
711.648	18.31
711.676	2.31
711.703	8.31
711.73	-12.69
711.757	-4.69
711.784	12.31
711.812	-1.69
711.839	5.31
711.866	-0.69
711.893	-1.69
711.92	16.31
711.947	4.31
711.975	10.31
712.002	-6.69
712.029	15.31
712.056	-4.69
712.083	3.31
712.11	-7.69
712.138	8.31
712.165	10.31
712.192	-6.69
712.219	-12.69
712.246	1.31
712.273	-6.69
712.3	-8.69
712.328	-5.69
712.355	9.31
712.382	-0.69
712.409	11.31
712.436	-6.69
712.463	3.31
712.49	27.31
712.517	-8.69
712.544	-4.69
712.572	-7.69
712.599	-6.69
712.626	6.31
712.653	-6.69
712.68	-3.69
712.707	17.31
712.734	21.31
712.761	8.31
712.788	1.31
712.815	-1.69
712.842	17.31
712.87	4.31
712.897	-1.69
712.924	-9.69
712.951	-6.69
712.978	-0.69
713.005	19.31
713.032	-1.69
713.059	-10.69
713.086	-0.69
713.113	-7.69
713.14	-6.69
713.167	0.31
713.194	19.31
713.221	-1.69
713.248	3.31
713.275	2.31
713.302	-5.69
713.329	19.31
713.356	13.31
713.383	11.31
713.41	2.31
713.437	2.31
713.464	-12.69
713.491	15.31
713.518	10.31
713.545	9.31
713.572	24.31
713.599	17.31
713.626	3.31
713.653	7.31
713.68	4.31
713.707	9.31
713.734	10.31
713.761	-11.69
713.788	-17.69
713.815	-0.69
713.842	0.31
713.869	7.31
713.896	9.31
713.923	0.31
713.95	-3.69
713.977	6.31
714.004	-0.69
714.031	5.31
714.058	-0.69
714.085	-3.69
714.112	18.31
714.139	-7.69
714.165	-4.69
714.192	5.31
714.219	9.31
714.246	8.31
714.273	11.31
714.3	3.31
714.327	4.31
714.354	10.31
714.381	1.31
714.408	6.31
714.435	7.31
714.461	-2.69
714.488	4.31
714.515	-7.69
714.542	-5.69
714.569	-14.69
714.596	-10.69
714.623	3.31
714.65	-15.69
714.677	11.31
714.703	16.31
714.73	-4.69
714.757	3.31
714.784	-5.69
714.811	-16.69
714.838	4.31
714.865	6.31
714.891	25.31
714.918	2.31
714.945	-7.69
714.972	11.31
714.999	13.31
715.026	-0.69
715.052	6.31
715.079	4.31
715.106	17.31
715.133	0.31
715.16	1.31
715.187	3.31
715.213	21.31
715.24	2.31
715.267	-1.69
715.294	2.31
715.321	-1.69
715.347	3.31
715.374	-4.69
715.401	10.31
715.428	-5.69
715.455	0.31
715.481	0.31
715.508	20.31
715.535	5.31
715.562	26.31
715.588	-0.69
715.615	-6.69
715.642	14.31
715.669	13.31
715.695	-9.69
715.722	-2.69
715.749	0.31
715.776	-0.69
715.802	-12.69
715.829	8.31
715.856	3.31
715.883	5.31
715.909	-4.69
715.936	-2.69
715.963	3.31
715.99	-4.69
716.016	-5.69
716.043	0.31
716.07	-27.69
716.096	-17.69
716.123	-4.69
716.15	15.31
716.177	23.31
716.203	15.31
716.23	9.31
716.257	0.31
716.283	9.31
716.31	9.31
716.337	-5.69
716.363	-22.69
716.39	-9.69
716.417	12.31
716.443	3.31
716.47	3.31
716.497	-0.69
716.523	-1.69
716.55	-4.69
716.577	11.31
716.603	-4.69
716.63	6.31
716.657	23.31
716.683	-5.69
716.71	0.31
716.737	-1.69
716.763	7.31
716.79	1.31
716.817	5.31
716.843	10.31
716.87	-9.69
716.897	-7.69
716.923	21.31
716.95	-6.69
716.976	-11.69
717.003	6.31
717.03	11.31
717.056	11.31
717.083	4.31
717.109	9.31
717.136	0.31
717.163	-4.69
717.189	6.31
717.216	0.31
717.242	-3.69
717.269	8.31
717.296	8.31
717.322	21.31
717.349	8.31
717.375	16.31
717.402	-6.69
717.428	-0.69
717.455	12.31
717.481	-2.69
717.508	7.31
717.535	21.31
717.561	7.31
717.588	-20.69
717.614	-0.69
717.641	0.31
717.667	4.31
717.694	10.31
717.72	8.31
717.747	13.31
717.773	-0.69
717.8	14.31
717.826	2.31
717.853	17.31
717.88	18.31
717.906	-0.69
717.933	6.31
717.959	17.31
717.986	9.31
718.012	9.31
718.039	1.31
718.065	5.31
718.092	9.31
718.118	9.31
718.144	2.31
718.171	12.31
718.197	12.31
718.224	7.31
718.25	7.31
718.277	8.31
718.303	17.31
718.33	7.31
718.356	-2.69
718.383	-14.69
718.409	0.31
718.436	-4.69
718.462	-12.69
718.489	-3.69
718.515	3.31
718.541	22.31
718.568	5.31
718.594	9.31
718.621	24.31
718.647	10.31
718.674	11.31
718.7	0.31
718.726	-11.69
718.753	14.31
718.779	11.31
718.806	13.31
718.832	6.31
718.858	7.31
718.885	4.31
718.911	3.31
718.938	15.31
718.964	-8.69
718.99	0.31
719.017	18.31
719.043	8.31
719.07	11.31
719.096	0.31
719.122	-5.69
719.149	3.31
719.175	6.31
719.201	-5.69
719.228	-6.69
719.254	4.31
719.281	-1.69
719.307	3.31
719.333	-2.69
719.36	4.31
719.386	-5.69
719.412	-5.69
719.439	-12.69
719.465	-14.69
719.491	-20.69
719.518	3.31
719.544	2.31
719.57	13.31
719.597	4.31
719.623	4.31
719.649	21.31
719.675	4.31
719.702	9.31
719.728	14.31
719.754	3.31
719.781	-10.69
719.807	-5.69
719.833	-4.69
719.86	9.31
719.886	9.31
719.912	3.31
719.938	3.31
719.965	0.31
719.991	15.31
720.017	6.31
720.044	11.31
720.07	6.31
720.096	8.31
720.122	-1.69
720.149	4.31
720.175	20.31
720.201	12.31
720.227	7.31
720.254	1.31
720.28	4.31
720.306	1.31
720.332	-5.69
720.359	-1.69
720.385	17.31
720.411	3.31
720.437	2.31
720.463	9.31
720.49	5.31
720.516	2.31
720.542	0.31
720.568	4.31
720.595	17.31
720.621	10.31
720.647	6.31
720.673	6.31
720.699	-0.69
720.725	-3.69
720.752	6.31
720.778	3.31
720.804	6.31
720.83	14.31
720.856	-8.69
720.883	-2.69
720.909	-6.69
720.935	0.31
720.961	5.31
720.987	10.31
721.013	8.31
721.04	-2.69
721.066	10.31
721.092	-7.69
721.118	-1.69
721.144	3.31
721.17	4.31
721.196	6.31
721.223	-2.69
721.249	-3.69
721.275	7.31
721.301	6.31
721.327	15.31
721.353	27.31
721.379	13.31
721.405	4.31
721.432	7.31
721.458	4.31
721.484	5.31
721.51	-12.69
721.536	7.31
721.562	11.31
721.588	-5.69
721.614	2.31
721.64	3.31
721.666	14.31
721.693	12.31
721.719	1.31
721.745	-14.69
721.771	3.31
721.797	1.31
721.823	7.31
721.849	12.31
721.875	17.31
721.901	15.31
721.927	-10.69
721.953	3.31
721.979	3.31
722.005	20.31
722.031	-1.69
722.057	10.31
722.083	19.31
722.109	5.31
722.135	5.31
722.161	4.31
722.187	7.31
722.214	14.31
722.24	-9.69
722.266	-3.69
722.292	7.31
722.318	5.31
722.344	23.31
722.37	11.31
722.396	9.31
722.422	15.31
722.448	0.31
722.474	-6.69
722.5	8.31
722.526	7.31
722.552	8.31
722.578	19.31
722.603	14.31
722.629	-6.69
722.655	-1.69
722.681	-7.69
722.707	-0.69
722.733	2.31
722.759	-4.69
722.785	4.31
722.811	-1.69
722.837	4.31
722.863	6.31
722.889	6.31
722.915	0.31
722.941	2.31
722.967	10.31
722.993	10.31
723.019	-0.69
723.045	5.31
723.071	0.31
723.097	14.31
723.122	-1.69
723.148	-5.69
723.174	-0.69
723.2	11.31
723.226	7.31
723.252	1.31
723.278	4.31
723.304	-3.69
723.33	2.31
723.356	1.31
723.381	2.31
723.407	-16.69
723.433	-6.69
723.459	-8.69
723.485	4.31
723.511	4.31
723.537	-1.69
723.563	-0.69
723.588	1.31
723.614	3.31
723.64	1.31
723.666	-12.69
723.692	21.31
723.718	0.31
723.744	6.31
723.769	5.31
723.795	-0.69
723.821	3.31
723.847	3.31
723.873	7.31
723.899	12.31
723.924	9.31
723.95	14.31
723.976	2.31
724.002	7.31
724.028	14.31
724.053	5.31
724.079	0.31
724.105	-0.69
724.131	12.31
724.157	5.31
724.182	6.31
724.208	3.31
724.234	2.31
724.26	3.31
724.286	22.31
724.311	-3.69
724.337	-9.69
724.363	-10.69
724.389	14.31
724.415	2.31
724.44	30.31
724.466	8.31
724.492	11.31
724.518	-4.69
724.543	-0.69
724.569	2.31
724.595	11.31
724.621	-0.69
724.646	-6.69
724.672	2.31
724.698	0.31
724.723	7.31
724.749	9.31
724.775	4.31
724.801	7.31
724.826	3.31
724.852	6.31
724.878	8.31
724.904	0.31
724.929	18.31
724.955	-8.69
724.981	18.31
725.006	2.31
725.032	5.31
725.058	2.31
725.083	-9.69
725.109	-6.69
725.135	11.31
725.161	8.31
725.186	5.31
725.212	0.31
725.238	12.31
725.263	3.31
725.289	-1.69
725.315	-3.69
725.34	-9.69
725.366	0.31
725.392	2.31
725.417	8.31
725.443	4.31
725.468	18.31
725.494	12.31
725.52	6.31
725.545	-7.69
725.571	-5.69
725.597	-0.69
725.622	2.31
725.648	12.31
725.674	-2.69
725.699	2.31
725.725	5.31
725.75	22.31
725.776	-4.69
725.802	2.31
725.827	-4.69
725.853	-16.69
725.878	8.31
725.904	-3.69
725.93	-6.69
725.955	-4.69
725.981	-21.69
726.006	9.31
726.032	23.31
726.057	-3.69
726.083	-4.69
726.109	-3.69
726.134	10.31
726.16	0.31
726.185	14.31
726.211	17.31
726.236	7.31
726.262	15.31
726.288	14.31
726.313	11.31
726.339	12.31
726.364	2.31
726.39	10.31
726.415	1.31
726.441	7.31
726.466	-5.69
726.492	1.31
726.517	-3.69
726.543	4.31
726.568	-8.69
726.594	-0.69
726.619	-9.69
726.645	3.31
726.67	3.31
726.696	14.31
726.721	-1.69
726.747	-3.69
726.772	-0.69
726.798	4.31
726.823	14.31
726.849	3.31
726.874	-1.69
726.9	13.31
726.925	18.31
726.951	4.31
726.976	19.31
727.002	3.31
727.027	9.31
727.053	0.31
727.078	-6.69
727.104	-12.69
727.129	-12.69
727.155	2.31
727.18	2.31
727.205	-1.69
727.231	-6.69
727.256	13.31
727.282	-4.69
727.307	15.31
727.333	-3.69
727.358	-6.69
727.383	7.31
727.409	3.31
727.434	12.31
727.46	-1.69
727.485	-9.69
727.511	12.31
727.536	-22.69
727.561	2.31
727.587	2.31
727.612	2.31
727.637	-14.69
727.663	-13.69
727.688	6.31
727.714	-15.69
727.739	-12.69
727.764	-2.69
727.79	3.31
727.815	1.31
727.841	10.31
727.866	14.31
727.891	-4.69
727.917	-2.69
727.942	-15.69
727.967	2.31
727.993	-8.69
728.018	13.31
728.043	4.31
728.069	13.31
728.094	12.31
728.119	-7.69
728.145	16.31
728.17	4.31
728.195	0.31
728.221	5.31
728.246	14.31
728.271	6.31
728.297	5.31
728.322	0.31
728.347	0.31
728.373	-3.69
728.398	-3.69
728.423	-3.69
728.448	5.31
728.474	2.31
728.499	16.31
728.524	2.31
728.55	-13.69
728.575	-10.69
728.6	14.31
728.625	-3.69
728.651	14.31
728.676	5.31
728.701	-3.69
728.727	5.31
728.752	-1.69
728.777	-5.69
728.802	-15.69
728.828	1.31
728.853	-12.69
728.878	-3.69
728.903	-13.69
728.929	-3.69
728.954	5.31
728.979	14.31
729.004	-1.69
729.03	-8.69
729.055	-9.69
729.08	-21.69
729.105	-0.69
729.13	12.31
729.156	20.31
729.181	10.31
729.206	-13.69
729.231	-4.69
729.256	-6.69
729.282	9.31
729.307	-0.69
729.332	-7.69
729.357	-6.69
729.382	15.31
729.408	13.31
729.433	6.31
729.458	4.31
729.483	5.31
729.508	11.31
729.533	6.31
729.559	3.31
729.584	-14.69
729.609	12.31
729.634	-1.69
729.659	-5.69
729.684	-11.69
729.71	5.31
729.735	6.31
729.76	3.31
729.785	17.31
729.81	24.31
729.835	2.31
729.86	6.31
729.886	30.31
729.911	12.31
729.936	7.31
729.961	29.31
729.986	25.31
730.011	65.31
730.036	205.31
730.061	998.31
730.086	2690.31
730.112	3334.31
730.137	2830.31
730.162	2164.31
730.187	1666.31
730.212	1264.31
730.237	796.31
730.262	460.31
730.287	238.31
730.312	138.31
730.337	74.31
730.362	71.31
730.387	41.31
730.413	29.31
730.438	13.31
730.463	22.31
730.488	21.31
730.513	14.31
730.538	-1.69
730.563	17.31
730.588	20.31
730.613	5.31
730.638	14.31
730.663	9.31
730.688	29.31
730.713	26.31
730.738	11.31
730.763	10.31
730.788	-6.69
730.813	8.31
730.838	4.31
730.863	-9.69
730.888	-0.69
730.913	-4.69
730.938	-19.69
730.963	22.31
730.988	129.31
731.013	399.31
731.038	606.31
731.063	610.31
731.088	461.31
731.113	332.31
731.138	286.31
731.163	201.31
731.188	99.31
731.213	73.31
731.238	61.31
731.263	26.31
731.288	6.31
731.313	12.31
731.338	14.31
731.363	6.31
731.388	10.31
731.413	12.31
731.438	10.31
731.463	0.31
731.487	5.31
731.512	2.31
731.537	-3.69
731.562	8.31
731.587	3.31
731.612	-3.69
731.637	12.31
731.662	-1.69
731.687	21.31
731.712	-19.69
731.737	-3.69
731.762	0.31
731.786	14.31
731.811	10.31
731.836	8.31
731.861	2.31
731.886	0.31
731.911	9.31
731.936	4.31
731.961	-0.69
731.986	-6.69
732.01	14.31
732.035	6.31
732.06	4.31
732.085	4.31
732.11	3.31
732.135	-12.69
732.16	-5.69
732.184	10.31
732.209	-0.69
732.234	2.31
732.259	-4.69
732.284	4.31
732.309	1.31
732.334	-4.69
732.358	-17.69
732.383	4.31
732.408	5.31
732.433	6.31
732.458	-4.69
732.482	10.31
732.507	2.31
732.532	-1.69
732.557	21.31
732.582	22.31
732.607	26.31
732.631	46.31
732.656	78.31
732.681	149.31
732.706	326.31
732.73	455.31
732.755	400.31
732.78	299.31
732.805	238.31
732.83	187.31
732.854	138.31
732.879	77.31
732.904	34.31
732.929	7.31
732.953	21.31
732.978	21.31
733.003	7.31
733.028	-10.69
733.052	3.31
733.077	19.31
733.102	16.31
733.127	2.31
733.151	-0.69
733.176	2.31
733.201	9.31
733.226	0.31
733.25	-0.69
733.275	16.31
733.3	13.31
733.324	32.31
733.349	10.31
733.374	-2.69
733.399	6.31
733.423	3.31
733.448	-2.69
733.473	9.31
733.497	0.31
733.522	-3.69
733.547	7.31
733.571	3.31
733.596	-1.69
733.621	10.31
733.646	-1.69
733.67	14.31
733.695	16.31
733.72	14.31
733.744	15.31
733.769	0.31
733.794	18.31
733.818	0.31
733.843	-10.69
733.867	-6.69
733.892	-3.69
733.917	12.31
733.941	5.31
733.966	-5.69
733.991	-5.69
734.015	15.31
734.04	-4.69
734.065	8.31
734.089	18.31
734.114	-12.69
734.138	9.31
734.163	-4.69
734.188	2.31
734.212	18.31
734.237	5.31
734.261	1.31
734.286	-1.69
734.311	-13.69
734.335	-12.69
734.36	-7.69
734.384	5.31
734.409	11.31
734.434	-3.69
734.458	-6.69
734.483	-4.69
734.507	-10.69
734.532	-6.69
734.556	7.31
734.581	1.31
734.606	-10.69
734.63	-3.69
734.655	7.31
734.679	4.31
734.704	-5.69
734.728	-0.69
734.753	6.31
734.777	1.31
734.802	0.31
734.826	14.31
734.851	7.31
734.876	17.31
734.9	11.31
734.925	8.31
734.949	-0.69
734.974	5.31
734.998	8.31
735.023	-5.69
735.047	-1.69
735.072	22.31
735.096	12.31
735.121	2.31
735.145	1.31
735.17	8.31
735.194	0.31
735.219	0.31
735.243	11.31
735.268	15.31
735.292	20.31
735.317	11.31
735.341	7.31
735.365	-9.69
735.39	-6.69
735.414	14.31
735.439	0.31
735.463	3.31
735.488	10.31
735.512	-6.69
735.537	-9.69
735.561	-12.69
735.586	-6.69
735.61	8.31
735.634	-3.69
735.659	10.31
735.683	15.31
735.708	-1.69
735.732	-0.69
735.757	-5.69
735.781	-8.69
735.805	3.31
735.83	-14.69
735.854	-9.69
735.879	-10.69
735.903	26.31
735.927	7.31
735.952	9.31
735.976	-4.69
736.001	-0.69
736.025	0.31
736.049	3.31
736.074	-5.69
736.098	1.31
736.123	13.31
736.147	0.31
736.171	4.31
736.196	7.31
736.22	-4.69
736.244	1.31
736.269	8.31
736.293	-0.69
736.317	9.31
736.342	-0.69
736.366	7.31
736.39	12.31
736.415	10.31
736.439	7.31
736.463	12.31
736.488	3.31
736.512	0.31
736.536	-5.69
736.561	18.31
736.585	5.31
736.609	26.31
736.634	-4.69
736.658	-5.69
736.682	-11.69
736.707	-5.69
736.731	-4.69
736.755	23.31
736.78	13.31
736.804	35.31
736.828	5.31
736.852	-4.69
736.877	-0.69
736.901	1.31
736.925	-4.69
736.949	0.31
736.974	8.31
736.998	-10.69
737.022	1.31
737.047	-5.69
737.071	-4.69
737.095	11.31
737.119	28.31
737.144	14.31
737.168	-3.69
737.192	-8.69
737.216	-2.69
737.241	6.31
737.265	13.31
737.289	-1.69
737.313	-9.69
737.337	9.31
737.362	24.31
737.386	-10.69
737.41	-13.69
737.434	-8.69
737.459	2.31
737.483	9.31
737.507	20.31
737.531	19.31
737.555	4.31
737.58	20.31
737.604	10.31
737.628	-10.69
737.652	3.31
737.676	6.31
737.701	7.31
737.725	7.31
737.749	7.31
737.773	5.31
737.797	-3.69
737.821	-2.69
737.846	11.31
737.87	23.31
737.894	-5.69
737.918	-7.69
737.942	12.31
737.966	-0.69
737.99	6.31
738.015	19.31
738.039	10.31
738.063	6.31
738.087	30.31
738.111	2.31
738.135	10.31
738.159	12.31
738.184	-3.69
738.208	1.31
738.232	5.31
738.256	12.31
738.28	-0.69
738.304	4.31
738.328	10.31
738.352	2.31
738.376	-3.69
738.4	-0.69
738.425	14.31
738.449	13.31
738.473	33.31
738.497	-2.69
738.521	8.31
738.545	5.31
738.569	8.31
738.593	21.31
738.617	23.31
738.641	1.31
738.665	2.31
738.689	-0.69
738.713	-6.69
738.737	11.31
738.762	16.31
738.786	4.31
738.81	-7.69
738.834	9.31
738.858	0.31
738.882	17.31
738.906	-2.69
738.93	23.31
738.954	10.31
738.978	7.31
739.002	-7.69
739.026	18.31
739.05	-6.69
739.074	9.31
739.098	18.31
739.122	22.31
739.146	8.31
739.17	12.31
739.194	3.31
739.218	14.31
739.242	15.31
739.266	1.31
739.29	17.31
739.314	19.31
739.338	-2.69
739.362	0.31
739.386	1.31
739.41	8.31
739.434	-2.69
739.458	20.31
739.482	7.31
739.506	3.31
739.53	10.31
739.554	8.31
739.577	-6.69
739.601	20.31
739.625	-12.69
739.649	-6.69
739.673	4.31
739.697	13.31
739.721	15.31
739.745	-1.69
739.769	3.31
739.793	12.31
739.817	27.31
739.841	4.31
739.865	10.31
739.889	-16.69
739.912	2.31
739.936	-5.69
739.96	-11.69
739.984	2.31
740.008	1.31
740.032	-7.69
740.056	1.31
740.08	17.31
740.104	-0.69
740.127	14.31
740.151	16.31
740.175	19.31
740.199	20.31
740.223	55.31
740.247	19.31
740.271	7.31
740.295	-1.69
740.318	-13.69
740.342	-10.69
740.366	14.31
740.39	11.31
740.414	-6.69
740.438	-0.69
740.461	18.31
740.485	13.31
740.509	0.31
740.533	11.31
740.557	1.31
740.581	-1.69
740.604	-12.69
740.628	-0.69
740.652	31.31
740.676	6.31
740.7	26.31
740.723	4.31
740.747	-17.69
740.771	5.31
740.795	3.31
740.819	8.31
740.842	15.31
740.866	14.31
740.89	9.31
740.914	9.31
740.938	-3.69
740.961	9.31
740.985	-1.69
741.009	10.31
741.033	6.31
741.056	14.31
741.08	0.31
741.104	-17.69
741.128	-6.69
741.151	27.31
741.175	13.31
741.199	10.31
741.223	6.31
741.246	-6.69
741.27	14.31
741.294	-0.69
741.318	-2.69
741.341	7.31
741.365	19.31
741.389	-6.69
741.413	18.31
741.436	16.31
741.46	18.31
741.484	23.31
741.507	12.31
741.531	37.31
741.555	11.31
741.579	4.31
741.602	0.31
741.626	3.31
741.65	5.31
741.673	9.31
741.697	10.31
741.721	-4.69
741.744	-20.69
741.768	8.31
741.792	14.31
741.815	-8.69
741.839	15.31
741.863	22.31
741.886	32.31
741.91	18.31
741.934	13.31
741.957	-17.69
741.981	2.31
742.005	-4.69
742.028	3.31
742.052	-0.69
742.075	9.31
742.099	19.31
742.123	-0.69
742.146	1.31
742.17	11.31
742.194	-12.69
742.217	-9.69
742.241	12.31
742.264	5.31
742.288	40.31
742.312	9.31
742.335	2.31
742.359	9.31
742.382	18.31
742.406	17.31
742.43	-5.69
742.453	2.31
742.477	-5.69
742.5	8.31
742.524	12.31
742.548	0.31
742.571	-3.69
742.595	-9.69
742.618	-0.69
742.642	6.31
742.665	18.31
742.689	-4.69
742.712	12.31
742.736	-8.69
742.76	-6.69
742.783	-0.69
742.807	13.31
742.83	16.31
742.854	-0.69
742.877	9.31
742.901	21.31
742.924	-1.69
742.948	3.31
742.971	2.31
742.995	0.31
743.018	2.31
743.042	6.31
743.065	12.31
743.089	-7.69
743.112	3.31
743.136	-1.69
743.159	-7.69
743.183	-1.69
743.206	6.31
743.23	-0.69
743.253	-3.69
743.277	19.31
743.3	-3.69
743.324	-7.69
743.347	7.31
743.371	23.31
743.394	1.31
743.418	9.31
743.441	7.31
743.465	-1.69
743.488	13.31
743.512	-10.69
743.535	10.31
743.558	-4.69
743.582	19.31
743.605	3.31
743.629	12.31
743.652	14.31
743.676	-4.69
743.699	1.31
743.723	15.31
743.746	11.31
743.769	9.31
743.793	7.31
743.816	12.31
743.84	14.31
743.863	-6.69
743.886	12.31
743.91	19.31
743.933	17.31
743.957	12.31
743.98	24.31
744.003	16.31
744.027	0.31
744.05	5.31
744.074	17.31
744.097	-7.69
744.12	7.31
744.144	6.31
744.167	6.31
744.19	8.31
744.214	-7.69
744.237	-15.69
744.26	5.31
744.284	15.31
744.307	-6.69
744.331	3.31
744.354	-2.69
744.377	-1.69
744.401	4.31
744.424	-4.69
744.447	-24.69
744.471	-11.69
