Data from HighRes_mercury_15_13_11_07_2024_HR4C61891__49__15-14-28-086.txt Node

Date: Thu Nov 07 15:14:28 EST 2024
User: crc00042
Spectrometer: HR4C6189
Trigger mode: 4
Integration Time (sec): 1.000000E-1
Scans to average: 1
Electric dark correction enabled: true
Nonlinearity correction enabled: false
Boxcar width: 0
XAxis mode: Wavelengths
Number of Pixels in Spectrum: 3648
>>>>>Begin Spectral Data<<<<<
639.567	-54.08
639.602	-54.08
639.636	-54.08
639.67	-32.08
639.704	-26.08
639.738	0.92
639.773	5.92
639.807	-3.08
639.841	-3.08
639.875	12.92
639.909	-3.08
639.943	-2.08
639.978	-10.08
640.012	10.92
640.046	21.92
640.08	-14.08
640.114	-1.08
640.148	-16.08
640.182	2.92
640.217	12.92
640.251	27.92
640.285	1.92
640.319	-7.08
640.353	-1.08
640.387	2.92
640.421	-3.08
640.455	3.92
640.49	8.92
640.524	3.92
640.558	2.92
640.592	8.92
640.626	2.92
640.66	-4.08
640.694	3.92
640.728	16.92
640.762	16.92
640.796	10.92
640.83	23.92
640.865	-13.08
640.899	4.92
640.933	-6.08
640.967	-18.08
641.001	5.92
641.035	11.92
641.069	13.92
641.103	-13.08
641.137	-0.08
641.171	-7.08
641.205	1.92
641.239	-2.08
641.273	7.92
641.307	0.92
641.341	4.92
641.375	14.92
641.409	-6.08
641.443	-1.08
641.477	12.92
641.511	10.92
641.545	9.92
641.579	6.92
641.614	7.92
641.648	15.92
641.682	1.92
641.716	1.92
641.75	-6.08
641.784	-3.08
641.818	-11.08
641.852	1.92
641.886	-3.08
641.919	19.92
641.953	-13.08
641.987	1.92
642.021	13.92
642.055	5.92
642.089	2.92
642.123	-9.08
642.157	-5.08
642.191	-21.08
642.225	5.92
642.259	-1.08
642.293	7.92
642.327	1.92
642.361	3.92
642.395	15.92
642.429	14.92
642.463	8.92
642.497	16.92
642.531	-16.08
642.565	2.92
642.599	11.92
642.633	-17.08
642.666	3.92
642.7	-6.08
642.734	21.92
642.768	10.92
642.802	1.92
642.836	5.92
642.87	1.92
642.904	-2.08
642.938	12.92
642.972	-1.08
643.005	1.92
643.039	15.92
643.073	3.92
643.107	-0.08
643.141	9.92
643.175	6.92
643.209	9.92
643.243	-11.08
643.276	7.92
643.31	-9.08
643.344	-8.08
643.378	-15.08
643.412	2.92
643.446	-7.08
643.48	-3.08
643.513	-0.08
643.547	2.92
643.581	4.92
643.615	-7.08
643.649	0.92
643.683	7.92
643.716	-0.08
643.75	2.92
643.784	-14.08
643.818	7.92
643.852	-0.08
643.886	-14.08
643.919	2.92
643.953	9.92
643.987	-10.08
644.021	4.92
644.055	8.92
644.088	17.92
644.122	-12.08
644.156	-0.08
644.19	10.92
644.224	2.92
644.257	6.92
644.291	1.92
644.325	12.92
644.359	5.92
644.392	12.92
644.426	5.92
644.46	-1.08
644.494	7.92
644.527	-7.08
644.561	0.92
644.595	9.92
644.629	0.92
644.662	5.92
644.696	11.92
644.73	5.92
644.764	-1.08
644.797	-4.08
644.831	-12.08
644.865	15.92
644.899	10.92
644.932	13.92
644.966	3.92
645	12.92
645.033	31.92
645.067	3.92
645.101	-0.08
645.135	5.92
645.168	1.92
645.202	-4.08
645.236	-6.08
645.269	4.92
645.303	-10.08
645.337	1.92
645.37	14.92
645.404	4.92
645.438	9.92
645.471	6.92
645.505	4.92
645.539	7.92
645.572	-5.08
645.606	-3.08
645.64	12.92
645.673	8.92
645.707	0.92
645.741	-1.08
645.774	-2.08
645.808	-6.08
645.842	-9.08
645.875	7.92
645.909	-16.08
645.943	-7.08
645.976	-0.08
646.01	4.92
646.043	8.92
646.077	9.92
646.111	3.92
646.144	12.92
646.178	12.92
646.212	-6.08
646.245	-9.08
646.279	2.92
646.312	7.92
646.346	12.92
646.38	5.92
646.413	5.92
646.447	6.92
646.48	12.92
646.514	13.92
646.547	-1.08
646.581	-9.08
646.615	12.92
646.648	4.92
646.682	15.92
646.715	7.92
646.749	1.92
646.782	0.92
646.816	1.92
646.85	-0.08
646.883	2.92
646.917	5.92
646.95	1.92
646.984	-6.08
647.017	1.92
647.051	-10.08
647.084	-1.08
647.118	6.92
647.151	5.92
647.185	1.92
647.218	-6.08
647.252	11.92
647.285	-10.08
647.319	-7.08
647.353	-0.08
647.386	16.92
647.42	-3.08
647.453	10.92
647.487	15.92
647.52	14.92
647.553	9.92
647.587	2.92
647.62	4.92
647.654	2.92
647.687	15.92
647.721	2.92
647.754	3.92
647.788	6.92
647.821	1.92
647.855	1.92
647.888	4.92
647.922	20.92
647.955	2.92
647.989	-6.08
648.022	1.92
648.055	17.92
648.089	18.92
648.122	31.92
648.156	10.92
648.189	3.92
648.223	-9.08
648.256	24.92
648.29	-3.08
648.323	10.92
648.356	12.92
648.39	4.92
648.423	2.92
648.457	2.92
648.49	2.92
648.523	6.92
648.557	6.92
648.59	-0.08
648.624	3.92
648.657	-8.08
648.69	7.92
648.724	4.92
648.757	12.92
648.791	-6.08
648.824	-2.08
648.857	16.92
648.891	-0.08
648.924	-7.08
648.957	20.92
648.991	-10.08
649.024	6.92
649.057	-13.08
649.091	-1.08
649.124	6.92
649.158	11.92
649.191	5.92
649.224	-3.08
649.258	6.92
649.291	12.92
649.324	-1.08
649.358	-2.08
649.391	0.92
649.424	23.92
649.458	2.92
649.491	11.92
649.524	-21.08
649.557	-13.08
649.591	-10.08
649.624	24.92
649.657	4.92
649.691	11.92
649.724	-5.08
649.757	4.92
649.791	-0.08
649.824	20.92
649.857	14.92
649.89	-2.08
649.924	-9.08
649.957	11.92
649.99	-3.08
650.023	-12.08
650.057	-3.08
650.09	16.92
650.123	3.92
650.157	17.92
650.19	25.92
650.223	-1.08
650.256	-0.08
650.29	-6.08
650.323	4.92
650.356	-3.08
650.389	-4.08
650.423	-10.08
650.456	2.92
650.489	-5.08
650.522	2.92
650.555	18.92
650.589	17.92
650.622	2.92
650.655	-0.08
650.688	-3.08
650.721	-1.08
650.755	3.92
650.788	12.92
650.821	9.92
650.854	2.92
650.887	4.92
650.921	-1.08
650.954	-7.08
650.987	-1.08
651.02	-20.08
651.053	-10.08
651.087	-3.08
651.12	26.92
651.153	1.92
651.186	-8.08
651.219	-17.08
651.252	10.92
651.286	21.92
651.319	-6.08
651.352	-1.08
651.385	-6.08
651.418	9.92
651.451	17.92
651.484	11.92
651.518	6.92
651.551	18.92
651.584	-4.08
651.617	16.92
651.65	7.92
651.683	2.92
651.716	17.92
651.749	-4.08
651.783	2.92
651.816	4.92
651.849	12.92
651.882	1.92
651.915	1.92
651.948	13.92
651.981	6.92
652.014	-4.08
652.047	-1.08
652.08	3.92
652.114	4.92
652.147	-20.08
652.18	12.92
652.213	27.92
652.246	-4.08
652.279	-15.08
652.312	8.92
652.345	11.92
652.378	15.92
652.411	17.92
652.444	20.92
652.477	5.92
652.51	1.92
652.543	-9.08
652.576	0.92
652.609	-5.08
652.642	-16.08
652.675	10.92
652.709	5.92
652.742	4.92
652.775	4.92
652.808	13.92
652.841	6.92
652.874	-4.08
652.907	-7.08
652.94	-14.08
652.973	-10.08
653.006	-20.08
653.039	-2.08
653.072	-13.08
653.105	-14.08
653.138	-8.08
653.171	-1.08
653.204	-7.08
653.237	11.92
653.27	1.92
653.303	13.92
653.336	9.92
653.368	-15.08
653.401	-12.08
653.434	-0.08
653.467	10.92
653.5	-8.08
653.533	1.92
653.566	-6.08
653.599	6.92
653.632	-5.08
653.665	0.92
653.698	-10.08
653.731	-1.08
653.764	7.92
653.797	11.92
653.83	12.92
653.863	-7.08
653.896	-8.08
653.929	4.92
653.961	11.92
653.994	-2.08
654.027	-16.08
654.06	10.92
654.093	8.92
654.126	7.92
654.159	-2.08
654.192	-0.08
654.225	-0.08
654.258	8.92
654.29	-5.08
654.323	17.92
654.356	4.92
654.389	12.92
654.422	-1.08
654.455	2.92
654.488	-0.08
654.521	-17.08
654.553	-19.08
654.586	8.92
654.619	-9.08
654.652	-2.08
654.685	3.92
654.718	18.92
654.751	7.92
654.783	-2.08
654.816	11.92
654.849	-16.08
654.882	-7.08
654.915	-22.08
654.948	0.92
654.98	-5.08
655.013	-16.08
655.046	-8.08
655.079	6.92
655.112	8.92
655.144	-0.08
655.177	12.92
655.21	3.92
655.243	12.92
655.276	2.92
655.308	-1.08
655.341	-10.08
655.374	-0.08
655.407	-4.08
655.44	-13.08
655.472	5.92
655.505	13.92
655.538	-9.08
655.571	-12.08
655.603	-4.08
655.636	-3.08
655.669	6.92
655.702	-5.08
655.734	-20.08
655.767	-10.08
655.8	-4.08
655.833	4.92
655.865	6.92
655.898	-2.08
655.931	0.92
655.964	4.92
655.996	4.92
656.029	1.92
656.062	-8.08
656.095	-7.08
656.127	-11.08
656.16	-7.08
656.193	3.92
656.225	1.92
656.258	-9.08
656.291	7.92
656.324	12.92
656.356	19.92
656.389	-10.08
656.422	8.92
656.454	-0.08
656.487	1.92
656.52	-0.08
656.552	-17.08
656.585	2.92
656.618	26.92
656.65	6.92
656.683	4.92
656.716	5.92
656.748	-4.08
656.781	-2.08
656.814	-10.08
656.846	9.92
656.879	-20.08
656.912	13.92
656.944	-19.08
656.977	-14.08
657.01	7.92
657.042	9.92
657.075	23.92
657.108	-7.08
657.14	9.92
657.173	18.92
657.205	11.92
657.238	-1.08
657.271	-3.08
657.303	-17.08
657.336	-13.08
657.369	-4.08
657.401	-6.08
657.434	5.92
657.466	15.92
657.499	1.92
657.532	-4.08
657.564	15.92
657.597	0.92
657.629	-2.08
657.662	-11.08
657.694	4.92
657.727	-5.08
657.76	1.92
657.792	-14.08
657.825	2.92
657.857	-18.08
657.89	-5.08
657.922	6.92
657.955	-7.08
657.987	-6.08
658.02	-5.08
658.053	11.92
658.085	-0.08
658.118	6.92
658.15	21.92
658.183	26.92
658.215	-7.08
658.248	-8.08
658.28	-1.08
658.313	15.92
658.345	19.92
658.378	-1.08
658.41	3.92
658.443	15.92
658.475	9.92
658.508	-0.08
658.54	-1.08
658.573	-18.08
658.605	-5.08
658.638	-1.08
658.67	-0.08
658.703	-6.08
658.735	-7.08
658.768	-3.08
658.8	0.92
658.833	38.92
658.865	3.92
658.898	-5.08
658.93	-13.08
658.963	1.92
658.995	-28.08
659.028	10.92
659.06	0.92
659.092	-11.08
659.125	2.92
659.157	0.92
659.19	-6.08
659.222	7.92
659.255	6.92
659.287	12.92
659.32	10.92
659.352	12.92
659.384	-7.08
659.417	-8.08
659.449	5.92
659.482	15.92
659.514	-1.08
659.546	2.92
659.579	-15.08
659.611	-11.08
659.644	-11.08
659.676	-23.08
659.708	-11.08
659.741	-22.08
659.773	19.92
659.806	-7.08
659.838	2.92
659.87	-6.08
659.903	-8.08
659.935	-1.08
659.967	15.92
660	7.92
660.032	-8.08
660.065	6.92
660.097	-3.08
660.129	0.92
660.162	-14.08
660.194	18.92
660.226	5.92
660.259	3.92
660.291	-1.08
660.323	3.92
660.356	-5.08
660.388	2.92
660.42	4.92
660.453	4.92
660.485	17.92
660.517	14.92
660.55	19.92
660.582	0.92
660.614	15.92
660.647	-2.08
660.679	-22.08
660.711	7.92
660.743	-21.08
660.776	-7.08
660.808	2.92
660.84	9.92
660.873	-3.08
660.905	-7.08
660.937	10.92
660.969	4.92
661.002	-4.08
661.034	9.92
661.066	-5.08
661.099	19.92
661.131	10.92
661.163	1.92
661.195	-7.08
661.228	9.92
661.26	-6.08
661.292	3.92
661.324	4.92
661.357	6.92
661.389	10.92
661.421	20.92
661.453	-6.08
661.485	13.92
661.518	2.92
661.55	-12.08
661.582	-13.08
661.614	-6.08
661.647	24.92
661.679	4.92
661.711	-2.08
661.743	-16.08
661.775	19.92
661.808	29.92
661.84	-11.08
661.872	6.92
661.904	10.92
661.936	14.92
661.969	-10.08
662.001	7.92
662.033	14.92
662.065	-6.08
662.097	10.92
662.129	13.92
662.162	-0.08
662.194	11.92
662.226	13.92
662.258	24.92
662.29	4.92
662.322	-11.08
662.355	-21.08
662.387	10.92
662.419	7.92
662.451	16.92
662.483	13.92
662.515	-5.08
662.547	1.92
662.58	-14.08
662.612	-7.08
662.644	0.92
662.676	0.92
662.708	17.92
662.74	6.92
662.772	-5.08
662.804	7.92
662.836	8.92
662.869	-13.08
662.901	-4.08
662.933	8.92
662.965	11.92
662.997	11.92
663.029	-7.08
663.061	-15.08
663.093	-8.08
663.125	10.92
663.157	8.92
663.189	8.92
663.221	5.92
663.254	23.92
663.286	11.92
663.318	5.92
663.35	1.92
663.382	4.92
663.414	-4.08
663.446	6.92
663.478	2.92
663.51	39.92
663.542	0.92
663.574	7.92
663.606	5.92
663.638	-2.08
663.67	-1.08
663.702	-4.08
663.734	3.92
663.766	-0.08
663.798	-12.08
663.83	0.92
663.862	5.92
663.894	1.92
663.926	-16.08
663.958	13.92
663.99	8.92
664.022	3.92
664.054	5.92
664.086	-0.08
664.118	-7.08
664.15	-13.08
664.182	-0.08
664.214	-7.08
664.246	-4.08
664.278	3.92
664.31	18.92
664.342	2.92
664.374	-9.08
664.406	11.92
664.438	12.92
664.47	10.92
664.502	1.92
664.534	-1.08
664.566	-6.08
664.598	-0.08
664.63	6.92
664.662	4.92
664.693	-6.08
664.725	-10.08
664.757	-1.08
664.789	-0.08
664.821	-1.08
664.853	11.92
664.885	-2.08
664.917	-8.08
664.949	1.92
664.981	26.92
665.013	4.92
665.045	2.92
665.076	9.92
665.108	18.92
665.14	8.92
665.172	1.92
665.204	-14.08
665.236	-7.08
665.268	8.92
665.3	8.92
665.331	3.92
665.363	8.92
665.395	-6.08
665.427	-17.08
665.459	21.92
665.491	12.92
665.523	4.92
665.555	-6.08
665.586	-9.08
665.618	-5.08
665.65	-22.08
665.682	-1.08
665.714	6.92
665.746	2.92
665.777	9.92
665.809	0.92
665.841	9.92
665.873	-4.08
665.905	-2.08
665.937	6.92
665.968	3.92
666	-9.08
666.032	8.92
666.064	1.92
666.096	-13.08
666.127	11.92
666.159	5.92
666.191	14.92
666.223	11.92
666.255	-1.08
666.286	6.92
666.318	-4.08
666.35	9.92
666.382	16.92
666.413	6.92
666.445	-8.08
666.477	-15.08
666.509	1.92
666.54	-2.08
666.572	-11.08
666.604	2.92
666.636	-4.08
666.667	26.92
666.699	18.92
666.731	8.92
666.763	-5.08
666.794	3.92
666.826	4.92
666.858	-1.08
666.89	10.92
666.921	-2.08
666.953	-11.08
666.985	22.92
667.017	33.92
667.048	5.92
667.08	-6.08
667.112	-12.08
667.143	-12.08
667.175	6.92
667.207	-9.08
667.238	5.92
667.27	2.92
667.302	12.92
667.334	12.92
667.365	26.92
667.397	12.92
667.429	1.92
667.46	6.92
667.492	9.92
667.524	-9.08
667.555	1.92
667.587	-2.08
667.619	-6.08
667.65	-21.08
667.682	2.92
667.714	-4.08
667.745	-3.08
667.777	-5.08
667.808	3.92
667.84	12.92
667.872	-4.08
667.903	23.92
667.935	4.92
667.967	6.92
667.998	-8.08
668.03	2.92
668.061	8.92
668.093	0.92
668.125	11.92
668.156	2.92
668.188	4.92
668.22	-15.08
668.251	6.92
668.283	3.92
668.314	4.92
668.346	-1.08
668.377	19.92
668.409	5.92
668.441	22.92
668.472	34.92
668.504	5.92
668.535	1.92
668.567	14.92
668.599	5.92
668.63	-6.08
668.662	-2.08
668.693	15.92
668.725	1.92
668.756	5.92
668.788	-3.08
668.819	-0.08
668.851	6.92
668.882	-11.08
668.914	-2.08
668.946	0.92
668.977	-9.08
669.009	4.92
669.04	-0.08
669.072	-4.08
669.103	-12.08
669.135	0.92
669.166	-0.08
669.198	-1.08
669.229	-3.08
669.261	-5.08
669.292	-3.08
669.324	7.92
669.355	12.92
669.387	-14.08
669.418	9.92
669.45	-5.08
669.481	4.92
669.513	5.92
669.544	10.92
669.576	-0.08
669.607	6.92
669.639	8.92
669.67	-6.08
669.701	7.92
669.733	-1.08
669.764	-5.08
669.796	-3.08
669.827	-29.08
669.859	-9.08
669.89	29.92
669.922	12.92
669.953	6.92
669.985	11.92
670.016	19.92
670.047	-0.08
670.079	-5.08
670.11	0.92
670.142	9.92
670.173	-0.08
670.204	0.92
670.236	-14.08
670.267	-15.08
670.299	11.92
670.33	4.92
670.362	8.92
670.393	7.92
670.424	5.92
670.456	-12.08
670.487	3.92
670.518	12.92
670.55	-2.08
670.581	-1.08
670.613	6.92
670.644	-0.08
670.675	-8.08
670.707	5.92
670.738	3.92
670.769	3.92
670.801	-7.08
670.832	16.92
670.864	-3.08
670.895	-1.08
670.926	-15.08
670.958	3.92
670.989	-12.08
671.02	-0.08
671.052	-6.08
671.083	-4.08
671.114	10.92
671.146	3.92
671.177	-1.08
671.208	9.92
671.24	-5.08
671.271	-16.08
671.302	14.92
671.333	0.92
671.365	-18.08
671.396	-4.08
671.427	-0.08
671.459	3.92
671.49	5.92
671.521	-0.08
671.553	-1.08
671.584	23.92
671.615	-22.08
671.646	4.92
671.678	8.92
671.709	-4.08
671.74	-21.08
671.771	-2.08
671.803	-9.08
671.834	-8.08
671.865	-2.08
671.896	-1.08
671.928	-6.08
671.959	-0.08
671.99	-9.08
672.021	0.92
672.053	-14.08
672.084	-1.08
672.115	-1.08
672.146	-4.08
672.178	-20.08
672.209	-2.08
672.24	-5.08
672.271	25.92
672.303	-0.08
672.334	-2.08
672.365	-3.08
672.396	14.92
672.427	6.92
672.459	9.92
672.49	6.92
672.521	-2.08
672.552	5.92
672.583	1.92
672.615	2.92
672.646	-0.08
672.677	10.92
672.708	10.92
672.739	-0.08
672.77	11.92
672.802	4.92
672.833	-2.08
672.864	0.92
672.895	-14.08
672.926	3.92
672.957	-8.08
672.989	-8.08
673.02	-12.08
673.051	1.92
673.082	13.92
673.113	7.92
673.144	9.92
673.175	2.92
673.206	-1.08
673.238	-3.08
673.269	8.92
673.3	-9.08
673.331	-10.08
673.362	-8.08
673.393	0.92
673.424	12.92
673.455	23.92
673.487	0.92
673.518	24.92
673.549	-6.08
673.58	-0.08
673.611	5.92
673.642	-1.08
673.673	-7.08
673.704	-2.08
673.735	7.92
673.766	9.92
673.797	0.92
673.828	-7.08
673.86	-0.08
673.891	-26.08
673.922	-7.08
673.953	-5.08
673.984	1.92
674.015	8.92
674.046	8.92
674.077	3.92
674.108	-11.08
674.139	-7.08
674.17	-19.08
674.201	-5.08
674.232	1.92
674.263	-14.08
674.294	-13.08
674.325	-21.08
674.356	3.92
674.387	12.92
674.418	3.92
674.449	-7.08
674.48	-14.08
674.511	-10.08
674.542	5.92
674.573	-15.08
674.604	10.92
674.635	2.92
674.666	11.92
674.697	-0.08
674.728	4.92
674.759	-3.08
674.79	-1.08
674.821	0.92
674.852	1.92
674.883	6.92
674.914	-0.08
674.945	0.92
674.976	9.92
675.007	-9.08
675.038	-1.08
675.069	-14.08
675.1	-0.08
675.131	-11.08
675.162	-18.08
675.193	-7.08
675.224	0.92
675.254	16.92
675.285	7.92
675.316	13.92
675.347	3.92
675.378	-16.08
675.409	1.92
675.44	5.92
675.471	14.92
675.502	-11.08
675.533	-3.08
675.564	3.92
675.595	-4.08
675.625	16.92
675.656	19.92
675.687	10.92
675.718	-13.08
675.749	9.92
675.78	-1.08
675.811	-9.08
675.842	-6.08
675.873	-5.08
675.903	-11.08
675.934	-14.08
675.965	0.92
675.996	-8.08
676.027	4.92
676.058	-6.08
676.089	-22.08
676.119	-2.08
676.15	-5.08
676.181	4.92
676.212	-8.08
676.243	6.92
676.274	-17.08
676.304	11.92
676.335	-4.08
676.366	0.92
676.397	4.92
676.428	-14.08
676.459	6.92
676.489	19.92
676.52	3.92
676.551	6.92
676.582	1.92
676.613	-1.08
676.643	-4.08
676.674	5.92
676.705	-5.08
676.736	3.92
676.767	12.92
676.797	3.92
676.828	-0.08
676.859	-20.08
676.89	-21.08
676.92	2.92
676.951	1.92
676.982	4.92
677.013	-4.08
677.044	24.92
677.074	22.92
677.105	2.92
677.136	10.92
677.167	-13.08
677.197	9.92
677.228	-7.08
677.259	-10.08
677.289	8.92
677.32	-12.08
677.351	-20.08
677.382	3.92
677.412	-3.08
677.443	0.92
677.474	14.92
677.505	3.92
677.535	0.92
677.566	-5.08
677.597	-9.08
677.627	-5.08
677.658	0.92
677.689	3.92
677.72	-9.08
677.75	-6.08
677.781	8.92
677.812	-3.08
677.842	2.92
677.873	14.92
677.904	-3.08
677.934	-10.08
677.965	-10.08
677.996	-2.08
678.026	-2.08
678.057	-0.08
678.088	-16.08
678.118	-2.08
678.149	-2.08
678.18	-9.08
678.21	-2.08
678.241	18.92
678.272	-4.08
678.302	-5.08
678.333	2.92
678.363	-0.08
678.394	-3.08
678.425	-1.08
678.455	1.92
678.486	24.92
678.517	-17.08
678.547	-7.08
678.578	-5.08
678.608	5.92
678.639	-13.08
678.67	1.92
678.7	-7.08
678.731	1.92
678.761	6.92
678.792	2.92
678.823	11.92
678.853	3.92
678.884	-22.08
678.914	20.92
678.945	-0.08
678.975	6.92
679.006	6.92
679.037	-0.08
679.067	21.92
679.098	10.92
679.128	-13.08
679.159	-1.08
679.189	1.92
679.22	-10.08
679.25	10.92
679.281	2.92
679.312	4.92
679.342	1.92
679.373	24.92
679.403	-12.08
679.434	0.92
679.464	1.92
679.495	-12.08
679.525	0.92
679.556	-3.08
679.586	15.92
679.617	15.92
679.647	8.92
679.678	2.92
679.708	-2.08
679.739	1.92
679.769	7.92
679.8	3.92
679.83	8.92
679.861	21.92
679.891	3.92
679.922	6.92
679.952	-2.08
679.983	12.92
680.013	11.92
680.044	-2.08
680.074	5.92
680.105	8.92
680.135	-2.08
680.165	12.92
680.196	10.92
680.226	15.92
680.257	18.92
680.287	17.92
680.318	0.92
680.348	-8.08
680.379	9.92
680.409	2.92
680.439	-8.08
680.47	1.92
680.5	-4.08
680.531	-5.08
680.561	-6.08
680.592	2.92
680.622	23.92
680.652	0.92
680.683	18.92
680.713	-5.08
680.744	-16.08
680.774	-1.08
680.804	16.92
680.835	12.92
680.865	9.92
680.896	17.92
680.926	-0.08
680.956	7.92
680.987	-9.08
681.017	-1.08
681.047	12.92
681.078	-7.08
681.108	2.92
681.139	7.92
681.169	-4.08
681.199	-7.08
681.23	-13.08
681.26	-6.08
681.29	12.92
681.321	2.92
681.351	-0.08
681.381	-14.08
681.412	-1.08
681.442	5.92
681.472	24.92
681.503	15.92
681.533	4.92
681.563	-2.08
681.594	-12.08
681.624	15.92
681.654	4.92
681.685	-10.08
681.715	-1.08
681.745	-8.08
681.775	-4.08
681.806	1.92
681.836	6.92
681.866	-6.08
681.897	4.92
681.927	13.92
681.957	-9.08
681.987	6.92
682.018	2.92
682.048	-3.08
682.078	0.92
682.109	9.92
682.139	7.92
682.169	-7.08
682.199	-15.08
682.23	2.92
682.26	-2.08
682.29	-8.08
682.32	3.92
682.351	-3.08
682.381	8.92
682.411	9.92
682.441	-5.08
682.472	-11.08
682.502	-9.08
682.532	0.92
682.562	0.92
682.592	17.92
682.623	26.92
682.653	15.92
682.683	0.92
682.713	16.92
682.743	-1.08
682.774	-10.08
682.804	-7.08
682.834	22.92
682.864	4.92
682.894	-5.08
682.925	11.92
682.955	1.92
682.985	2.92
683.015	9.92
683.045	-4.08
683.076	5.92
683.106	7.92
683.136	-9.08
683.166	-14.08
683.196	12.92
683.226	9.92
683.257	-19.08
683.287	-11.08
683.317	-13.08
683.347	-3.08
683.377	-15.08
683.407	11.92
683.437	-9.08
683.468	-4.08
683.498	-6.08
683.528	-0.08
683.558	3.92
683.588	-8.08
683.618	-8.08
683.648	-8.08
683.678	10.92
683.708	-0.08
683.739	6.92
683.769	0.92
683.799	3.92
683.829	-3.08
683.859	-1.08
683.889	12.92
683.919	10.92
683.949	1.92
683.979	2.92
684.009	-8.08
684.039	-13.08
684.07	-5.08
684.1	16.92
684.13	10.92
684.16	-2.08
684.19	-8.08
684.22	-10.08
684.25	-7.08
684.28	-11.08
684.31	26.92
684.34	14.92
684.37	26.92
684.4	-1.08
684.43	7.92
684.46	-0.08
684.49	-5.08
684.52	-0.08
684.55	10.92
684.58	-8.08
684.61	4.92
684.64	7.92
684.67	1.92
684.7	-5.08
684.73	3.92
684.76	6.92
684.79	-1.08
684.82	6.92
684.85	-1.08
684.88	-1.08
684.91	4.92
684.94	-4.08
684.97	-19.08
685	-0.08
685.03	-15.08
685.06	-0.08
685.09	-11.08
685.12	25.92
685.15	-2.08
685.18	10.92
685.21	-2.08
685.24	14.92
685.27	10.92
685.3	18.92
685.33	11.92
685.36	-0.08
685.39	13.92
685.42	-6.08
685.45	1.92
685.48	2.92
685.51	-1.08
685.54	19.92
685.569	16.92
685.599	12.92
685.629	1.92
685.659	-1.08
685.689	-1.08
685.719	-1.08
685.749	2.92
685.779	8.92
685.809	15.92
685.839	13.92
685.869	9.92
685.898	18.92
685.928	10.92
685.958	4.92
685.988	15.92
686.018	1.92
686.048	1.92
686.078	9.92
686.108	10.92
686.137	12.92
686.167	6.92
686.197	-14.08
686.227	-2.08
686.257	22.92
686.287	22.92
686.317	5.92
686.346	-3.08
686.376	-2.08
686.406	-4.08
686.436	11.92
686.466	-17.08
686.496	-9.08
686.525	9.92
686.555	-9.08
686.585	11.92
686.615	25.92
686.645	13.92
686.675	2.92
686.704	11.92
686.734	7.92
686.764	-6.08
686.794	-3.08
686.824	2.92
686.853	10.92
686.883	6.92
686.913	24.92
686.943	-6.08
686.973	6.92
687.002	-4.08
687.032	21.92
687.062	-1.08
687.092	21.92
687.121	1.92
687.151	-1.08
687.181	5.92
687.211	17.92
687.24	3.92
687.27	2.92
687.3	2.92
687.33	11.92
687.359	-10.08
687.389	9.92
687.419	7.92
687.449	25.92
687.478	2.92
687.508	-7.08
687.538	-6.08
687.568	1.92
687.597	-1.08
687.627	8.92
687.657	13.92
687.686	1.92
687.716	5.92
687.746	-17.08
687.776	-9.08
687.805	9.92
687.835	1.92
687.865	15.92
687.894	-2.08
687.924	-0.08
687.954	-8.08
687.983	1.92
688.013	8.92
688.043	15.92
688.072	6.92
688.102	3.92
688.132	-8.08
688.161	-4.08
688.191	2.92
688.221	13.92
688.25	-17.08
688.28	0.92
688.31	1.92
688.339	4.92
688.369	-12.08
688.399	-1.08
688.428	-6.08
688.458	7.92
688.488	10.92
688.517	11.92
688.547	6.92
688.576	22.92
688.606	-1.08
688.636	-10.08
688.665	4.92
688.695	-0.08
688.725	27.92
688.754	12.92
688.784	-6.08
688.813	22.92
688.843	7.92
688.873	6.92
688.902	0.92
688.932	12.92
688.961	3.92
688.991	22.92
689.02	-3.08
689.05	-5.08
689.08	5.92
689.109	8.92
689.139	4.92
689.168	8.92
689.198	9.92
689.227	0.92
689.257	9.92
689.287	19.92
689.316	6.92
689.346	3.92
689.375	4.92
689.405	15.92
689.434	-0.08
689.464	9.92
689.493	-8.08
689.523	-11.08
689.552	0.92
689.582	14.92
689.611	5.92
689.641	1.92
689.67	-1.08
689.7	-3.08
689.73	-6.08
689.759	-2.08
689.789	27.92
689.818	9.92
689.848	0.92
689.877	11.92
689.906	-1.08
689.936	-7.08
689.965	-4.08
689.995	14.92
690.024	3.92
690.054	-2.08
690.083	-7.08
690.113	-9.08
690.142	-0.08
690.172	0.92
690.201	9.92
690.231	8.92
690.26	8.92
690.29	10.92
690.319	11.92
690.348	22.92
690.378	4.92
690.407	7.92
690.437	4.92
690.466	2.92
690.496	-5.08
690.525	-2.08
690.555	-4.08
690.584	-4.08
690.613	17.92
690.643	14.92
690.672	6.92
690.702	7.92
690.731	16.92
690.76	18.92
690.79	34.92
690.819	54.92
690.849	39.92
690.878	23.92
690.907	31.92
690.937	25.92
690.966	19.92
690.996	17.92
691.025	9.92
691.054	3.92
691.084	0.92
691.113	17.92
691.142	2.92
691.172	11.92
691.201	19.92
691.23	-8.08
691.26	-7.08
691.289	4.92
691.319	6.92
691.348	7.92
691.377	6.92
691.407	8.92
691.436	24.92
691.465	4.92
691.495	4.92
691.524	1.92
691.553	-11.08
691.583	4.92
691.612	23.92
691.641	8.92
691.67	1.92
691.7	13.92
691.729	0.92
691.758	4.92
691.788	-15.08
691.817	-5.08
691.846	-0.08
691.876	-2.08
691.905	-0.08
691.934	-2.08
691.963	35.92
691.993	-1.08
692.022	-6.08
692.051	-7.08
692.081	21.92
692.11	27.92
692.139	-0.08
692.168	6.92
692.198	22.92
692.227	23.92
692.256	1.92
692.285	0.92
692.315	-1.08
692.344	5.92
692.373	1.92
692.402	-6.08
692.432	-4.08
692.461	-1.08
692.49	-1.08
692.519	-4.08
692.548	8.92
692.578	18.92
692.607	6.92
692.636	-5.08
692.665	20.92
692.694	-8.08
692.724	-0.08
692.753	6.92
692.782	17.92
692.811	6.92
692.84	13.92
692.87	-4.08
692.899	-1.08
692.928	2.92
692.957	-2.08
692.986	6.92
693.016	13.92
693.045	2.92
693.074	2.92
693.103	18.92
693.132	13.92
693.161	1.92
693.191	-13.08
693.22	-7.08
693.249	5.92
693.278	1.92
693.307	8.92
693.336	-3.08
693.365	0.92
693.395	4.92
693.424	-5.08
693.453	13.92
693.482	-2.08
693.511	-1.08
693.54	8.92
693.569	1.92
693.598	-11.08
693.628	3.92
693.657	11.92
693.686	24.92
693.715	12.92
693.744	1.92
693.773	22.92
693.802	22.92
693.831	7.92
693.86	20.92
693.889	-6.08
693.919	3.92
693.948	9.92
693.977	5.92
694.006	1.92
694.035	4.92
694.064	10.92
694.093	3.92
694.122	-7.08
694.151	0.92
694.18	11.92
694.209	4.92
694.238	1.92
694.267	35.92
694.296	26.92
694.325	21.92
694.354	11.92
694.383	5.92
694.412	2.92
694.441	-1.08
694.471	8.92
694.5	-0.08
694.529	14.92
694.558	29.92
694.587	4.92
694.616	-4.08
694.645	3.92
694.674	13.92
694.703	13.92
694.732	10.92
694.761	36.92
694.79	27.92
694.819	2.92
694.848	-6.08
694.877	16.92
694.906	18.92
694.935	7.92
694.963	25.92
694.992	17.92
695.021	9.92
695.05	9.92
695.079	8.92
695.108	23.92
695.137	17.92
695.166	1.92
695.195	-8.08
695.224	-5.08
695.253	-0.08
695.282	-6.08
695.311	11.92
695.34	1.92
695.369	-5.08
695.398	0.92
695.427	14.92
695.456	20.92
695.485	6.92
695.513	6.92
695.542	9.92
695.571	-3.08
695.6	25.92
695.629	15.92
695.658	22.92
695.687	13.92
695.716	4.92
695.745	34.92
695.774	9.92
695.802	6.92
695.831	12.92
695.86	9.92
695.889	7.92
695.918	7.92
695.947	-3.08
695.976	10.92
696.005	2.92
696.033	13.92
696.062	6.92
696.091	-0.08
696.12	2.92
696.149	18.92
696.178	12.92
696.207	21.92
696.235	-9.08
696.264	19.92
696.293	17.92
696.322	15.92
696.351	17.92
696.38	18.92
696.408	16.92
696.437	-8.08
696.466	7.92
696.495	-6.08
696.524	23.92
696.553	3.92
696.581	20.92
696.61	4.92
696.639	7.92
696.668	11.92
696.697	-8.08
696.725	-2.08
696.754	1.92
696.783	13.92
696.812	4.92
696.84	10.92
696.869	16.92
696.898	-0.08
696.927	-2.08
696.956	6.92
696.984	1.92
697.013	1.92
697.042	-6.08
697.071	0.92
697.099	5.92
697.128	-0.08
697.157	4.92
697.186	-9.08
697.214	-0.08
697.243	5.92
697.272	-0.08
697.301	8.92
697.329	2.92
697.358	-1.08
697.387	14.92
697.415	16.92
697.444	6.92
697.473	-4.08
697.502	-9.08
697.53	8.92
697.559	1.92
697.588	0.92
697.616	-4.08
697.645	2.92
697.674	16.92
697.703	-8.08
697.731	2.92
697.76	2.92
697.789	11.92
697.817	10.92
697.846	30.92
697.875	26.92
697.903	25.92
697.932	7.92
697.961	-2.08
697.989	28.92
698.018	24.92
698.047	11.92
698.075	23.92
698.104	-12.08
698.133	1.92
698.161	-1.08
698.19	13.92
698.218	1.92
698.247	10.92
698.276	15.92
698.304	0.92
698.333	8.92
698.362	3.92
698.39	-5.08
698.419	7.92
698.447	1.92
698.476	-0.08
698.505	-3.08
698.533	-5.08
698.562	9.92
698.591	-10.08
698.619	-5.08
698.648	-7.08
698.676	11.92
698.705	0.92
698.733	-22.08
698.762	14.92
698.791	-1.08
698.819	-4.08
698.848	12.92
698.876	10.92
698.905	16.92
698.933	21.92
698.962	0.92
698.991	7.92
699.019	11.92
699.048	12.92
699.076	12.92
699.105	-14.08
699.133	-6.08
699.162	-2.08
699.19	18.92
699.219	14.92
699.248	-8.08
699.276	5.92
699.305	5.92
699.333	18.92
699.362	6.92
699.39	9.92
699.419	0.92
699.447	1.92
699.476	6.92
699.504	-5.08
699.533	2.92
699.561	-3.08
699.59	11.92
699.618	18.92
699.647	17.92
699.675	-6.08
699.704	7.92
699.732	7.92
699.761	1.92
699.789	-0.08
699.818	21.92
699.846	-8.08
699.874	-8.08
699.903	-10.08
699.931	-20.08
699.96	1.92
699.988	-4.08
700.017	-1.08
700.045	6.92
700.074	5.92
700.102	-8.08
700.13	-10.08
700.159	0.92
700.187	11.92
700.216	-15.08
700.244	-10.08
700.273	-7.08
700.301	1.92
700.329	11.92
700.358	14.92
700.386	-1.08
700.415	-6.08
700.443	0.92
700.472	-0.08
700.5	18.92
700.528	8.92
700.557	13.92
700.585	5.92
700.614	-8.08
700.642	6.92
700.67	14.92
700.699	13.92
700.727	-4.08
700.755	2.92
700.784	3.92
700.812	1.92
700.841	8.92
700.869	10.92
700.897	-12.08
700.926	7.92
700.954	21.92
700.982	9.92
701.011	10.92
701.039	11.92
701.067	19.92
701.096	14.92
701.124	-20.08
701.152	-0.08
701.181	-5.08
701.209	-9.08
701.237	5.92
701.266	-3.08
701.294	-6.08
701.322	1.92
701.351	12.92
701.379	0.92
701.407	-1.08
701.435	-1.08
701.464	12.92
701.492	23.92
701.52	-0.08
701.549	2.92
701.577	-5.08
701.605	-5.08
701.634	-8.08
701.662	16.92
701.69	-8.08
701.718	-12.08
701.747	-1.08
701.775	1.92
701.803	0.92
701.831	17.92
701.86	-12.08
701.888	-4.08
701.916	-2.08
701.944	-1.08
701.973	-11.08
702.001	-6.08
702.029	-14.08
702.057	-5.08
702.086	-12.08
702.114	-18.08
702.142	1.92
702.17	-5.08
702.199	9.92
702.227	1.92
702.255	-1.08
702.283	-3.08
702.311	16.92
702.34	14.92
702.368	8.92
702.396	-16.08
702.424	-1.08
702.452	4.92
702.481	4.92
702.509	-5.08
702.537	-0.08
702.565	16.92
702.593	-3.08
702.621	-6.08
702.65	5.92
702.678	3.92
702.706	11.92
702.734	-6.08
702.762	10.92
702.79	0.92
702.819	9.92
702.847	2.92
702.875	8.92
702.903	18.92
702.931	12.92
702.959	9.92
702.988	3.92
703.016	-7.08
703.044	-11.08
703.072	5.92
703.1	-7.08
703.128	1.92
703.156	-8.08
703.184	-2.08
703.212	7.92
703.241	7.92
703.269	18.92
703.297	9.92
703.325	3.92
703.353	-6.08
703.381	-6.08
703.409	12.92
703.437	-1.08
703.465	-7.08
703.493	-11.08
703.522	5.92
703.55	4.92
703.578	6.92
703.606	-3.08
703.634	8.92
703.662	-0.08
703.69	-7.08
703.718	-0.08
703.746	-1.08
703.774	3.92
703.802	4.92
703.83	-7.08
703.858	-11.08
703.886	-13.08
703.914	0.92
703.942	12.92
703.97	-1.08
703.998	6.92
704.027	27.92
704.055	24.92
704.083	1.92
704.111	-1.08
704.139	-23.08
704.167	-6.08
704.195	-2.08
704.223	-4.08
704.251	15.92
704.279	1.92
704.307	9.92
704.335	-12.08
704.363	-0.08
704.391	-18.08
704.419	-4.08
704.447	-11.08
704.475	-4.08
704.503	-5.08
704.531	11.92
704.558	3.92
704.586	-3.08
704.614	-5.08
704.642	1.92
704.67	0.92
704.698	-3.08
704.726	4.92
704.754	6.92
704.782	3.92
704.81	-2.08
704.838	18.92
704.866	0.92
704.894	-6.08
704.922	-4.08
704.95	9.92
704.978	14.92
705.006	-9.08
705.034	24.92
705.061	4.92
705.089	2.92
705.117	-20.08
705.145	-7.08
705.173	0.92
705.201	0.92
705.229	14.92
705.257	2.92
705.285	19.92
705.313	5.92
705.34	9.92
705.368	-2.08
705.396	-5.08
705.424	1.92
705.452	-5.08
705.48	11.92
705.508	1.92
705.536	11.92
705.563	7.92
705.591	0.92
705.619	-1.08
705.647	-10.08
705.675	-5.08
705.703	4.92
705.731	-7.08
705.758	11.92
705.786	6.92
705.814	28.92
705.842	15.92
705.87	16.92
705.898	2.92
705.925	-16.08
705.953	5.92
705.981	-18.08
706.009	1.92
706.037	9.92
706.065	1.92
706.092	-6.08
706.12	6.92
706.148	1.92
706.176	2.92
706.204	1.92
706.231	8.92
706.259	-2.08
706.287	-14.08
706.315	-0.08
706.342	-5.08
706.37	10.92
706.398	-2.08
706.426	-8.08
706.454	-1.08
706.481	14.92
706.509	-4.08
706.537	-3.08
706.565	6.92
706.592	-1.08
706.62	-9.08
706.648	7.92
706.676	-0.08
706.703	-7.08
706.731	-17.08
706.759	-3.08
706.787	22.92
706.814	7.92
706.842	-4.08
706.87	6.92
706.897	-2.08
706.925	-3.08
706.953	14.92
706.981	-7.08
707.008	6.92
707.036	9.92
707.064	-11.08
707.091	-4.08
707.119	15.92
707.147	-1.08
707.174	-17.08
707.202	19.92
707.23	3.92
707.258	-1.08
707.285	2.92
707.313	-0.08
707.341	-10.08
707.368	-11.08
707.396	-6.08
707.424	11.92
707.451	-10.08
707.479	9.92
707.507	11.92
707.534	0.92
707.562	11.92
707.59	-3.08
707.617	-1.08
707.645	1.92
707.672	18.92
707.7	6.92
707.728	29.92
707.755	10.92
707.783	7.92
707.811	3.92
707.838	-18.08
707.866	6.92
707.893	12.92
707.921	6.92
707.949	-2.08
707.976	9.92
708.004	2.92
708.031	-16.08
708.059	-1.08
708.087	-4.08
708.114	-0.08
708.142	-2.08
708.169	-13.08
708.197	-19.08
708.225	-12.08
708.252	8.92
708.28	15.92
708.307	0.92
708.335	9.92
708.362	7.92
708.39	-4.08
708.418	-1.08
708.445	-6.08
708.473	-2.08
708.5	-6.08
708.528	6.92
708.555	3.92
708.583	-4.08
708.61	-4.08
708.638	16.92
708.665	-25.08
708.693	-7.08
708.72	-3.08
708.748	3.92
708.776	6.92
708.803	13.92
708.831	14.92
708.858	9.92
708.886	0.92
708.913	14.92
708.941	-0.08
708.968	13.92
708.996	15.92
709.023	21.92
709.051	-10.08
709.078	-8.08
709.105	-6.08
709.133	-7.08
709.16	-2.08
709.188	-0.08
709.215	1.92
709.243	15.92
709.27	-17.08
709.298	-6.08
709.325	4.92
709.353	11.92
709.38	-4.08
709.408	13.92
709.435	12.92
709.462	-5.08
709.49	10.92
709.517	-6.08
709.545	-2.08
709.572	9.92
709.6	-0.08
709.627	4.92
709.655	-9.08
709.682	-2.08
709.709	-1.08
709.737	-1.08
709.764	-1.08
709.792	10.92
709.819	10.92
709.846	0.92
709.874	-1.08
709.901	19.92
709.929	25.92
709.956	0.92
709.983	-7.08
710.011	5.92
710.038	4.92
710.066	2.92
710.093	7.92
710.12	5.92
710.148	-5.08
710.175	-22.08
710.202	-8.08
710.23	-6.08
710.257	-3.08
710.284	15.92
710.312	0.92
710.339	-6.08
710.366	6.92
710.394	-5.08
710.421	-3.08
710.448	8.92
710.476	-14.08
710.503	10.92
710.53	9.92
710.558	2.92
710.585	12.92
710.612	-8.08
710.64	-1.08
710.667	-6.08
710.694	-14.08
710.722	-4.08
710.749	-13.08
710.776	-6.08
710.804	15.92
710.831	-4.08
710.858	-2.08
710.885	-4.08
710.913	-12.08
710.94	9.92
710.967	-11.08
710.995	17.92
711.022	0.92
711.049	10.92
711.076	-8.08
711.104	2.92
711.131	-8.08
711.158	7.92
711.185	13.92
711.213	-9.08
711.24	-9.08
711.267	-11.08
711.294	-9.08
711.322	13.92
711.349	-10.08
711.376	-9.08
711.403	9.92
711.431	-0.08
711.458	6.92
711.485	-5.08
711.512	11.92
711.54	-4.08
711.567	-10.08
711.594	-2.08
711.621	6.92
711.648	-5.08
711.676	11.92
711.703	-6.08
711.73	-21.08
711.757	2.92
711.784	7.92
711.812	7.92
711.839	0.92
711.866	-12.08
711.893	-5.08
711.92	14.92
711.947	1.92
711.975	9.92
712.002	3.92
712.029	21.92
712.056	0.92
712.083	2.92
712.11	-18.08
712.138	4.92
712.165	-0.08
712.192	1.92
712.219	-9.08
712.246	-9.08
712.273	-2.08
712.3	-4.08
712.328	-5.08
712.355	-21.08
712.382	-17.08
712.409	17.92
712.436	1.92
712.463	2.92
712.49	11.92
712.517	4.92
712.544	-2.08
712.572	10.92
712.599	-12.08
712.626	-4.08
712.653	-4.08
712.68	-9.08
712.707	10.92
712.734	5.92
712.761	17.92
712.788	-1.08
712.815	-8.08
712.842	3.92
712.87	-9.08
712.897	-4.08
712.924	-5.08
712.951	0.92
712.978	-2.08
713.005	-2.08
713.032	10.92
713.059	-12.08
713.086	-0.08
713.113	-10.08
713.14	-13.08
713.167	10.92
713.194	8.92
713.221	-16.08
713.248	8.92
713.275	-9.08
713.302	-13.08
713.329	-12.08
713.356	19.92
713.383	12.92
713.41	1.92
713.437	-11.08
713.464	-1.08
713.491	18.92
713.518	8.92
713.545	9.92
713.572	-1.08
713.599	20.92
713.626	-5.08
713.653	7.92
713.68	-0.08
713.707	5.92
713.734	14.92
713.761	-9.08
713.788	-4.08
713.815	6.92
713.842	0.92
713.869	-7.08
713.896	4.92
713.923	13.92
713.95	8.92
713.977	-8.08
714.004	8.92
714.031	-1.08
714.058	-2.08
714.085	-0.08
714.112	13.92
714.139	-1.08
714.165	3.92
714.192	1.92
714.219	21.92
714.246	9.92
714.273	2.92
714.3	-4.08
714.327	11.92
714.354	16.92
714.381	-5.08
714.408	0.92
714.435	-8.08
714.461	9.92
714.488	11.92
714.515	10.92
714.542	-11.08
714.569	-0.08
714.596	-9.08
714.623	-2.08
714.65	-10.08
714.677	-1.08
714.703	1.92
714.73	20.92
714.757	1.92
714.784	8.92
714.811	0.92
714.838	7.92
714.865	-14.08
714.891	-1.08
714.918	-4.08
714.945	-12.08
714.972	9.92
714.999	16.92
715.026	-6.08
715.052	27.92
715.079	3.92
715.106	14.92
715.133	5.92
715.16	-1.08
715.187	11.92
715.213	27.92
715.24	-9.08
715.267	-0.08
715.294	21.92
715.321	18.92
715.347	7.92
715.374	-0.08
715.401	-3.08
715.428	12.92
715.455	-10.08
715.481	4.92
715.508	0.92
715.535	-6.08
715.562	32.92
715.588	10.92
715.615	7.92
715.642	7.92
715.669	24.92
715.695	-9.08
715.722	4.92
715.749	-2.08
715.776	13.92
715.802	5.92
715.829	14.92
715.856	-8.08
715.883	16.92
715.909	0.92
715.936	0.92
715.963	-3.08
715.99	-17.08
716.016	-10.08
716.043	7.92
716.07	13.92
716.096	-7.08
716.123	-1.08
716.15	13.92
716.177	-0.08
716.203	5.92
716.23	7.92
716.257	19.92
716.283	10.92
716.31	-1.08
716.337	-13.08
716.363	-2.08
716.39	-10.08
716.417	5.92
716.443	9.92
716.47	19.92
716.497	15.92
716.523	19.92
716.55	8.92
716.577	30.92
716.603	2.92
716.63	13.92
716.657	14.92
716.683	-0.08
716.71	2.92
716.737	-2.08
716.763	-0.08
716.79	14.92
716.817	3.92
716.843	-0.08
716.87	15.92
716.897	-0.08
716.923	30.92
716.95	6.92
716.976	-4.08
717.003	-4.08
717.03	9.92
717.056	17.92
717.083	3.92
717.109	4.92
717.136	10.92
717.163	0.92
717.189	5.92
717.216	-1.08
717.242	-2.08
717.269	5.92
717.296	1.92
717.322	22.92
717.349	19.92
717.375	-0.08
717.402	-9.08
717.428	8.92
717.455	11.92
717.481	10.92
717.508	7.92
717.535	1.92
717.561	-5.08
717.588	-4.08
717.614	3.92
717.641	-3.08
717.667	-5.08
717.694	-7.08
717.72	12.92
717.747	16.92
717.773	-10.08
717.8	-7.08
717.826	1.92
717.853	1.92
717.88	10.92
717.906	-2.08
717.933	9.92
717.959	14.92
717.986	-4.08
718.012	-5.08
718.039	5.92
718.065	5.92
718.092	17.92
718.118	-0.08
718.144	-5.08
718.171	17.92
718.197	24.92
718.224	15.92
718.25	4.92
718.277	13.92
718.303	1.92
718.33	-1.08
718.356	-18.08
718.383	-2.08
718.409	-0.08
718.436	-2.08
718.462	2.92
718.489	-5.08
718.515	31.92
718.541	21.92
718.568	2.92
718.594	-0.08
718.621	12.92
718.647	-5.08
718.674	23.92
718.7	15.92
718.726	8.92
718.753	12.92
718.779	14.92
718.806	1.92
718.832	7.92
718.858	1.92
718.885	-12.08
718.911	2.92
718.938	6.92
718.964	-11.08
718.99	9.92
719.017	-6.08
719.043	15.92
719.07	27.92
719.096	-1.08
719.122	9.92
719.149	11.92
719.175	17.92
719.201	11.92
719.228	-2.08
719.254	-6.08
719.281	-7.08
719.307	-4.08
719.333	5.92
719.36	16.92
719.386	10.92
719.412	19.92
719.439	-4.08
719.465	3.92
719.491	3.92
719.518	13.92
719.544	-2.08
719.57	14.92
719.597	-1.08
719.623	-1.08
719.649	21.92
719.675	10.92
719.702	15.92
719.728	15.92
719.754	-23.08
719.781	-1.08
719.807	0.92
719.833	11.92
719.86	-2.08
719.886	9.92
719.912	8.92
719.938	-7.08
719.965	-9.08
719.991	12.92
720.017	5.92
720.044	-4.08
720.07	15.92
720.096	-2.08
720.122	3.92
720.149	7.92
720.175	29.92
720.201	-0.08
720.227	-12.08
720.254	9.92
720.28	10.92
720.306	12.92
720.332	5.92
720.359	-0.08
720.385	12.92
720.411	-1.08
720.437	9.92
720.463	15.92
720.49	14.92
720.516	-8.08
720.542	-22.08
720.568	-4.08
720.595	2.92
720.621	-4.08
720.647	9.92
720.673	5.92
720.699	-4.08
720.725	2.92
720.752	-5.08
720.778	-6.08
720.804	2.92
720.83	24.92
720.856	-9.08
720.883	-9.08
720.909	21.92
720.935	7.92
720.961	20.92
720.987	9.92
721.013	10.92
721.04	6.92
721.066	-2.08
721.092	2.92
721.118	-1.08
721.144	-8.08
721.17	-4.08
721.196	-7.08
721.223	-0.08
721.249	9.92
721.275	24.92
721.301	-4.08
721.327	2.92
721.353	2.92
721.379	0.92
721.405	17.92
721.432	12.92
721.458	7.92
721.484	12.92
721.51	-9.08
721.536	5.92
721.562	1.92
721.588	9.92
721.614	-5.08
721.64	-2.08
721.666	7.92
721.693	-0.08
721.719	-3.08
721.745	3.92
721.771	-9.08
721.797	-2.08
721.823	-1.08
721.849	8.92
721.875	-8.08
721.901	9.92
721.927	1.92
721.953	10.92
721.979	13.92
722.005	21.92
722.031	-5.08
722.057	7.92
722.083	0.92
722.109	-4.08
722.135	10.92
722.161	0.92
722.187	7.92
722.214	-4.08
722.24	-2.08
722.266	-7.08
722.292	-1.08
722.318	17.92
722.344	5.92
722.37	8.92
722.396	14.92
722.422	2.92
722.448	-2.08
722.474	-3.08
722.5	1.92
722.526	5.92
722.552	-6.08
722.578	0.92
722.603	10.92
722.629	-1.08
722.655	9.92
722.681	-13.08
722.707	-6.08
722.733	-8.08
722.759	-9.08
722.785	-0.08
722.811	-2.08
722.837	-10.08
722.863	7.92
722.889	22.92
722.915	-2.08
722.941	4.92
722.967	7.92
722.993	8.92
723.019	3.92
723.045	8.92
723.071	4.92
723.097	-5.08
723.122	-2.08
723.148	-14.08
723.174	-23.08
723.2	-12.08
723.226	11.92
723.252	0.92
723.278	13.92
723.304	-4.08
723.33	3.92
723.356	-7.08
723.381	-10.08
723.407	-9.08
723.433	18.92
723.459	-15.08
723.485	-2.08
723.511	8.92
723.537	-0.08
723.563	6.92
723.588	-5.08
723.614	3.92
723.64	14.92
723.666	7.92
723.692	17.92
723.718	2.92
723.744	5.92
723.769	0.92
723.795	7.92
723.821	-4.08
723.847	8.92
723.873	4.92
723.899	7.92
723.924	-2.08
723.95	3.92
723.976	-9.08
724.002	3.92
724.028	5.92
724.053	-4.08
724.079	7.92
724.105	-2.08
724.131	9.92
724.157	-0.08
724.182	5.92
724.208	-0.08
724.234	-0.08
724.26	6.92
724.286	8.92
724.311	-6.08
724.337	-2.08
724.363	-7.08
724.389	6.92
724.415	8.92
724.44	26.92
724.466	6.92
724.492	1.92
724.518	-5.08
724.543	-4.08
724.569	8.92
724.595	11.92
724.621	-6.08
724.646	7.92
724.672	0.92
724.698	15.92
724.723	-6.08
724.749	-8.08
724.775	12.92
724.801	-2.08
724.826	-8.08
724.852	-3.08
724.878	-9.08
724.904	-8.08
724.929	2.92
724.955	7.92
724.981	8.92
725.006	9.92
725.032	2.92
725.058	21.92
725.083	-0.08
725.109	-14.08
725.135	8.92
725.161	-5.08
725.186	2.92
725.212	6.92
725.238	6.92
725.263	7.92
725.289	-13.08
725.315	-12.08
725.34	-9.08
725.366	12.92
725.392	-5.08
725.417	9.92
725.443	-4.08
725.468	-7.08
725.494	5.92
725.52	-7.08
725.545	-6.08
725.571	0.92
725.597	-3.08
725.622	-4.08
725.648	-2.08
725.674	13.92
725.699	-2.08
725.725	1.92
725.75	21.92
725.776	-7.08
725.802	-3.08
725.827	3.92
725.853	6.92
725.878	-0.08
725.904	1.92
725.93	2.92
725.955	-9.08
725.981	-8.08
726.006	-5.08
726.032	0.92
726.057	0.92
726.083	3.92
726.109	0.92
726.134	10.92
726.16	0.92
726.185	-9.08
726.211	-6.08
726.236	6.92
726.262	11.92
726.288	0.92
726.313	9.92
726.339	10.92
726.364	0.92
726.39	17.92
726.415	-5.08
726.441	-6.08
726.466	-6.08
726.492	-1.08
726.517	14.92
726.543	2.92
726.568	-20.08
726.594	9.92
726.619	-1.08
726.645	-1.08
726.67	-0.08
726.696	15.92
726.721	6.92
726.747	3.92
726.772	3.92
726.798	-0.08
726.823	14.92
726.849	-2.08
726.874	11.92
726.9	31.92
726.925	8.92
726.951	17.92
726.976	3.92
727.002	7.92
727.027	14.92
727.053	13.92
727.078	0.92
727.104	-1.08
727.129	-8.08
727.155	-9.08
727.18	2.92
727.205	-6.08
727.231	-4.08
727.256	7.92
727.282	15.92
727.307	14.92
727.333	-1.08
727.358	-16.08
727.383	-0.08
727.409	-4.08
727.434	-7.08
727.46	15.92
727.485	3.92
727.511	14.92
727.536	-2.08
727.561	-14.08
727.587	3.92
727.612	-4.08
727.637	-1.08
727.663	-2.08
727.688	6.92
727.714	-12.08
727.739	-7.08
727.764	4.92
727.79	11.92
727.815	-1.08
727.841	18.92
727.866	-4.08
727.891	8.92
727.917	-4.08
727.942	-17.08
727.967	-9.08
727.993	-18.08
728.018	-0.08
728.043	3.92
728.069	4.92
728.094	14.92
728.119	17.92
728.145	12.92
728.17	-1.08
728.195	-6.08
728.221	10.92
728.246	2.92
728.271	-9.08
728.297	6.92
728.322	11.92
728.347	7.92
728.373	-8.08
728.398	1.92
728.423	-2.08
728.448	-3.08
728.474	3.92
728.499	1.92
728.524	-2.08
728.55	-8.08
728.575	-0.08
728.6	7.92
728.625	1.92
728.651	3.92
728.676	-5.08
728.701	-4.08
728.727	-5.08
728.752	-0.08
728.777	3.92
728.802	3.92
728.828	9.92
728.853	-9.08
728.878	-8.08
728.903	3.92
728.929	-4.08
728.954	-7.08
728.979	15.92
729.004	3.92
729.03	-10.08
729.055	6.92
729.08	-14.08
729.105	-13.08
729.13	3.92
729.156	2.92
729.181	1.92
729.206	-6.08
729.231	-5.08
729.256	7.92
729.282	-4.08
729.307	-14.08
729.332	-3.08
729.357	-12.08
729.382	-0.08
729.408	-0.08
729.433	-8.08
729.458	5.92
729.483	27.92
729.508	18.92
729.533	-1.08
729.559	11.92
729.584	-7.08
729.609	4.92
729.634	17.92
729.659	3.92
729.684	-10.08
729.71	21.92
729.735	2.92
729.76	-9.08
729.785	-0.08
729.81	12.92
729.835	-13.08
729.86	2.92
729.886	21.92
729.911	1.92
729.936	14.92
729.961	22.92
729.986	21.92
730.011	64.92
730.036	216.92
730.061	1000.92
730.086	2764.92
730.112	3470.92
730.137	2936.92
730.162	2151.92
730.187	1667.92
730.212	1326.92
730.237	825.92
730.262	454.92
730.287	238.92
730.312	126.92
730.337	64.92
730.362	71.92
730.387	50.92
730.413	19.92
730.438	11.92
730.463	9.92
730.488	1.92
730.513	7.92
730.538	2.92
730.563	3.92
730.588	15.92
730.613	14.92
730.638	11.92
730.663	3.92
730.688	15.92
730.713	13.92
730.738	7.92
730.763	-1.08
730.788	-5.08
730.813	18.92
730.838	-5.08
730.863	5.92
730.888	5.92
730.913	-2.08
730.938	-17.08
730.963	23.92
730.988	107.92
731.013	417.92
731.038	645.92
731.063	613.92
731.088	477.92
731.113	368.92
731.138	276.92
731.163	195.92
731.188	105.92
731.213	63.92
731.238	40.92
731.263	13.92
731.288	10.92
731.313	2.92
731.338	1.92
731.363	4.92
731.388	6.92
731.413	9.92
731.438	17.92
731.463	-1.08
731.487	17.92
731.512	-22.08
731.537	5.92
731.562	14.92
731.587	9.92
731.612	-16.08
731.637	-6.08
731.662	11.92
731.687	5.92
731.712	-11.08
731.737	16.92
731.762	9.92
731.786	17.92
731.811	12.92
731.836	4.92
731.861	-8.08
731.886	5.92
731.911	7.92
731.936	26.92
731.961	13.92
731.986	3.92
732.01	15.92
732.035	-0.08
732.06	17.92
732.085	8.92
732.11	11.92
732.135	3.92
732.16	-11.08
732.184	10.92
732.209	3.92
732.234	17.92
732.259	-1.08
732.284	22.92
732.309	0.92
732.334	3.92
732.358	-0.08
732.383	-9.08
732.408	-0.08
732.433	10.92
732.458	5.92
732.482	11.92
732.507	5.92
732.532	22.92
732.557	13.92
732.582	13.92
732.607	26.92
732.631	47.92
732.656	103.92
732.681	147.92
732.706	349.92
732.73	456.92
732.755	399.92
732.78	309.92
732.805	240.92
732.83	168.92
732.854	121.92
732.879	83.92
732.904	49.92
732.929	16.92
732.953	9.92
732.978	18.92
733.003	1.92
733.028	17.92
733.052	24.92
733.077	3.92
733.102	7.92
733.127	-6.08
733.151	-5.08
733.176	11.92
733.201	-1.08
733.226	7.92
733.25	4.92
733.275	6.92
733.3	1.92
733.324	10.92
733.349	14.92
733.374	17.92
733.399	0.92
733.423	-4.08
733.448	1.92
733.473	-4.08
733.497	-5.08
733.522	-0.08
733.547	18.92
733.571	6.92
733.596	8.92
733.621	9.92
733.646	2.92
733.67	-3.08
733.695	-9.08
733.72	-1.08
733.744	9.92
733.769	17.92
733.794	14.92
733.818	-1.08
733.843	-3.08
733.867	-0.08
733.892	-6.08
733.917	-2.08
733.941	3.92
733.966	8.92
733.991	-2.08
734.015	15.92
734.04	-3.08
734.065	25.92
734.089	15.92
734.114	-5.08
734.138	11.92
734.163	2.92
734.188	11.92
734.212	19.92
734.237	3.92
734.261	-0.08
734.286	-7.08
734.311	-6.08
734.335	10.92
734.36	6.92
734.384	-3.08
734.409	1.92
734.434	-7.08
734.458	13.92
734.483	-3.08
734.507	-5.08
734.532	-8.08
734.556	8.92
734.581	-12.08
734.606	-3.08
734.63	-9.08
734.655	12.92
734.679	1.92
734.704	-4.08
734.728	3.92
734.753	1.92
734.777	8.92
734.802	-1.08
734.826	-1.08
734.851	-0.08
734.876	25.92
734.9	12.92
734.925	8.92
734.949	7.92
734.974	6.92
734.998	-6.08
735.023	-22.08
735.047	-22.08
735.072	4.92
735.096	-15.08
735.121	-2.08
735.145	0.92
735.17	-0.08
735.194	6.92
735.219	-0.08
735.243	12.92
735.268	12.92
735.292	14.92
735.317	7.92
735.341	15.92
735.365	-16.08
735.39	9.92
735.414	4.92
735.439	2.92
735.463	9.92
735.488	5.92
735.512	-1.08
735.537	-6.08
735.561	1.92
735.586	3.92
735.61	4.92
735.634	-12.08
735.659	10.92
735.683	14.92
735.708	-2.08
735.732	-0.08
735.757	1.92
735.781	3.92
735.805	1.92
735.83	5.92
735.854	-6.08
735.879	5.92
735.903	19.92
735.927	-0.08
735.952	10.92
735.976	-0.08
736.001	-4.08
736.025	4.92
736.049	2.92
736.074	-1.08
736.098	1.92
736.123	4.92
736.147	-9.08
736.171	7.92
736.196	7.92
736.22	-10.08
736.244	3.92
736.269	23.92
736.293	5.92
736.317	9.92
736.342	12.92
736.366	15.92
736.39	10.92
736.415	4.92
736.439	2.92
736.463	10.92
736.488	14.92
736.512	-5.08
736.536	6.92
736.561	11.92
736.585	7.92
736.609	6.92
736.634	-0.08
736.658	3.92
736.682	-7.08
736.707	1.92
736.731	-6.08
736.755	-4.08
736.78	21.92
736.804	19.92
736.828	14.92
736.852	-11.08
736.877	0.92
736.901	7.92
736.925	15.92
736.949	17.92
736.974	-8.08
736.998	-4.08
737.022	8.92
737.047	-5.08
737.071	-5.08
737.095	13.92
737.119	20.92
737.144	5.92
737.168	-13.08
737.192	-7.08
737.216	1.92
737.241	6.92
737.265	15.92
737.289	-2.08
737.313	-7.08
737.337	14.92
737.362	9.92
737.386	6.92
737.41	0.92
737.434	7.92
737.459	1.92
737.483	6.92
737.507	28.92
737.531	17.92
737.555	-1.08
737.58	10.92
737.604	-2.08
737.628	-15.08
737.652	-2.08
737.676	-2.08
737.701	-5.08
737.725	12.92
737.749	-2.08
737.773	-7.08
737.797	-1.08
737.821	1.92
737.846	-4.08
737.87	40.92
737.894	-16.08
737.918	-6.08
737.942	0.92
737.966	14.92
737.99	14.92
738.015	17.92
738.039	8.92
738.063	6.92
738.087	11.92
738.111	6.92
738.135	17.92
738.159	5.92
738.184	3.92
738.208	4.92
738.232	-6.08
738.256	-1.08
738.28	17.92
738.304	1.92
738.328	5.92
738.352	22.92
738.376	15.92
738.4	13.92
738.425	5.92
738.449	-4.08
738.473	17.92
738.497	1.92
738.521	13.92
738.545	13.92
738.569	11.92
738.593	26.92
738.617	21.92
738.641	3.92
738.665	1.92
738.689	3.92
738.713	0.92
738.737	-1.08
738.762	22.92
738.786	14.92
738.81	1.92
738.834	12.92
738.858	1.92
738.882	-7.08
738.906	-7.08
738.93	-1.08
738.954	5.92
738.978	-3.08
739.002	2.92
739.026	9.92
739.05	19.92
739.074	4.92
739.098	20.92
739.122	29.92
739.146	17.92
739.17	19.92
739.194	-2.08
739.218	5.92
739.242	5.92
739.266	-10.08
739.29	5.92
739.314	7.92
739.338	12.92
739.362	-1.08
739.386	2.92
739.41	-4.08
739.434	2.92
739.458	0.92
739.482	5.92
739.506	3.92
739.53	1.92
739.554	8.92
739.577	-4.08
739.601	8.92
739.625	-8.08
739.649	6.92
739.673	7.92
739.697	-1.08
739.721	-1.08
739.745	18.92
739.769	11.92
739.793	5.92
739.817	15.92
739.841	-5.08
739.865	12.92
739.889	-6.08
739.912	16.92
739.936	-1.08
739.96	-11.08
739.984	8.92
740.008	6.92
740.032	3.92
740.056	-4.08
740.08	16.92
740.104	-0.08
740.127	23.92
740.151	20.92
740.175	9.92
740.199	20.92
740.223	42.92
740.247	16.92
740.271	15.92
740.295	-1.08
740.318	-6.08
740.342	5.92
740.366	-2.08
740.39	10.92
740.414	-7.08
740.438	0.92
740.461	19.92
740.485	-2.08
740.509	-7.08
740.533	13.92
740.557	-7.08
740.581	-8.08
740.604	-15.08
740.628	-5.08
740.652	4.92
740.676	9.92
740.7	13.92
740.723	-10.08
740.747	-14.08
740.771	-2.08
740.795	3.92
740.819	18.92
740.842	11.92
740.866	-1.08
740.89	5.92
740.914	-13.08
740.938	-7.08
740.961	21.92
740.985	1.92
741.009	-7.08
741.033	5.92
741.056	-0.08
741.08	-8.08
741.104	-2.08
741.128	13.92
741.151	-0.08
741.175	-3.08
741.199	-1.08
741.223	19.92
741.246	8.92
741.27	6.92
741.294	7.92
741.318	8.92
741.341	0.92
741.365	7.92
741.389	-4.08
741.413	0.92
741.436	11.92
741.46	9.92
741.484	20.92
741.507	8.92
741.531	15.92
741.555	10.92
741.579	1.92
741.602	7.92
741.626	8.92
741.65	-7.08
741.673	6.92
741.697	12.92
741.721	14.92
741.744	-16.08
741.768	-0.08
741.792	9.92
741.815	-12.08
741.839	15.92
741.863	7.92
741.886	29.92
741.91	17.92
741.934	-3.08
741.957	-4.08
741.981	21.92
742.005	5.92
742.028	-9.08
742.052	-1.08
742.075	4.92
742.099	-0.08
742.123	1.92
742.146	8.92
742.17	11.92
742.194	-5.08
742.217	-10.08
742.241	-9.08
742.264	8.92
742.288	15.92
742.312	5.92
742.335	10.92
742.359	3.92
742.382	31.92
742.406	21.92
742.43	0.92
742.453	10.92
742.477	-6.08
742.5	-7.08
742.524	-5.08
742.548	0.92
742.571	0.92
742.595	-5.08
742.618	-14.08
742.642	-18.08
742.665	-1.08
742.689	-12.08
742.712	18.92
742.736	-4.08
742.76	0.92
742.783	-1.08
742.807	1.92
742.83	23.92
742.854	4.92
742.877	7.92
742.901	-11.08
742.924	-13.08
742.948	-1.08
742.971	3.92
742.995	9.92
743.018	0.92
743.042	-4.08
743.065	-5.08
743.089	-2.08
743.112	2.92
743.136	-3.08
743.159	-4.08
743.183	0.92
743.206	2.92
743.23	-8.08
743.253	1.92
743.277	-2.08
743.3	-4.08
743.324	-5.08
743.347	0.92
743.371	19.92
743.394	12.92
743.418	40.92
743.441	15.92
743.465	5.92
743.488	7.92
743.512	-4.08
743.535	2.92
743.558	5.92
743.582	11.92
743.605	13.92
743.629	16.92
743.652	15.92
743.676	-4.08
743.699	2.92
743.723	3.92
743.746	0.92
743.769	-9.08
743.793	-4.08
743.816	-5.08
743.84	21.92
743.863	5.92
743.886	2.92
743.91	5.92
743.933	4.92
743.957	14.92
743.98	10.92
744.003	4.92
744.027	12.92
744.05	10.92
744.074	11.92
744.097	-4.08
744.12	7.92
744.144	4.92
744.167	0.92
744.19	5.92
744.214	5.92
744.237	11.92
744.26	13.92
744.284	11.92
744.307	-1.08
744.331	9.92
744.354	-23.08
744.377	-5.08
744.401	-6.08
744.424	8.92
744.447	-7.08
744.471	-12.08
