Data from HighRes_mercury_15_13_11_07_2024_HR4C61891__36__15-14-26-786.txt Node

Date: Thu Nov 07 15:14:26 EST 2024
User: crc00042
Spectrometer: HR4C6189
Trigger mode: 4
Integration Time (sec): 1.000000E-1
Scans to average: 1
Electric dark correction enabled: true
Nonlinearity correction enabled: false
Boxcar width: 0
XAxis mode: Wavelengths
Number of Pixels in Spectrum: 3648
>>>>>Begin Spectral Data<<<<<
639.567	-78.92
639.602	-78.92
639.636	-78.92
639.67	-32.92
639.704	-23.92
639.738	1.08
639.773	4.08
639.807	-18.92
639.841	-14.92
639.875	2.08
639.909	-1.92
639.943	-16.92
639.978	10.08
640.012	4.08
640.046	11.08
640.08	12.08
640.114	9.08
640.148	-0.92
640.182	-14.92
640.217	2.08
640.251	15.08
640.285	13.08
640.319	-11.92
640.353	-7.92
640.387	13.08
640.421	-3.92
640.455	-24.92
640.49	-4.92
640.524	9.08
640.558	-11.92
640.592	7.08
640.626	-8.92
640.66	7.08
640.694	-3.92
640.728	8.08
640.762	10.08
640.796	24.08
640.83	21.08
640.865	-5.92
640.899	1.08
640.933	8.08
640.967	5.08
641.001	0.08
641.035	11.08
641.069	16.08
641.103	5.08
641.137	-13.92
641.171	-13.92
641.205	5.08
641.239	-4.92
641.273	23.08
641.307	9.08
641.341	-3.92
641.375	6.08
641.409	7.08
641.443	-13.92
641.477	-7.92
641.511	12.08
641.545	0.08
641.579	-16.92
641.614	9.08
641.648	16.08
641.682	-16.92
641.716	18.08
641.75	2.08
641.784	7.08
641.818	16.08
641.852	-2.92
641.886	-5.92
641.919	13.08
641.953	17.08
641.987	-20.92
642.021	1.08
642.055	-11.92
642.089	-0.92
642.123	3.08
642.157	2.08
642.191	-16.92
642.225	1.08
642.259	13.08
642.293	21.08
642.327	5.08
642.361	-8.92
642.395	15.08
642.429	12.08
642.463	-4.92
642.497	17.08
642.531	-6.92
642.565	-7.92
642.599	3.08
642.633	-13.92
642.666	16.08
642.7	41.08
642.734	23.08
642.768	0.08
642.802	-3.92
642.836	7.08
642.87	-12.92
642.904	12.08
642.938	9.08
642.972	-11.92
643.005	-4.92
643.039	14.08
643.073	2.08
643.107	-3.92
643.141	1.08
643.175	-3.92
643.209	1.08
643.243	-16.92
643.276	9.08
643.31	2.08
643.344	-2.92
643.378	-1.92
643.412	15.08
643.446	6.08
643.48	5.08
643.513	14.08
643.547	10.08
643.581	-3.92
643.615	7.08
643.649	-8.92
643.683	22.08
643.716	7.08
643.75	6.08
643.784	-0.92
643.818	11.08
643.852	12.08
643.886	-1.92
643.919	13.08
643.953	7.08
643.987	-8.92
644.021	11.08
644.055	9.08
644.088	-3.92
644.122	16.08
644.156	-4.92
644.19	11.08
644.224	1.08
644.257	14.08
644.291	-8.92
644.325	17.08
644.359	6.08
644.392	17.08
644.426	11.08
644.46	-10.92
644.494	-12.92
644.527	-11.92
644.561	-12.92
644.595	-2.92
644.629	-15.92
644.662	-6.92
644.696	24.08
644.73	3.08
644.764	10.08
644.797	-0.92
644.831	-11.92
644.865	16.08
644.899	13.08
644.932	29.08
644.966	2.08
645	8.08
645.033	13.08
645.067	19.08
645.101	15.08
645.135	8.08
645.168	-6.92
645.202	-6.92
645.236	9.08
645.269	2.08
645.303	4.08
645.337	-10.92
645.37	-6.92
645.404	10.08
645.438	-8.92
645.471	0.08
645.505	16.08
645.539	-2.92
645.572	-10.92
645.606	-9.92
645.64	-8.92
645.673	11.08
645.707	35.08
645.741	8.08
645.774	-10.92
645.808	-1.92
645.842	-2.92
645.875	-2.92
645.909	-4.92
645.943	-1.92
645.976	11.08
646.01	-2.92
646.043	22.08
646.077	7.08
646.111	7.08
646.144	16.08
646.178	19.08
646.212	-17.92
646.245	1.08
646.279	1.08
646.312	17.08
646.346	6.08
646.38	-11.92
646.413	8.08
646.447	1.08
646.48	2.08
646.514	-8.92
646.547	-8.92
646.581	-13.92
646.615	-10.92
646.648	-5.92
646.682	-1.92
646.715	-1.92
646.749	0.08
646.782	0.08
646.816	2.08
646.85	3.08
646.883	-4.92
646.917	1.08
646.95	7.08
646.984	2.08
647.017	-4.92
647.051	19.08
647.084	1.08
647.118	-9.92
647.151	-8.92
647.185	16.08
647.218	-11.92
647.252	16.08
647.285	-2.92
647.319	-7.92
647.353	11.08
647.386	10.08
647.42	0.08
647.453	-1.92
647.487	4.08
647.52	4.08
647.553	-4.92
647.587	-2.92
647.62	-7.92
647.654	9.08
647.687	3.08
647.721	9.08
647.754	-2.92
647.788	1.08
647.821	-12.92
647.855	4.08
647.888	18.08
647.922	16.08
647.955	6.08
647.989	-2.92
648.022	5.08
648.055	19.08
648.089	8.08
648.122	27.08
648.156	-0.92
648.189	1.08
648.223	6.08
648.256	22.08
648.29	13.08
648.323	11.08
648.356	7.08
648.39	8.08
648.423	7.08
648.457	-6.92
648.49	1.08
648.523	6.08
648.557	7.08
648.59	13.08
648.624	6.08
648.657	-2.92
648.69	21.08
648.724	7.08
648.757	17.08
648.791	4.08
648.824	1.08
648.857	-1.92
648.891	-3.92
648.924	-6.92
648.957	17.08
648.991	-14.92
649.024	10.08
649.057	-12.92
649.091	-17.92
649.124	14.08
649.158	-3.92
649.191	12.08
649.224	1.08
649.258	2.08
649.291	11.08
649.324	1.08
649.358	6.08
649.391	5.08
649.424	4.08
649.458	-1.92
649.491	-20.92
649.524	-23.92
649.557	-21.92
649.591	-12.92
649.624	13.08
649.657	-3.92
649.691	-1.92
649.724	-6.92
649.757	2.08
649.791	-11.92
649.824	18.08
649.857	17.08
649.89	-0.92
649.924	-11.92
649.957	-1.92
649.99	-6.92
650.023	-6.92
650.057	10.08
650.09	-8.92
650.123	-8.92
650.157	12.08
650.19	34.08
650.223	3.08
650.256	-6.92
650.29	-0.92
650.323	3.08
650.356	17.08
650.389	-2.92
650.423	-7.92
650.456	-2.92
650.489	-7.92
650.522	1.08
650.555	18.08
650.589	13.08
650.622	8.08
650.655	11.08
650.688	5.08
650.721	-13.92
650.755	15.08
650.788	12.08
650.821	-1.92
650.854	0.08
650.887	1.08
650.921	-12.92
650.954	-6.92
650.987	11.08
651.02	-2.92
651.053	0.08
651.087	-19.92
651.12	16.08
651.153	3.08
651.186	10.08
651.219	-4.92
651.252	-12.92
651.286	9.08
651.319	1.08
651.352	-6.92
651.385	5.08
651.418	-1.92
651.451	-2.92
651.484	-4.92
651.518	-14.92
651.551	27.08
651.584	-2.92
651.617	18.08
651.65	0.08
651.683	7.08
651.716	-16.92
651.749	-5.92
651.783	0.08
651.816	4.08
651.849	-4.92
651.882	-1.92
651.915	-5.92
651.948	0.08
651.981	-4.92
652.014	-12.92
652.047	-5.92
652.08	-4.92
652.114	-4.92
652.147	4.08
652.18	-3.92
652.213	37.08
652.246	3.08
652.279	-4.92
652.312	4.08
652.345	-3.92
652.378	-2.92
652.411	4.08
652.444	-1.92
652.477	-8.92
652.51	-1.92
652.543	-23.92
652.576	-2.92
652.609	-2.92
652.642	4.08
652.675	7.08
652.709	7.08
652.742	16.08
652.775	3.08
652.808	10.08
652.841	-2.92
652.874	12.08
652.907	-15.92
652.94	-16.92
652.973	-13.92
653.006	-4.92
653.039	-6.92
653.072	0.08
653.105	13.08
653.138	-14.92
653.171	10.08
653.204	-0.92
653.237	-6.92
653.27	-1.92
653.303	11.08
653.336	23.08
653.368	-5.92
653.401	9.08
653.434	10.08
653.467	14.08
653.5	-7.92
653.533	-7.92
653.566	5.08
653.599	4.08
653.632	-5.92
653.665	3.08
653.698	-22.92
653.731	2.08
653.764	21.08
653.797	-7.92
653.83	19.08
653.863	-1.92
653.896	-2.92
653.929	-10.92
653.961	7.08
653.994	-6.92
654.027	-15.92
654.06	-7.92
654.093	-2.92
654.126	-5.92
654.159	-1.92
654.192	3.08
654.225	-0.92
654.258	-1.92
654.29	-3.92
654.323	0.08
654.356	-28.92
654.389	-6.92
654.422	-5.92
654.455	-5.92
654.488	0.08
654.521	-10.92
654.553	3.08
654.586	17.08
654.619	1.08
654.652	-4.92
654.685	9.08
654.718	1.08
654.751	4.08
654.783	-8.92
654.816	21.08
654.849	-1.92
654.882	-16.92
654.915	-6.92
654.948	-1.92
654.98	1.08
655.013	2.08
655.046	1.08
655.079	-15.92
655.112	-12.92
655.144	-18.92
655.177	-2.92
655.21	9.08
655.243	6.08
655.276	-0.92
655.308	4.08
655.341	-5.92
655.374	-5.92
655.407	-13.92
655.44	-5.92
655.472	-2.92
655.505	-0.92
655.538	-5.92
655.571	16.08
655.603	2.08
655.636	-9.92
655.669	12.08
655.702	-4.92
655.734	-16.92
655.767	-6.92
655.8	-3.92
655.833	6.08
655.865	11.08
655.898	-6.92
655.931	-7.92
655.964	-0.92
655.996	-5.92
656.029	15.08
656.062	3.08
656.095	-13.92
656.127	-23.92
656.16	-13.92
656.193	-0.92
656.225	-1.92
656.258	5.08
656.291	-7.92
656.324	2.08
656.356	4.08
656.389	-2.92
656.422	10.08
656.454	-4.92
656.487	5.08
656.52	6.08
656.552	-4.92
656.585	2.08
656.618	21.08
656.65	12.08
656.683	-14.92
656.716	18.08
656.748	3.08
656.781	1.08
656.814	4.08
656.846	8.08
656.879	1.08
656.912	-4.92
656.944	-3.92
656.977	-7.92
657.01	-14.92
657.042	17.08
657.075	6.08
657.108	-0.92
657.14	9.08
657.173	13.08
657.205	38.08
657.238	21.08
657.271	13.08
657.303	-6.92
657.336	-3.92
657.369	-31.92
657.401	-8.92
657.434	3.08
657.466	-1.92
657.499	0.08
657.532	1.08
657.564	7.08
657.597	-2.92
657.629	1.08
657.662	5.08
657.694	-2.92
657.727	-18.92
657.76	10.08
657.792	-3.92
657.825	1.08
657.857	3.08
657.89	-3.92
657.922	6.08
657.955	-16.92
657.987	-1.92
658.02	11.08
658.053	13.08
658.085	3.08
658.118	9.08
658.15	3.08
658.183	3.08
658.215	7.08
658.248	-7.92
658.28	-12.92
658.313	2.08
658.345	4.08
658.378	0.08
658.41	-13.92
658.443	12.08
658.475	-1.92
658.508	-10.92
658.54	3.08
658.573	-13.92
658.605	-7.92
658.638	1.08
658.67	-6.92
658.703	-9.92
658.735	-11.92
658.768	-3.92
658.8	-28.92
658.833	14.08
658.865	-2.92
658.898	-1.92
658.93	7.08
658.963	-2.92
658.995	-12.92
659.028	-13.92
659.06	-8.92
659.092	1.08
659.125	-7.92
659.157	15.08
659.19	-8.92
659.222	-10.92
659.255	5.08
659.287	4.08
659.32	-14.92
659.352	10.08
659.384	12.08
659.417	-8.92
659.449	3.08
659.482	20.08
659.514	-10.92
659.546	-14.92
659.579	-6.92
659.611	1.08
659.644	-6.92
659.676	-5.92
659.708	-10.92
659.741	-14.92
659.773	5.08
659.806	16.08
659.838	3.08
659.87	-6.92
659.903	-21.92
659.935	-2.92
659.967	-12.92
660	8.08
660.032	-29.92
660.065	7.08
660.097	13.08
660.129	-3.92
660.162	-7.92
660.194	21.08
660.226	1.08
660.259	-1.92
660.291	1.08
660.323	-4.92
660.356	8.08
660.388	1.08
660.42	-4.92
660.453	0.08
660.485	16.08
660.517	16.08
660.55	-0.92
660.582	-4.92
660.614	-1.92
660.647	2.08
660.679	-10.92
660.711	5.08
660.743	-9.92
660.776	-16.92
660.808	-3.92
660.84	2.08
660.873	2.08
660.905	-8.92
660.937	7.08
660.969	3.08
661.002	-5.92
661.034	11.08
661.066	-7.92
661.099	4.08
661.131	13.08
661.163	-5.92
661.195	4.08
661.228	10.08
661.26	0.08
661.292	-5.92
661.324	-0.92
661.357	3.08
661.389	2.08
661.421	10.08
661.453	8.08
661.485	0.08
661.518	1.08
661.55	-17.92
661.582	-24.92
661.614	1.08
661.647	6.08
661.679	0.08
661.711	-1.92
661.743	-8.92
661.775	1.08
661.808	23.08
661.84	-10.92
661.872	0.08
661.904	-7.92
661.936	-1.92
661.969	-7.92
662.001	-8.92
662.033	-2.92
662.065	-15.92
662.097	14.08
662.129	17.08
662.162	-12.92
662.194	6.08
662.226	-13.92
662.258	3.08
662.29	3.08
662.322	2.08
662.355	-8.92
662.387	18.08
662.419	2.08
662.451	2.08
662.483	9.08
662.515	-0.92
662.547	5.08
662.58	16.08
662.612	-11.92
662.644	-4.92
662.676	-0.92
662.708	24.08
662.74	-14.92
662.772	-10.92
662.804	14.08
662.836	6.08
662.869	-18.92
662.901	5.08
662.933	-5.92
662.965	20.08
662.997	9.08
663.029	-6.92
663.061	0.08
663.093	3.08
663.125	-6.92
663.157	-8.92
663.189	0.08
663.221	11.08
663.254	8.08
663.286	27.08
663.318	9.08
663.35	-14.92
663.382	-4.92
663.414	4.08
663.446	-8.92
663.478	-11.92
663.51	11.08
663.542	-28.92
663.574	-6.92
663.606	7.08
663.638	-1.92
663.67	-2.92
663.702	-7.92
663.734	-3.92
663.766	12.08
663.798	-19.92
663.83	-6.92
663.862	11.08
663.894	19.08
663.926	9.08
663.958	5.08
663.99	-10.92
664.022	4.08
664.054	1.08
664.086	-9.92
664.118	-30.92
664.15	-11.92
664.182	3.08
664.214	-0.92
664.246	10.08
664.278	3.08
664.31	30.08
664.342	4.08
664.374	9.08
664.406	8.08
664.438	14.08
664.47	12.08
664.502	-23.92
664.534	-16.92
664.566	-17.92
664.598	17.08
664.63	-8.92
664.662	5.08
664.693	-8.92
664.725	2.08
664.757	6.08
664.789	-21.92
664.821	1.08
664.853	1.08
664.885	-1.92
664.917	6.08
664.949	18.08
664.981	7.08
665.013	-3.92
665.045	-2.92
665.076	8.08
665.108	14.08
665.14	-5.92
665.172	-3.92
665.204	3.08
665.236	7.08
665.268	12.08
665.3	-3.92
665.331	-3.92
665.363	11.08
665.395	-8.92
665.427	-0.92
665.459	14.08
665.491	-6.92
665.523	-6.92
665.555	-17.92
665.586	2.08
665.618	0.08
665.65	-25.92
665.682	-6.92
665.714	10.08
665.746	4.08
665.777	-4.92
665.809	0.08
665.841	0.08
665.873	-1.92
665.905	1.08
665.937	10.08
665.968	0.08
666	18.08
666.032	16.08
666.064	-5.92
666.096	1.08
666.127	8.08
666.159	22.08
666.191	9.08
666.223	-0.92
666.255	17.08
666.286	8.08
666.318	-13.92
666.35	6.08
666.382	4.08
666.413	-14.92
666.445	-17.92
666.477	-3.92
666.509	-14.92
666.54	-1.92
666.572	3.08
666.604	5.08
666.636	-2.92
666.667	18.08
666.699	15.08
666.731	-13.92
666.763	-2.92
666.794	6.08
666.826	2.08
666.858	-13.92
666.89	7.08
666.921	9.08
666.953	9.08
666.985	24.08
667.017	29.08
667.048	-6.92
667.08	2.08
667.112	-11.92
667.143	-12.92
667.175	5.08
667.207	-5.92
667.238	-4.92
667.27	-6.92
667.302	12.08
667.334	4.08
667.365	7.08
667.397	6.08
667.429	-12.92
667.46	3.08
667.492	10.08
667.524	-14.92
667.555	-3.92
667.587	8.08
667.619	5.08
667.65	4.08
667.682	21.08
667.714	13.08
667.745	23.08
667.777	20.08
667.808	20.08
667.84	5.08
667.872	1.08
667.903	40.08
667.935	1.08
667.967	16.08
667.998	8.08
668.03	2.08
668.061	-2.92
668.093	2.08
668.125	21.08
668.156	6.08
668.188	-1.92
668.22	-17.92
668.251	-0.92
668.283	7.08
668.314	26.08
668.346	4.08
668.377	13.08
668.409	6.08
668.441	19.08
668.472	29.08
668.504	11.08
668.535	9.08
668.567	13.08
668.599	-1.92
668.63	-12.92
668.662	22.08
668.693	16.08
668.725	3.08
668.756	2.08
668.788	2.08
668.819	12.08
668.851	17.08
668.882	3.08
668.914	0.08
668.946	-1.92
668.977	5.08
669.009	-12.92
669.04	3.08
669.072	2.08
669.103	18.08
669.135	13.08
669.166	2.08
669.198	5.08
669.229	13.08
669.261	8.08
669.292	-2.92
669.324	8.08
669.355	13.08
669.387	-8.92
669.418	13.08
669.45	2.08
669.481	27.08
669.513	14.08
669.544	13.08
669.576	5.08
669.607	22.08
669.639	3.08
669.67	-5.92
669.701	5.08
669.733	-5.92
669.764	0.08
669.796	3.08
669.827	-19.92
669.859	-13.92
669.89	5.08
669.922	10.08
669.953	8.08
669.985	10.08
670.016	18.08
670.047	4.08
670.079	5.08
670.11	17.08
670.142	6.08
670.173	17.08
670.204	9.08
670.236	-4.92
670.267	-6.92
670.299	13.08
670.33	-11.92
670.362	-0.92
670.393	-10.92
670.424	11.08
670.456	-14.92
670.487	0.08
670.518	2.08
670.55	6.08
670.581	-3.92
670.613	4.08
670.644	-19.92
670.675	-18.92
670.707	-8.92
670.738	8.08
670.769	-12.92
670.801	-7.92
670.832	5.08
670.864	-14.92
670.895	7.08
670.926	2.08
670.958	4.08
670.989	-2.92
671.02	-6.92
671.052	-3.92
671.083	-0.92
671.114	-5.92
671.146	4.08
671.177	11.08
671.208	-16.92
671.24	-10.92
671.271	-16.92
671.302	-5.92
671.333	-10.92
671.365	-1.92
671.396	-1.92
671.427	3.08
671.459	-1.92
671.49	-16.92
671.521	-0.92
671.553	0.08
671.584	3.08
671.615	0.08
671.646	9.08
671.678	15.08
671.709	-3.92
671.74	-3.92
671.771	-13.92
671.803	-5.92
671.834	5.08
671.865	-9.92
671.896	0.08
671.928	-2.92
671.959	-10.92
671.99	-2.92
672.021	-5.92
672.053	-11.92
672.084	14.08
672.115	8.08
672.146	-8.92
672.178	-12.92
672.209	-4.92
672.24	-3.92
672.271	24.08
672.303	16.08
672.334	-3.92
672.365	-2.92
672.396	11.08
672.427	-1.92
672.459	5.08
672.49	23.08
672.521	-4.92
672.552	1.08
672.583	12.08
672.615	11.08
672.646	8.08
672.677	-6.92
672.708	-2.92
672.739	5.08
672.77	8.08
672.802	-5.92
672.833	-25.92
672.864	13.08
672.895	-1.92
672.926	3.08
672.957	-20.92
672.989	-1.92
673.02	-5.92
673.051	-1.92
673.082	19.08
673.113	3.08
673.144	10.08
673.175	2.08
673.206	1.08
673.238	-3.92
673.269	0.08
673.3	-6.92
673.331	8.08
673.362	-0.92
673.393	2.08
673.424	0.08
673.455	16.08
673.487	2.08
673.518	14.08
673.549	-1.92
673.58	-0.92
673.611	10.08
673.642	10.08
673.673	-9.92
673.704	-3.92
673.735	1.08
673.766	1.08
673.797	-0.92
673.828	-7.92
673.86	-20.92
673.891	-10.92
673.922	-9.92
673.953	1.08
673.984	3.08
674.015	5.08
674.046	1.08
674.077	-0.92
674.108	-12.92
674.139	7.08
674.17	-0.92
674.201	-3.92
674.232	1.08
674.263	-0.92
674.294	-3.92
674.325	-1.92
674.356	10.08
674.387	5.08
674.418	1.08
674.449	0.08
674.48	-5.92
674.511	-0.92
674.542	-5.92
674.573	-4.92
674.604	10.08
674.635	-11.92
674.666	19.08
674.697	-1.92
674.728	1.08
674.759	-10.92
674.79	-2.92
674.821	5.08
674.852	3.08
674.883	-1.92
674.914	2.08
674.945	-6.92
674.976	-3.92
675.007	5.08
675.038	-15.92
675.069	-12.92
675.1	-14.92
675.131	8.08
675.162	4.08
675.193	6.08
675.224	-1.92
675.254	-0.92
675.285	-3.92
675.316	10.08
675.347	3.08
675.378	-6.92
675.409	-15.92
675.44	18.08
675.471	9.08
675.502	-10.92
675.533	2.08
675.564	1.08
675.595	-2.92
675.625	14.08
675.656	6.08
675.687	5.08
675.718	-3.92
675.749	18.08
675.78	12.08
675.811	-4.92
675.842	-1.92
675.873	-3.92
675.903	-7.92
675.934	-1.92
675.965	-5.92
675.996	-4.92
676.027	9.08
676.058	-11.92
676.089	-4.92
676.119	16.08
676.15	-2.92
676.181	2.08
676.212	6.08
676.243	-10.92
676.274	-0.92
676.304	8.08
676.335	-8.92
676.366	-10.92
676.397	-17.92
676.428	-2.92
676.459	-8.92
676.489	11.08
676.52	7.08
676.551	-6.92
676.582	-14.92
676.613	-0.92
676.643	-11.92
676.674	-2.92
676.705	-15.92
676.736	-10.92
676.767	8.08
676.797	7.08
676.828	6.08
676.859	-2.92
676.89	4.08
676.92	14.08
676.951	-0.92
676.982	14.08
677.013	9.08
677.044	2.08
677.074	14.08
677.105	2.08
677.136	7.08
677.167	3.08
677.197	-1.92
677.228	-2.92
677.259	-1.92
677.289	8.08
677.32	-21.92
677.351	-7.92
677.382	-19.92
677.412	-13.92
677.443	3.08
677.474	5.08
677.505	-18.92
677.535	-0.92
677.566	-6.92
677.597	-10.92
677.627	-9.92
677.658	-2.92
677.689	-10.92
677.72	-13.92
677.75	-5.92
677.781	-13.92
677.812	-0.92
677.842	18.08
677.873	-14.92
677.904	-9.92
677.934	6.08
677.965	-5.92
677.996	-26.92
678.026	0.08
678.057	-1.92
678.088	-7.92
678.118	2.08
678.149	-12.92
678.18	-3.92
678.21	-4.92
678.241	8.08
678.272	-14.92
678.302	-1.92
678.333	2.08
678.363	8.08
678.394	15.08
678.425	-2.92
678.455	4.08
678.486	11.08
678.517	-8.92
678.547	-1.92
678.578	-7.92
678.608	-18.92
678.639	-7.92
678.67	0.08
678.7	-10.92
678.731	-14.92
678.761	2.08
678.792	7.08
678.823	1.08
678.853	-6.92
678.884	-8.92
678.914	10.08
678.945	-17.92
678.975	-5.92
679.006	2.08
679.037	2.08
679.067	43.08
679.098	-0.92
679.128	-13.92
679.159	-2.92
679.189	7.08
679.22	-6.92
679.25	3.08
679.281	5.08
679.312	-6.92
679.342	-6.92
679.373	-3.92
679.403	-13.92
679.434	0.08
679.464	5.08
679.495	0.08
679.525	20.08
679.556	-7.92
679.586	-8.92
679.617	-2.92
679.647	2.08
679.678	-2.92
679.708	-8.92
679.739	-5.92
679.769	-1.92
679.8	-3.92
679.83	-3.92
679.861	8.08
679.891	-21.92
679.922	-19.92
679.952	-17.92
679.983	-7.92
680.013	8.08
680.044	5.08
680.074	10.08
680.105	9.08
680.135	12.08
680.165	1.08
680.196	-1.92
680.226	6.08
680.257	9.08
680.287	-1.92
680.318	-8.92
680.348	-4.92
680.379	10.08
680.409	-2.92
680.439	-2.92
680.47	0.08
680.5	9.08
680.531	2.08
680.561	11.08
680.592	21.08
680.622	13.08
680.652	-8.92
680.683	19.08
680.713	-5.92
680.744	8.08
680.774	-5.92
680.804	30.08
680.835	6.08
680.865	-8.92
680.896	28.08
680.926	19.08
680.956	4.08
680.987	-1.92
681.017	-3.92
681.047	-1.92
681.078	-13.92
681.108	-6.92
681.139	6.08
681.169	3.08
681.199	4.08
681.23	-9.92
681.26	-7.92
681.29	9.08
681.321	1.08
681.351	-5.92
681.381	-22.92
681.412	-2.92
681.442	5.08
681.472	11.08
681.503	10.08
681.533	0.08
681.563	-0.92
681.594	-4.92
681.624	0.08
681.654	-18.92
681.685	-18.92
681.715	-5.92
681.745	-6.92
681.775	3.08
681.806	9.08
681.836	-2.92
681.866	6.08
681.897	-1.92
681.927	4.08
681.957	-32.92
681.987	7.08
682.018	12.08
682.048	-0.92
682.078	1.08
682.109	16.08
682.139	17.08
682.169	13.08
682.199	4.08
682.23	-21.92
682.26	16.08
682.29	-4.92
682.32	-8.92
682.351	-8.92
682.381	1.08
682.411	-1.92
682.441	-5.92
682.472	-7.92
682.502	2.08
682.532	-12.92
682.562	5.08
682.592	6.08
682.623	7.08
682.653	4.08
682.683	-20.92
682.713	7.08
682.743	1.08
682.774	1.08
682.804	11.08
682.834	-1.92
682.864	-0.92
682.894	-4.92
682.925	3.08
682.955	13.08
682.985	-9.92
683.015	-4.92
683.045	14.08
683.076	-8.92
683.106	-9.92
683.136	0.08
683.166	-6.92
683.196	-2.92
683.226	5.08
683.257	0.08
683.287	-2.92
683.317	-12.92
683.347	-1.92
683.377	1.08
683.407	-0.92
683.437	8.08
683.468	3.08
683.498	-7.92
683.528	14.08
683.558	5.08
683.588	-2.92
683.618	-21.92
683.648	-21.92
683.678	5.08
683.708	11.08
683.739	-5.92
683.769	-6.92
683.799	0.08
683.829	-3.92
683.859	7.08
683.889	13.08
683.919	0.08
683.949	9.08
683.979	-5.92
684.009	-14.92
684.039	-10.92
684.07	-14.92
684.1	15.08
684.13	-3.92
684.16	2.08
684.19	-3.92
684.22	-14.92
684.25	0.08
684.28	4.08
684.31	13.08
684.34	20.08
684.37	7.08
684.4	0.08
684.43	-1.92
684.46	-4.92
684.49	3.08
684.52	0.08
684.55	11.08
684.58	7.08
684.61	0.08
684.64	0.08
684.67	11.08
684.7	2.08
684.73	9.08
684.76	-15.92
684.79	19.08
684.82	-13.92
684.85	-11.92
684.88	-1.92
684.91	-13.92
684.94	2.08
684.97	-8.92
685	-0.92
685.03	-6.92
685.06	1.08
685.09	-4.92
685.12	18.08
685.15	-16.92
685.18	12.08
685.21	-1.92
685.24	-7.92
685.27	-8.92
685.3	6.08
685.33	16.08
685.36	7.08
685.39	5.08
685.42	-4.92
685.45	-10.92
685.48	-7.92
685.51	-6.92
685.54	6.08
685.569	8.08
685.599	0.08
685.629	9.08
685.659	2.08
685.689	-4.92
685.719	-0.92
685.749	4.08
685.779	7.08
685.809	-0.92
685.839	8.08
685.869	3.08
685.898	10.08
685.928	5.08
685.958	-3.92
685.988	15.08
686.018	13.08
686.048	4.08
686.078	3.08
686.108	17.08
686.137	7.08
686.167	9.08
686.197	-1.92
686.227	1.08
686.257	31.08
686.287	21.08
686.317	10.08
686.346	-1.92
686.376	-8.92
686.406	-6.92
686.436	9.08
686.466	11.08
686.496	5.08
686.525	2.08
686.555	8.08
686.585	6.08
686.615	35.08
686.645	12.08
686.675	9.08
686.704	-0.92
686.734	4.08
686.764	-2.92
686.794	-2.92
686.824	-0.92
686.853	15.08
686.883	13.08
686.913	15.08
686.943	-1.92
686.973	-5.92
687.002	9.08
687.032	6.08
687.062	-4.92
687.092	17.08
687.121	-5.92
687.151	4.08
687.181	7.08
687.211	21.08
687.24	-0.92
687.27	25.08
687.3	7.08
687.33	4.08
687.359	-2.92
687.389	5.08
687.419	6.08
687.449	-6.92
687.478	11.08
687.508	1.08
687.538	16.08
687.568	20.08
687.597	0.08
687.627	24.08
687.657	3.08
687.686	1.08
687.716	17.08
687.746	-23.92
687.776	-33.92
687.805	-10.92
687.835	-0.92
687.865	22.08
687.894	14.08
687.924	-5.92
687.954	-0.92
687.983	-4.92
688.013	3.08
688.043	16.08
688.072	15.08
688.102	3.08
688.132	-1.92
688.161	-3.92
688.191	12.08
688.221	13.08
688.25	-11.92
688.28	8.08
688.31	-7.92
688.339	9.08
688.369	-18.92
688.399	-23.92
688.428	-0.92
688.458	11.08
688.488	-9.92
688.517	17.08
688.547	-2.92
688.576	5.08
688.606	2.08
688.636	-30.92
688.665	9.08
688.695	4.08
688.725	25.08
688.754	-0.92
688.784	2.08
688.813	-2.92
688.843	2.08
688.873	-3.92
688.902	-14.92
688.932	-23.92
688.961	2.08
688.991	-0.92
689.02	15.08
689.05	-2.92
689.08	21.08
689.109	10.08
689.139	0.08
689.168	10.08
689.198	-14.92
689.227	0.08
689.257	13.08
689.287	-4.92
689.316	-0.92
689.346	-2.92
689.375	2.08
689.405	-2.92
689.434	2.08
689.464	1.08
689.493	0.08
689.523	-21.92
689.552	-8.92
689.582	17.08
689.611	-0.92
689.641	-3.92
689.67	-3.92
689.7	8.08
689.73	19.08
689.759	8.08
689.789	11.08
689.818	-8.92
689.848	1.08
689.877	33.08
689.906	5.08
689.936	0.08
689.965	13.08
689.995	8.08
690.024	-5.92
690.054	-3.92
690.083	-1.92
690.113	-1.92
690.142	-2.92
690.172	0.08
690.201	-2.92
690.231	-2.92
690.26	6.08
690.29	-12.92
690.319	15.08
690.348	3.08
690.378	-0.92
690.407	6.08
690.437	16.08
690.466	5.08
690.496	2.08
690.525	6.08
690.555	-5.92
690.584	-2.92
690.613	-10.92
690.643	-3.92
690.672	18.08
690.702	10.08
690.731	9.08
690.76	27.08
690.79	59.08
690.819	59.08
690.849	32.08
690.878	30.08
690.907	24.08
690.937	30.08
690.966	16.08
690.996	-1.92
691.025	3.08
691.054	-6.92
691.084	4.08
691.113	-2.92
691.142	7.08
691.172	-6.92
691.201	15.08
691.23	11.08
691.26	21.08
691.289	8.08
691.319	-3.92
691.348	13.08
691.377	17.08
691.407	8.08
691.436	7.08
691.465	1.08
691.495	1.08
691.524	-20.92
691.553	-14.92
691.583	-3.92
691.612	28.08
691.641	-2.92
691.67	14.08
691.7	1.08
691.729	-2.92
691.758	4.08
691.788	-25.92
691.817	-2.92
691.846	-6.92
691.876	15.08
691.905	2.08
691.934	4.08
691.963	26.08
691.993	3.08
692.022	-9.92
692.051	-15.92
692.081	20.08
692.11	-0.92
692.139	7.08
692.168	13.08
692.198	23.08
692.227	2.08
692.256	17.08
692.285	12.08
692.315	9.08
692.344	21.08
692.373	5.08
692.402	-18.92
692.432	-24.92
692.461	-6.92
692.49	-4.92
692.519	-12.92
692.548	5.08
692.578	0.08
692.607	-10.92
692.636	-10.92
692.665	18.08
692.694	5.08
692.724	6.08
692.753	21.08
692.782	10.08
692.811	-0.92
692.84	3.08
692.87	-3.92
692.899	6.08
692.928	-10.92
692.957	8.08
692.986	9.08
693.016	-2.92
693.045	10.08
693.074	-0.92
693.103	4.08
693.132	0.08
693.161	-1.92
693.191	5.08
693.22	-21.92
693.249	-2.92
693.278	11.08
693.307	24.08
693.336	3.08
693.365	-16.92
693.395	7.08
693.424	14.08
693.453	28.08
693.482	-1.92
693.511	14.08
693.54	8.08
693.569	7.08
693.598	12.08
693.628	14.08
693.657	-6.92
693.686	10.08
693.715	16.08
693.744	19.08
693.773	20.08
693.802	16.08
693.831	13.08
693.86	26.08
693.889	-13.92
693.919	-3.92
693.948	-8.92
693.977	-0.92
694.006	7.08
694.035	11.08
694.064	-0.92
694.093	-0.92
694.122	-3.92
694.151	5.08
694.18	-7.92
694.209	29.08
694.238	4.08
694.267	11.08
694.296	21.08
694.325	10.08
694.354	16.08
694.383	-0.92
694.412	5.08
694.441	-7.92
694.471	-5.92
694.5	-4.92
694.529	2.08
694.558	14.08
694.587	18.08
694.616	6.08
694.645	8.08
694.674	14.08
694.703	5.08
694.732	6.08
694.761	3.08
694.79	17.08
694.819	-6.92
694.848	9.08
694.877	13.08
694.906	18.08
694.935	-0.92
694.963	13.08
694.992	10.08
695.021	19.08
695.05	19.08
695.079	11.08
695.108	-3.92
695.137	7.08
695.166	4.08
695.195	-13.92
695.224	9.08
695.253	11.08
695.282	7.08
695.311	1.08
695.34	5.08
695.369	9.08
695.398	6.08
695.427	16.08
695.456	15.08
695.485	11.08
695.513	17.08
695.542	1.08
695.571	-13.92
695.6	42.08
695.629	9.08
695.658	-0.92
695.687	10.08
695.716	16.08
695.745	33.08
695.774	-7.92
695.802	-6.92
695.831	20.08
695.86	11.08
695.889	16.08
695.918	4.08
695.947	4.08
695.976	1.08
696.005	2.08
696.033	-0.92
696.062	26.08
696.091	8.08
696.12	6.08
696.149	7.08
696.178	-5.92
696.207	3.08
696.235	-10.92
696.264	25.08
696.293	-1.92
696.322	9.08
696.351	6.08
696.38	-7.92
696.408	3.08
696.437	4.08
696.466	17.08
696.495	15.08
696.524	3.08
696.553	0.08
696.581	14.08
696.61	17.08
696.639	3.08
696.668	-0.92
696.697	8.08
696.725	21.08
696.754	18.08
696.783	-3.92
696.812	-3.92
696.84	10.08
696.869	8.08
696.898	-6.92
696.927	-2.92
696.956	18.08
696.984	-8.92
697.013	-3.92
697.042	14.08
697.071	-6.92
697.099	-0.92
697.128	15.08
697.157	14.08
697.186	-3.92
697.214	-4.92
697.243	-8.92
697.272	4.08
697.301	18.08
697.329	20.08
697.358	-5.92
697.387	20.08
697.415	0.08
697.444	-4.92
697.473	2.08
697.502	1.08
697.53	6.08
697.559	6.08
697.588	16.08
697.616	3.08
697.645	-10.92
697.674	10.08
697.703	-3.92
697.731	17.08
697.76	-0.92
697.789	9.08
697.817	-2.92
697.846	13.08
697.875	1.08
697.903	28.08
697.932	31.08
697.961	9.08
697.989	14.08
698.018	9.08
698.047	0.08
698.075	19.08
698.104	10.08
698.133	-2.92
698.161	6.08
698.19	4.08
698.218	-8.92
698.247	1.08
698.276	-3.92
698.304	9.08
698.333	3.08
698.362	11.08
698.39	14.08
698.419	6.08
698.447	10.08
698.476	16.08
698.505	25.08
698.533	8.08
698.562	9.08
698.591	-14.92
698.619	-11.92
698.648	-5.92
698.676	-0.92
698.705	-3.92
698.733	6.08
698.762	-5.92
698.791	0.08
698.819	4.08
698.848	-2.92
698.876	21.08
698.905	5.08
698.933	0.08
698.962	-8.92
698.991	8.08
699.019	20.08
699.048	2.08
699.076	13.08
699.105	-4.92
699.133	-8.92
699.162	7.08
699.19	22.08
699.219	7.08
699.248	-0.92
699.276	-1.92
699.305	-5.92
699.333	12.08
699.362	3.08
699.39	25.08
699.419	-2.92
699.447	5.08
699.476	17.08
699.504	-5.92
699.533	14.08
699.561	-4.92
699.59	-5.92
699.618	4.08
699.647	11.08
699.675	21.08
699.704	4.08
699.732	5.08
699.761	9.08
699.789	8.08
699.818	4.08
699.846	0.08
699.874	8.08
699.903	-2.92
699.931	-10.92
699.96	-4.92
699.988	12.08
700.017	-2.92
700.045	-1.92
700.074	-5.92
700.102	4.08
700.13	-11.92
700.159	11.08
700.187	4.08
700.216	10.08
700.244	2.08
700.273	-1.92
700.301	-10.92
700.329	3.08
700.358	12.08
700.386	5.08
700.415	0.08
700.443	-8.92
700.472	8.08
700.5	12.08
700.528	10.08
700.557	6.08
700.585	-2.92
700.614	-1.92
700.642	10.08
700.67	25.08
700.699	1.08
700.727	7.08
700.755	9.08
700.784	-0.92
700.812	1.08
700.841	14.08
700.869	18.08
700.897	-3.92
700.926	-3.92
700.954	-10.92
700.982	12.08
701.011	-4.92
701.039	6.08
701.067	2.08
701.096	-3.92
701.124	-1.92
701.152	9.08
701.181	2.08
701.209	-1.92
701.237	-0.92
701.266	-10.92
701.294	5.08
701.322	5.08
701.351	-7.92
701.379	6.08
701.407	-11.92
701.435	17.08
701.464	28.08
701.492	13.08
701.52	1.08
701.549	1.08
701.577	-13.92
701.605	6.08
701.634	5.08
701.662	14.08
701.69	-12.92
701.718	-9.92
701.747	14.08
701.775	10.08
701.803	-3.92
701.831	12.08
701.86	-4.92
701.888	13.08
701.916	10.08
701.944	7.08
701.973	0.08
702.001	-21.92
702.029	-1.92
702.057	9.08
702.086	-12.92
702.114	-3.92
702.142	-3.92
702.17	-15.92
702.199	3.08
702.227	13.08
702.255	1.08
702.283	12.08
702.311	9.08
702.34	-11.92
702.368	6.08
702.396	10.08
702.424	-1.92
702.452	8.08
702.481	-6.92
702.509	3.08
702.537	-0.92
702.565	4.08
702.593	-17.92
702.621	-6.92
702.65	13.08
702.678	15.08
702.706	5.08
702.734	-3.92
702.762	12.08
702.79	-5.92
702.819	3.08
702.847	7.08
702.875	4.08
702.903	18.08
702.931	-3.92
702.959	6.08
702.988	11.08
703.016	-7.92
703.044	6.08
703.072	-0.92
703.1	-0.92
703.128	6.08
703.156	8.08
703.184	9.08
703.212	15.08
703.241	12.08
703.269	12.08
703.297	13.08
703.325	2.08
703.353	2.08
703.381	-6.92
703.409	-6.92
703.437	-4.92
703.465	-0.92
703.493	-13.92
703.522	-15.92
703.55	-4.92
703.578	12.08
703.606	2.08
703.634	6.08
703.662	0.08
703.69	-4.92
703.718	-3.92
703.746	20.08
703.774	-2.92
703.802	18.08
703.83	7.08
703.858	-7.92
703.886	-5.92
703.914	-6.92
703.942	3.08
703.97	-1.92
703.998	5.08
704.027	8.08
704.055	8.08
704.083	-7.92
704.111	-18.92
704.139	2.08
704.167	-8.92
704.195	-1.92
704.223	-6.92
704.251	2.08
704.279	-0.92
704.307	2.08
704.335	-33.92
704.363	9.08
704.391	-11.92
704.419	-11.92
704.447	5.08
704.475	-11.92
704.503	-22.92
704.531	7.08
704.558	9.08
704.586	5.08
704.614	-8.92
704.642	16.08
704.67	-18.92
704.698	-1.92
704.726	15.08
704.754	-1.92
704.782	2.08
704.81	0.08
704.838	27.08
704.866	-2.92
704.894	-15.92
704.922	0.08
704.95	7.08
704.978	2.08
705.006	-13.92
705.034	1.08
705.061	-6.92
705.089	-2.92
705.117	-1.92
705.145	3.08
705.173	13.08
705.201	4.08
705.229	15.08
705.257	3.08
705.285	-12.92
705.313	-1.92
705.34	1.08
705.368	-7.92
705.396	20.08
705.424	-2.92
705.452	-8.92
705.48	-1.92
705.508	-7.92
705.536	9.08
705.563	0.08
705.591	1.08
705.619	-2.92
705.647	-15.92
705.675	10.08
705.703	8.08
705.731	-12.92
705.758	-18.92
705.786	-7.92
705.814	7.08
705.842	9.08
705.87	10.08
705.898	18.08
705.925	-12.92
705.953	4.08
705.981	-1.92
706.009	5.08
706.037	9.08
706.065	-1.92
706.092	-12.92
706.12	-2.92
706.148	-7.92
706.176	-7.92
706.204	15.08
706.231	-2.92
706.259	-10.92
706.287	-6.92
706.315	5.08
706.342	-5.92
706.37	-5.92
706.398	18.08
706.426	-9.92
706.454	-6.92
706.481	8.08
706.509	10.08
706.537	-7.92
706.565	-1.92
706.592	10.08
706.62	-3.92
706.648	10.08
706.676	-16.92
706.703	-5.92
706.731	-7.92
706.759	-3.92
706.787	13.08
706.814	4.08
706.842	3.08
706.87	9.08
706.897	0.08
706.925	3.08
706.953	5.08
706.981	5.08
707.008	0.08
707.036	-7.92
707.064	0.08
707.091	-25.92
707.119	-3.92
707.147	5.08
707.174	1.08
707.202	4.08
707.23	-10.92
707.258	7.08
707.285	-19.92
707.313	-3.92
707.341	-12.92
707.368	-7.92
707.396	0.08
707.424	13.08
707.451	7.08
707.479	14.08
707.507	-12.92
707.534	-6.92
707.562	-2.92
707.59	-3.92
707.617	-18.92
707.645	-2.92
707.672	-4.92
707.7	14.08
707.728	9.08
707.755	-12.92
707.783	-8.92
707.811	4.08
707.838	1.08
707.866	5.08
707.893	4.08
707.921	-0.92
707.949	-2.92
707.976	-1.92
708.004	12.08
708.031	-18.92
708.059	-5.92
708.087	7.08
708.114	-0.92
708.142	-0.92
708.169	-7.92
708.197	-15.92
708.225	19.08
708.252	8.08
708.28	32.08
708.307	13.08
708.335	-0.92
708.362	-5.92
708.39	-14.92
708.418	5.08
708.445	-9.92
708.473	-2.92
708.5	-9.92
708.528	23.08
708.555	9.08
708.583	-10.92
708.61	-0.92
708.638	-1.92
708.665	-12.92
708.693	-6.92
708.72	-6.92
708.748	-12.92
708.776	-6.92
708.803	-5.92
708.831	1.08
708.858	-1.92
708.886	0.08
708.913	8.08
708.941	-5.92
708.968	-0.92
708.996	-14.92
709.023	27.08
709.051	9.08
709.078	5.08
709.105	4.08
709.133	6.08
709.16	13.08
709.188	16.08
709.215	2.08
709.243	-3.92
709.27	1.08
709.298	-2.92
709.325	3.08
709.353	10.08
709.38	-6.92
709.408	7.08
709.435	3.08
709.462	-6.92
709.49	14.08
709.517	9.08
709.545	3.08
709.572	6.08
709.6	-2.92
709.627	13.08
709.655	15.08
709.682	-3.92
709.709	7.08
709.737	1.08
709.764	-18.92
709.792	5.08
709.819	12.08
709.846	-3.92
709.874	-8.92
709.901	8.08
709.929	24.08
709.956	16.08
709.983	-1.92
710.011	-3.92
710.038	-10.92
710.066	13.08
710.093	21.08
710.12	-10.92
710.148	-2.92
710.175	-8.92
710.202	-21.92
710.23	-8.92
710.257	7.08
710.284	3.08
710.312	2.08
710.339	4.08
710.366	-8.92
710.394	-9.92
710.421	8.08
710.448	-2.92
710.476	-25.92
710.503	9.08
710.53	9.08
710.558	11.08
710.585	3.08
710.612	-3.92
710.64	3.08
710.667	0.08
710.694	-10.92
710.722	-3.92
710.749	4.08
710.776	6.08
710.804	7.08
710.831	-3.92
710.858	-16.92
710.885	-7.92
710.913	-1.92
710.94	25.08
710.967	1.08
710.995	16.08
711.022	-6.92
711.049	16.08
711.076	-9.92
711.104	-7.92
711.131	-17.92
711.158	-8.92
711.185	1.08
711.213	-3.92
711.24	-6.92
711.267	2.08
711.294	1.08
711.322	6.08
711.349	-1.92
711.376	-1.92
711.403	-15.92
711.431	-6.92
711.458	9.08
711.485	2.08
711.512	-3.92
711.54	-5.92
711.567	-0.92
711.594	5.08
711.621	7.08
711.648	4.08
711.676	11.08
711.703	4.08
711.73	-8.92
711.757	5.08
711.784	2.08
711.812	1.08
711.839	-13.92
711.866	1.08
711.893	-6.92
711.92	9.08
711.947	16.08
711.975	11.08
712.002	3.08
712.029	16.08
712.056	-1.92
712.083	7.08
712.11	-12.92
712.138	5.08
712.165	6.08
712.192	-3.92
712.219	6.08
712.246	-8.92
712.273	-6.92
712.3	-13.92
712.328	6.08
712.355	7.08
712.382	-10.92
712.409	11.08
712.436	-3.92
712.463	5.08
712.49	12.08
712.517	5.08
712.544	-5.92
712.572	5.08
712.599	11.08
712.626	4.08
712.653	-10.92
712.68	-1.92
712.707	4.08
712.734	7.08
712.761	4.08
712.788	0.08
712.815	-3.92
712.842	8.08
712.87	12.08
712.897	-6.92
712.924	-15.92
712.951	1.08
712.978	17.08
713.005	2.08
713.032	0.08
713.059	2.08
713.086	3.08
713.113	-11.92
713.14	-13.92
713.167	9.08
713.194	23.08
713.221	6.08
713.248	8.08
713.275	11.08
713.302	-2.92
713.329	5.08
713.356	0.08
713.383	-2.92
713.41	1.08
713.437	-17.92
713.464	-7.92
713.491	14.08
713.518	-5.92
713.545	-17.92
713.572	11.08
713.599	20.08
713.626	-4.92
713.653	21.08
713.68	-2.92
713.707	-3.92
713.734	0.08
713.761	-7.92
713.788	0.08
713.815	23.08
713.842	9.08
713.869	-1.92
713.896	-1.92
713.923	17.08
713.95	4.08
713.977	8.08
714.004	-6.92
714.031	-9.92
714.058	8.08
714.085	0.08
714.112	20.08
714.139	0.08
714.165	0.08
714.192	2.08
714.219	8.08
714.246	14.08
714.273	12.08
714.3	-0.92
714.327	-1.92
714.354	22.08
714.381	7.08
714.408	-1.92
714.435	1.08
714.461	3.08
714.488	5.08
714.515	2.08
714.542	9.08
714.569	11.08
714.596	-1.92
714.623	5.08
714.65	-7.92
714.677	3.08
714.703	13.08
714.73	1.08
714.757	-4.92
714.784	9.08
714.811	4.08
714.838	8.08
714.865	1.08
714.891	25.08
714.918	5.08
714.945	-11.92
714.972	-4.92
714.999	8.08
715.026	-9.92
715.052	5.08
715.079	7.08
715.106	4.08
715.133	3.08
715.16	0.08
715.187	5.08
715.213	8.08
715.24	-14.92
715.267	4.08
715.294	11.08
715.321	4.08
715.347	-12.92
715.374	-10.92
715.401	-5.92
715.428	-2.92
715.455	-5.92
715.481	-6.92
715.508	0.08
715.535	30.08
715.562	24.08
715.588	-2.92
715.615	-24.92
715.642	-5.92
715.669	14.08
715.695	-3.92
715.722	-7.92
715.749	-4.92
715.776	19.08
715.802	-3.92
715.829	-0.92
715.856	-11.92
715.883	2.08
715.909	-6.92
715.936	6.08
715.963	-4.92
715.99	-2.92
716.016	-2.92
716.043	8.08
716.07	2.08
716.096	-3.92
716.123	-7.92
716.15	5.08
716.177	13.08
716.203	16.08
716.23	8.08
716.257	6.08
716.283	16.08
716.31	17.08
716.337	-5.92
716.363	1.08
716.39	11.08
716.417	17.08
716.443	0.08
716.47	-0.92
716.497	12.08
716.523	22.08
716.55	13.08
716.577	2.08
716.603	2.08
716.63	10.08
716.657	13.08
716.683	-10.92
716.71	0.08
716.737	-13.92
716.763	-6.92
716.79	10.08
716.817	27.08
716.843	4.08
716.87	-12.92
716.897	8.08
716.923	11.08
716.95	-6.92
716.976	-13.92
717.003	3.08
717.03	-2.92
717.056	-1.92
717.083	-5.92
717.109	5.08
717.136	25.08
717.163	7.08
717.189	0.08
717.216	9.08
717.242	-5.92
717.269	10.08
717.296	5.08
717.322	4.08
717.349	12.08
717.375	7.08
717.402	8.08
717.428	2.08
717.455	18.08
717.481	-9.92
717.508	7.08
717.535	9.08
717.561	7.08
717.588	3.08
717.614	-3.92
717.641	8.08
717.667	-5.92
717.694	4.08
717.72	-2.92
717.747	9.08
717.773	-2.92
717.8	-0.92
717.826	8.08
717.853	-0.92
717.88	21.08
717.906	17.08
717.933	1.08
717.959	0.08
717.986	-6.92
718.012	-9.92
718.039	16.08
718.065	4.08
718.092	-0.92
718.118	-1.92
718.144	-4.92
718.171	22.08
718.197	17.08
718.224	-10.92
718.25	2.08
718.277	6.08
718.303	21.08
718.33	7.08
718.356	-8.92
718.383	-13.92
718.409	-13.92
718.436	-5.92
718.462	-10.92
718.489	-7.92
718.515	7.08
718.541	7.08
718.568	11.08
718.594	11.08
718.621	12.08
718.647	-6.92
718.674	12.08
718.7	-5.92
718.726	-6.92
718.753	-12.92
718.779	-0.92
718.806	0.08
718.832	11.08
718.858	15.08
718.885	2.08
718.911	6.08
718.938	1.08
718.964	-10.92
718.99	-10.92
719.017	5.08
719.043	15.08
719.07	0.08
719.096	-3.92
719.122	-4.92
719.149	4.08
719.175	-6.92
719.201	0.08
719.228	5.08
719.254	-5.92
719.281	0.08
719.307	-13.92
719.333	-7.92
719.36	-1.92
719.386	-2.92
719.412	-8.92
719.439	-4.92
719.465	-5.92
719.491	-2.92
719.518	12.08
719.544	6.08
719.57	10.08
719.597	14.08
719.623	-7.92
719.649	-6.92
719.675	2.08
719.702	9.08
719.728	4.08
719.754	-6.92
719.781	1.08
719.807	-3.92
719.833	2.08
719.86	-4.92
719.886	-11.92
719.912	-6.92
719.938	1.08
719.965	7.08
719.991	23.08
720.017	15.08
720.044	1.08
720.07	-3.92
720.096	7.08
720.122	7.08
720.149	5.08
720.175	28.08
720.201	7.08
720.227	-9.92
720.254	4.08
720.28	-6.92
720.306	-10.92
720.332	-2.92
720.359	4.08
720.385	9.08
720.411	2.08
720.437	4.08
720.463	-13.92
720.49	-6.92
720.516	4.08
720.542	-9.92
720.568	12.08
720.595	12.08
720.621	-2.92
720.647	6.08
720.673	24.08
720.699	0.08
720.725	-5.92
720.752	2.08
720.778	11.08
720.804	13.08
720.83	7.08
720.856	-5.92
720.883	-3.92
720.909	-7.92
720.935	2.08
720.961	4.08
720.987	-2.92
721.013	-3.92
721.04	-10.92
721.066	1.08
721.092	3.08
721.118	17.08
721.144	11.08
721.17	5.08
721.196	-11.92
721.223	-7.92
721.249	-5.92
721.275	14.08
721.301	3.08
721.327	15.08
721.353	9.08
721.379	-7.92
721.405	22.08
721.432	15.08
721.458	-5.92
721.484	-1.92
721.51	-14.92
721.536	-16.92
721.562	-6.92
721.588	-11.92
721.614	-5.92
721.64	-6.92
721.666	9.08
721.693	-2.92
721.719	-2.92
721.745	8.08
721.771	-1.92
721.797	10.08
721.823	1.08
721.849	14.08
721.875	18.08
721.901	-6.92
721.927	0.08
721.953	-7.92
721.979	19.08
722.005	12.08
722.031	4.08
722.057	3.08
722.083	-1.92
722.109	11.08
722.135	6.08
722.161	-2.92
722.187	-10.92
722.214	-7.92
722.24	-6.92
722.266	-11.92
722.292	12.08
722.318	-6.92
722.344	10.08
722.37	21.08
722.396	10.08
722.422	-5.92
722.448	4.08
722.474	-8.92
722.5	19.08
722.526	-1.92
722.552	0.08
722.578	-3.92
722.603	8.08
722.629	-5.92
722.655	18.08
722.681	0.08
722.707	-5.92
722.733	-16.92
722.759	-21.92
722.785	-4.92
722.811	3.08
722.837	4.08
722.863	12.08
722.889	12.08
722.915	-6.92
722.941	-6.92
722.967	7.08
722.993	11.08
723.019	8.08
723.045	13.08
723.071	8.08
723.097	1.08
723.122	13.08
723.148	-7.92
723.174	10.08
723.2	-2.92
723.226	18.08
723.252	4.08
723.278	0.08
723.304	8.08
723.33	-6.92
723.356	-6.92
723.381	-8.92
723.407	-2.92
723.433	-0.92
723.459	-7.92
723.485	-5.92
723.511	11.08
723.537	-14.92
723.563	-7.92
723.588	1.08
723.614	7.08
723.64	-23.92
723.666	-3.92
723.692	4.08
723.718	9.08
723.744	8.08
723.769	-9.92
723.795	1.08
723.821	-12.92
723.847	-12.92
723.873	8.08
723.899	-1.92
723.924	2.08
723.95	-2.92
723.976	-9.92
724.002	1.08
724.028	-6.92
724.053	-2.92
724.079	-15.92
724.105	-12.92
724.131	-10.92
724.157	-2.92
724.182	17.08
724.208	-6.92
724.234	5.08
724.26	-11.92
724.286	1.08
724.311	-1.92
724.337	7.08
724.363	-3.92
724.389	-14.92
724.415	-5.92
724.44	18.08
724.466	6.08
724.492	-3.92
724.518	-6.92
724.543	5.08
724.569	2.08
724.595	16.08
724.621	-4.92
724.646	-3.92
724.672	-9.92
724.698	-1.92
724.723	5.08
724.749	8.08
724.775	3.08
724.801	9.08
724.826	2.08
724.852	2.08
724.878	-9.92
724.904	-26.92
724.929	7.08
724.955	-19.92
724.981	-3.92
725.006	11.08
725.032	9.08
725.058	21.08
725.083	-10.92
725.109	7.08
725.135	-0.92
725.161	3.08
725.186	0.08
725.212	4.08
725.238	20.08
725.263	5.08
725.289	-20.92
725.315	-12.92
725.34	-10.92
725.366	6.08
725.392	-6.92
725.417	-4.92
725.443	0.08
725.468	-6.92
725.494	16.08
725.52	8.08
725.545	3.08
725.571	-2.92
725.597	-6.92
725.622	6.08
725.648	4.08
725.674	9.08
725.699	21.08
725.725	-8.92
725.75	30.08
725.776	-2.92
725.802	8.08
725.827	0.08
725.853	12.08
725.878	-5.92
725.904	-4.92
725.93	2.08
725.955	-3.92
725.981	-10.92
726.006	-10.92
726.032	5.08
726.057	5.08
726.083	-7.92
726.109	-1.92
726.134	-4.92
726.16	-15.92
726.185	3.08
726.211	-10.92
726.236	-2.92
726.262	7.08
726.288	-0.92
726.313	14.08
726.339	0.08
726.364	-8.92
726.39	10.08
726.415	-3.92
726.441	-13.92
726.466	-6.92
726.492	-0.92
726.517	0.08
726.543	-0.92
726.568	-14.92
726.594	-7.92
726.619	-1.92
726.645	4.08
726.67	-1.92
726.696	-0.92
726.721	-8.92
726.747	-4.92
726.772	7.08
726.798	-12.92
726.823	12.08
726.849	-2.92
726.874	10.08
726.9	28.08
726.925	0.08
726.951	-13.92
726.976	5.08
727.002	-12.92
727.027	4.08
727.053	1.08
727.078	-7.92
727.104	18.08
727.129	-19.92
727.155	1.08
727.18	9.08
727.205	7.08
727.231	5.08
727.256	12.08
727.282	4.08
727.307	31.08
727.333	-6.92
727.358	-11.92
727.383	2.08
727.409	-5.92
727.434	-0.92
727.46	-14.92
727.485	-23.92
727.511	0.08
727.536	-8.92
727.561	-13.92
727.587	-6.92
727.612	-10.92
727.637	-0.92
727.663	-3.92
727.688	11.08
727.714	6.08
727.739	-14.92
727.764	-9.92
727.79	4.08
727.815	14.08
727.841	17.08
727.866	5.08
727.891	-4.92
727.917	-13.92
727.942	-19.92
727.967	-10.92
727.993	-14.92
728.018	6.08
728.043	3.08
728.069	3.08
728.094	14.08
728.119	3.08
728.145	19.08
728.17	4.08
728.195	9.08
728.221	12.08
728.246	3.08
728.271	7.08
728.297	1.08
728.322	1.08
728.347	12.08
728.373	9.08
728.398	14.08
728.423	5.08
728.448	6.08
728.474	16.08
728.499	11.08
728.524	-5.92
728.55	-5.92
728.575	4.08
728.6	-6.92
728.625	-14.92
728.651	-18.92
728.676	-14.92
728.701	7.08
728.727	9.08
728.752	-13.92
728.777	-10.92
728.802	15.08
728.828	-2.92
728.853	8.08
728.878	-5.92
728.903	-3.92
728.929	-21.92
728.954	-13.92
728.979	12.08
729.004	-7.92
729.03	-5.92
729.055	1.08
729.08	-2.92
729.105	6.08
729.13	6.08
729.156	9.08
729.181	6.08
729.206	-6.92
729.231	0.08
729.256	10.08
729.282	2.08
729.307	-7.92
729.332	-2.92
729.357	-8.92
729.382	1.08
729.408	-13.92
729.433	8.08
729.458	11.08
729.483	3.08
729.508	21.08
729.533	4.08
729.559	-1.92
729.584	-3.92
729.609	-1.92
729.634	8.08
729.659	0.08
729.684	-4.92
729.71	20.08
729.735	6.08
729.76	2.08
729.785	1.08
729.81	8.08
729.835	-14.92
729.86	1.08
729.886	17.08
729.911	9.08
729.936	10.08
729.961	8.08
729.986	26.08
730.011	65.08
730.036	208.08
730.061	1014.08
730.086	2717.08
730.112	3372.08
730.137	2836.08
730.162	2147.08
730.187	1667.08
730.212	1288.08
730.237	788.08
730.262	462.08
730.287	246.08
730.312	142.08
730.337	66.08
730.362	51.08
730.387	29.08
730.413	9.08
730.438	17.08
730.463	7.08
730.488	5.08
730.513	10.08
730.538	5.08
730.563	14.08
730.588	9.08
730.613	30.08
730.638	5.08
730.663	9.08
730.688	10.08
730.713	7.08
730.738	-3.92
730.763	-6.92
730.788	0.08
730.813	-3.92
730.838	15.08
730.863	-1.92
730.888	1.08
730.913	-5.92
730.938	-2.92
730.963	37.08
730.988	110.08
731.013	395.08
731.038	629.08
731.063	592.08
731.088	450.08
731.113	335.08
731.138	252.08
731.163	190.08
731.188	112.08
731.213	51.08
731.238	53.08
731.263	15.08
731.288	3.08
731.313	7.08
731.338	13.08
731.363	4.08
731.388	-1.92
731.413	0.08
731.438	24.08
731.463	11.08
731.487	13.08
731.512	-3.92
731.537	-14.92
731.562	4.08
731.587	9.08
731.612	-8.92
731.637	-2.92
731.662	-5.92
731.687	-12.92
731.712	-22.92
731.737	7.08
731.762	-13.92
731.786	13.08
731.811	-2.92
731.836	-2.92
731.861	-0.92
731.886	-10.92
731.911	-2.92
731.936	0.08
731.961	-8.92
731.986	9.08
732.01	3.08
732.035	8.08
732.06	8.08
732.085	0.08
732.11	3.08
732.135	-15.92
732.16	-9.92
732.184	-3.92
732.209	10.08
732.234	10.08
732.259	-7.92
732.284	16.08
732.309	-15.92
732.334	-6.92
732.358	-11.92
732.383	-5.92
732.408	9.08
732.433	1.08
732.458	0.08
732.482	-11.92
732.507	-16.92
732.532	-7.92
732.557	17.08
732.582	14.08
732.607	20.08
732.631	45.08
732.656	75.08
732.681	157.08
732.706	350.08
732.73	468.08
732.755	408.08
732.78	301.08
732.805	230.08
732.83	167.08
732.854	127.08
732.879	94.08
732.904	40.08
732.929	9.08
732.953	23.08
732.978	11.08
733.003	3.08
733.028	1.08
733.052	12.08
733.077	-5.92
733.102	14.08
733.127	-7.92
733.151	-2.92
733.176	-3.92
733.201	-5.92
733.226	-15.92
733.25	2.08
733.275	-6.92
733.3	6.08
733.324	11.08
733.349	-5.92
733.374	13.08
733.399	-10.92
733.423	8.08
733.448	2.08
733.473	-3.92
733.497	0.08
733.522	0.08
733.547	23.08
733.571	18.08
733.596	12.08
733.621	9.08
733.646	12.08
733.67	16.08
733.695	-2.92
733.72	-3.92
733.744	5.08
733.769	2.08
733.794	17.08
733.818	4.08
733.843	1.08
733.867	-5.92
733.892	1.08
733.917	-10.92
733.941	1.08
733.966	-0.92
733.991	7.08
734.015	15.08
734.04	21.08
734.065	4.08
734.089	16.08
734.114	-5.92
734.138	19.08
734.163	-9.92
734.188	-2.92
734.212	20.08
734.237	4.08
734.261	12.08
734.286	-0.92
734.311	-2.92
734.335	-3.92
734.36	5.08
734.384	3.08
734.409	-4.92
734.434	1.08
734.458	-4.92
734.483	1.08
734.507	-5.92
734.532	-1.92
734.556	-1.92
734.581	3.08
734.606	-10.92
734.63	-7.92
734.655	18.08
734.679	14.08
734.704	15.08
734.728	6.08
734.753	-8.92
734.777	-1.92
734.802	2.08
734.826	-5.92
734.851	2.08
734.876	10.08
734.9	11.08
734.925	13.08
734.949	6.08
734.974	7.08
734.998	1.08
735.023	-4.92
735.047	0.08
735.072	12.08
735.096	11.08
735.121	-10.92
735.145	-14.92
735.17	-3.92
735.194	-1.92
735.219	-5.92
735.243	0.08
735.268	15.08
735.292	3.08
735.317	2.08
735.341	-1.92
735.365	-7.92
735.39	2.08
735.414	22.08
735.439	-6.92
735.463	0.08
735.488	5.08
735.512	-6.92
735.537	-4.92
735.561	7.08
735.586	5.08
735.61	12.08
735.634	-1.92
735.659	-1.92
735.683	13.08
735.708	-1.92
735.732	-3.92
735.757	-7.92
735.781	5.08
735.805	9.08
735.83	10.08
735.854	-9.92
735.879	-11.92
735.903	20.08
735.927	21.08
735.952	8.08
735.976	-2.92
736.001	0.08
736.025	15.08
736.049	-0.92
736.074	2.08
736.098	12.08
736.123	15.08
736.147	-0.92
736.171	5.08
736.196	2.08
736.22	-9.92
736.244	-0.92
736.269	2.08
736.293	-0.92
736.317	-3.92
736.342	10.08
736.366	16.08
736.39	3.08
736.415	2.08
736.439	7.08
736.463	4.08
736.488	-6.92
736.512	16.08
736.536	17.08
736.561	31.08
736.585	1.08
736.609	11.08
736.634	-8.92
736.658	-10.92
736.682	-2.92
736.707	-9.92
736.731	-5.92
736.755	9.08
736.78	6.08
736.804	8.08
736.828	8.08
736.852	-2.92
736.877	8.08
736.901	-1.92
736.925	0.08
736.949	8.08
736.974	-6.92
736.998	-7.92
737.022	-1.92
737.047	-6.92
737.071	-0.92
737.095	9.08
737.119	16.08
737.144	2.08
737.168	3.08
737.192	2.08
737.216	-1.92
737.241	3.08
737.265	18.08
737.289	-3.92
737.313	14.08
737.337	14.08
737.362	-7.92
737.386	9.08
737.41	-3.92
737.434	-2.92
737.459	-9.92
737.483	2.08
737.507	6.08
737.531	9.08
737.555	2.08
737.58	11.08
737.604	1.08
737.628	-11.92
737.652	-6.92
737.676	5.08
737.701	8.08
737.725	-3.92
737.749	0.08
737.773	-4.92
737.797	-8.92
737.821	-4.92
737.846	0.08
737.87	22.08
737.894	18.08
737.918	-1.92
737.942	-6.92
737.966	-2.92
737.99	15.08
738.015	-1.92
738.039	-23.92
738.063	-13.92
738.087	0.08
738.111	-2.92
738.135	6.08
738.159	-10.92
738.184	-8.92
738.208	10.08
738.232	3.08
738.256	16.08
738.28	18.08
738.304	10.08
738.328	-7.92
738.352	14.08
738.376	0.08
738.4	4.08
738.425	17.08
738.449	-0.92
738.473	16.08
738.497	5.08
738.521	17.08
738.545	4.08
738.569	0.08
738.593	13.08
738.617	20.08
738.641	1.08
738.665	3.08
738.689	8.08
738.713	7.08
738.737	8.08
738.762	23.08
738.786	6.08
738.81	-11.92
738.834	9.08
738.858	5.08
738.882	5.08
738.906	-6.92
738.93	3.08
738.954	8.08
738.978	-1.92
739.002	-5.92
739.026	7.08
739.05	8.08
739.074	-12.92
739.098	17.08
739.122	4.08
739.146	-5.92
739.17	15.08
739.194	-3.92
739.218	-4.92
739.242	-4.92
739.266	0.08
739.29	8.08
739.314	11.08
739.338	-4.92
739.362	2.08
739.386	6.08
739.41	-14.92
739.434	-9.92
739.458	24.08
739.482	28.08
739.506	3.08
739.53	2.08
739.554	0.08
739.577	-0.92
739.601	27.08
739.625	9.08
739.649	14.08
739.673	-7.92
739.697	10.08
739.721	-17.92
739.745	4.08
739.769	3.08
739.793	8.08
739.817	5.08
739.841	0.08
739.865	0.08
739.889	-7.92
739.912	13.08
739.936	-4.92
739.96	10.08
739.984	20.08
740.008	-0.92
740.032	1.08
740.056	3.08
740.08	13.08
740.104	6.08
740.127	13.08
740.151	11.08
740.175	-1.92
740.199	10.08
740.223	38.08
740.247	13.08
740.271	9.08
740.295	-6.92
740.318	-15.92
740.342	-1.92
740.366	19.08
740.39	2.08
740.414	12.08
740.438	-6.92
740.461	0.08
740.485	2.08
740.509	-11.92
740.533	15.08
740.557	-5.92
740.581	6.08
740.604	-2.92
740.628	-0.92
740.652	23.08
740.676	-3.92
740.7	8.08
740.723	-10.92
740.747	0.08
740.771	-15.92
740.795	-7.92
740.819	-3.92
740.842	-8.92
740.866	-4.92
740.89	-7.92
740.914	-9.92
740.938	-8.92
740.961	4.08
740.985	17.08
741.009	1.08
741.033	2.08
741.056	3.08
741.08	-5.92
741.104	5.08
741.128	-9.92
741.151	9.08
741.175	13.08
741.199	15.08
741.223	11.08
741.246	-8.92
741.27	4.08
741.294	-1.92
741.318	-10.92
741.341	4.08
741.365	10.08
741.389	11.08
741.413	12.08
741.436	17.08
741.46	5.08
741.484	9.08
741.507	0.08
741.531	24.08
741.555	18.08
741.579	-0.92
741.602	-1.92
741.626	6.08
741.65	-14.92
741.673	9.08
741.697	10.08
741.721	-6.92
741.744	-10.92
741.768	-8.92
741.792	9.08
741.815	-6.92
741.839	6.08
741.863	12.08
741.886	5.08
741.91	10.08
741.934	6.08
741.957	-5.92
741.981	3.08
742.005	7.08
742.028	-2.92
742.052	-8.92
742.075	2.08
742.099	13.08
742.123	0.08
742.146	-9.92
742.17	-1.92
742.194	-13.92
742.217	-13.92
742.241	2.08
742.264	8.08
742.288	23.08
742.312	13.08
742.335	3.08
742.359	-0.92
742.382	8.08
742.406	12.08
742.43	-16.92
742.453	-3.92
742.477	-7.92
742.5	-22.92
742.524	-9.92
742.548	-11.92
742.571	12.08
742.595	14.08
742.618	-3.92
742.642	2.08
742.665	6.08
742.689	-6.92
742.712	3.08
742.736	1.08
742.76	-2.92
742.783	8.08
742.807	20.08
742.83	2.08
742.854	-9.92
742.877	-0.92
742.901	-10.92
742.924	-5.92
742.948	-1.92
742.971	2.08
742.995	0.08
743.018	-7.92
743.042	7.08
743.065	8.08
743.089	-8.92
743.112	2.08
743.136	-2.92
743.159	-9.92
743.183	-22.92
743.206	-8.92
743.23	3.08
743.253	-1.92
743.277	6.08
743.3	-6.92
743.324	0.08
743.347	11.08
743.371	5.08
743.394	11.08
743.418	10.08
743.441	0.08
743.465	11.08
743.488	16.08
743.512	6.08
743.535	8.08
743.558	1.08
743.582	-2.92
743.605	19.08
743.629	-6.92
743.652	-0.92
743.676	-6.92
743.699	6.08
743.723	11.08
743.746	12.08
743.769	-9.92
743.793	1.08
743.816	-11.92
743.84	9.08
743.863	-0.92
743.886	8.08
743.91	26.08
743.933	14.08
743.957	10.08
743.98	-1.92
744.003	-4.92
744.027	0.08
744.05	-2.92
744.074	10.08
744.097	-10.92
744.12	-3.92
744.144	-1.92
744.167	6.08
744.19	1.08
744.214	-1.92
744.237	-7.92
744.26	29.08
744.284	12.08
744.307	-3.92
744.331	9.08
744.354	1.08
744.377	-17.92
744.401	-2.92
744.424	-7.92
744.447	-13.92
744.471	-3.92
