Data from HighRes_mercury_15_13_11_07_2024_HR4C61891__11__15-14-24-286.txt Node

Date: Thu Nov 07 15:14:24 EST 2024
User: crc00042
Spectrometer: HR4C6189
Trigger mode: 4
Integration Time (sec): 1.000000E-1
Scans to average: 1
Electric dark correction enabled: true
Nonlinearity correction enabled: false
Boxcar width: 0
XAxis mode: Wavelengths
Number of Pixels in Spectrum: 3648
>>>>>Begin Spectral Data<<<<<
639.567	-24.62
639.602	-24.62
639.636	-24.62
639.67	-41.62
639.704	-19.62
639.738	-14.62
639.773	17.38
639.807	-11.62
639.841	-13.62
639.875	27.38
639.909	3.38
639.943	-6.62
639.978	-16.62
640.012	1.38
640.046	20.38
640.08	8.38
640.114	1.38
640.148	-16.62
640.182	3.38
640.217	13.38
640.251	19.38
640.285	12.38
640.319	-11.62
640.353	7.38
640.387	4.38
640.421	-2.62
640.455	7.38
640.49	4.38
640.524	4.38
640.558	14.38
640.592	9.38
640.626	3.38
640.66	12.38
640.694	-6.62
640.728	6.38
640.762	4.38
640.796	21.38
640.83	24.38
640.865	-14.62
640.899	10.38
640.933	2.38
640.967	-2.62
641.001	4.38
641.035	-0.62
641.069	-4.62
641.103	-9.62
641.137	-9.62
641.171	4.38
641.205	32.38
641.239	5.38
641.273	19.38
641.307	9.38
641.341	30.38
641.375	12.38
641.409	13.38
641.443	17.38
641.477	15.38
641.511	0.38
641.545	12.38
641.579	5.38
641.614	10.38
641.648	8.38
641.682	-13.62
641.716	20.38
641.75	13.38
641.784	14.38
641.818	5.38
641.852	4.38
641.886	-4.62
641.919	16.38
641.953	14.38
641.987	-24.62
642.021	-1.62
642.055	16.38
642.089	-1.62
642.123	-12.62
642.157	1.38
642.191	4.38
642.225	-0.62
642.259	-11.62
642.293	6.38
642.327	11.38
642.361	3.38
642.395	16.38
642.429	20.38
642.463	16.38
642.497	26.38
642.531	6.38
642.565	-1.62
642.599	4.38
642.633	-8.62
642.666	20.38
642.7	20.38
642.734	16.38
642.768	0.38
642.802	16.38
642.836	-10.62
642.87	10.38
642.904	13.38
642.938	10.38
642.972	-0.62
643.005	-11.62
643.039	26.38
643.073	2.38
643.107	9.38
643.141	-7.62
643.175	5.38
643.209	-0.62
643.243	-0.62
643.276	15.38
643.31	3.38
643.344	2.38
643.378	15.38
643.412	26.38
643.446	6.38
643.48	8.38
643.513	15.38
643.547	8.38
643.581	1.38
643.615	3.38
643.649	5.38
643.683	3.38
643.716	8.38
643.75	4.38
643.784	-8.62
643.818	11.38
643.852	14.38
643.886	9.38
643.919	17.38
643.953	11.38
643.987	3.38
644.021	13.38
644.055	4.38
644.088	5.38
644.122	-5.62
644.156	-15.62
644.19	0.38
644.224	-10.62
644.257	2.38
644.291	7.38
644.325	6.38
644.359	15.38
644.392	24.38
644.426	8.38
644.46	3.38
644.494	10.38
644.527	-8.62
644.561	6.38
644.595	4.38
644.629	-9.62
644.662	-0.62
644.696	27.38
644.73	13.38
644.764	9.38
644.797	5.38
644.831	10.38
644.865	12.38
644.899	21.38
644.932	29.38
644.966	14.38
645	8.38
645.033	14.38
645.067	-1.62
645.101	11.38
645.135	-3.62
645.168	1.38
645.202	5.38
645.236	7.38
645.269	13.38
645.303	7.38
645.337	-11.62
645.37	2.38
645.404	3.38
645.438	-9.62
645.471	-14.62
645.505	2.38
645.539	9.38
645.572	-13.62
645.606	-3.62
645.64	11.38
645.673	-3.62
645.707	25.38
645.741	-10.62
645.774	-8.62
645.808	22.38
645.842	-13.62
645.875	9.38
645.909	-2.62
645.943	5.38
645.976	5.38
646.01	13.38
646.043	17.38
646.077	17.38
646.111	7.38
646.144	8.38
646.178	8.38
646.212	-9.62
646.245	-9.62
646.279	3.38
646.312	9.38
646.346	22.38
646.38	-5.62
646.413	6.38
646.447	7.38
646.48	-2.62
646.514	12.38
646.547	-9.62
646.581	2.38
646.615	7.38
646.648	6.38
646.682	-12.62
646.715	-10.62
646.749	4.38
646.782	10.38
646.816	12.38
646.85	9.38
646.883	-2.62
646.917	1.38
646.95	-0.62
646.984	13.38
647.017	-3.62
647.051	5.38
647.084	16.38
647.118	-3.62
647.151	9.38
647.185	18.38
647.218	-6.62
647.252	9.38
647.285	-11.62
647.319	-6.62
647.353	3.38
647.386	17.38
647.42	1.38
647.453	8.38
647.487	10.38
647.52	26.38
647.553	8.38
647.587	5.38
647.62	0.38
647.654	-8.62
647.687	11.38
647.721	9.38
647.754	11.38
647.788	-8.62
647.821	5.38
647.855	17.38
647.888	10.38
647.922	14.38
647.955	6.38
647.989	-7.62
648.022	8.38
648.055	11.38
648.089	1.38
648.122	21.38
648.156	11.38
648.189	-0.62
648.223	3.38
648.256	9.38
648.29	11.38
648.323	-1.62
648.356	6.38
648.39	9.38
648.423	10.38
648.457	6.38
648.49	22.38
648.523	7.38
648.557	9.38
648.59	5.38
648.624	-1.62
648.657	5.38
648.69	10.38
648.724	8.38
648.757	8.38
648.791	17.38
648.824	20.38
648.857	16.38
648.891	11.38
648.924	12.38
648.957	20.38
648.991	1.38
649.024	20.38
649.057	-4.62
649.091	-2.62
649.124	17.38
649.158	14.38
649.191	31.38
649.224	17.38
649.258	11.38
649.291	-5.62
649.324	5.38
649.358	2.38
649.391	-6.62
649.424	-1.62
649.458	0.38
649.491	-4.62
649.524	4.38
649.557	6.38
649.591	-20.62
649.624	17.38
649.657	-0.62
649.691	7.38
649.724	-1.62
649.757	12.38
649.791	-4.62
649.824	21.38
649.857	4.38
649.89	-4.62
649.924	-2.62
649.957	14.38
649.99	-1.62
650.023	-3.62
650.057	-2.62
650.09	19.38
650.123	18.38
650.157	18.38
650.19	18.38
650.223	11.38
650.256	-2.62
650.29	-2.62
650.323	-11.62
650.356	3.38
650.389	-7.62
650.423	-7.62
650.456	10.38
650.489	7.38
650.522	13.38
650.555	23.38
650.589	26.38
650.622	5.38
650.655	13.38
650.688	17.38
650.721	-1.62
650.755	-9.62
650.788	15.38
650.821	4.38
650.854	8.38
650.887	1.38
650.921	-4.62
650.954	7.38
650.987	-9.62
651.02	-11.62
651.053	-10.62
651.087	1.38
651.12	26.38
651.153	20.38
651.186	11.38
651.219	19.38
651.252	24.38
651.286	1.38
651.319	-0.62
651.352	5.38
651.385	10.38
651.418	15.38
651.451	26.38
651.484	7.38
651.518	-0.62
651.551	14.38
651.584	6.38
651.617	15.38
651.65	10.38
651.683	20.38
651.716	-6.62
651.749	-4.62
651.783	1.38
651.816	9.38
651.849	11.38
651.882	3.38
651.915	8.38
651.948	15.38
651.981	-8.62
652.014	-15.62
652.047	6.38
652.08	-19.62
652.114	5.38
652.147	7.38
652.18	5.38
652.213	17.38
652.246	-10.62
652.279	2.38
652.312	1.38
652.345	-3.62
652.378	-0.62
652.411	19.38
652.444	20.38
652.477	1.38
652.51	2.38
652.543	-3.62
652.576	12.38
652.609	-10.62
652.642	-7.62
652.675	8.38
652.709	5.38
652.742	5.38
652.775	5.38
652.808	10.38
652.841	-5.62
652.874	21.38
652.907	-0.62
652.94	-10.62
652.973	5.38
653.006	1.38
653.039	9.38
653.072	-5.62
653.105	4.38
653.138	-9.62
653.171	-11.62
653.204	9.38
653.237	5.38
653.27	0.38
653.303	20.38
653.336	5.38
653.368	-1.62
653.401	-2.62
653.434	-4.62
653.467	-5.62
653.5	-4.62
653.533	-2.62
653.566	-10.62
653.599	13.38
653.632	7.38
653.665	15.38
653.698	1.38
653.731	9.38
653.764	11.38
653.797	5.38
653.83	16.38
653.863	-2.62
653.896	-0.62
653.929	2.38
653.961	5.38
653.994	1.38
654.027	-7.62
654.06	10.38
654.093	4.38
654.126	10.38
654.159	-4.62
654.192	15.38
654.225	3.38
654.258	4.38
654.29	6.38
654.323	-0.62
654.356	1.38
654.389	17.38
654.422	11.38
654.455	16.38
654.488	6.38
654.521	-17.62
654.553	-3.62
654.586	10.38
654.619	7.38
654.652	5.38
654.685	7.38
654.718	5.38
654.751	14.38
654.783	-7.62
654.816	18.38
654.849	15.38
654.882	8.38
654.915	-10.62
654.948	-4.62
654.98	-12.62
655.013	-7.62
655.046	-0.62
655.079	2.38
655.112	34.38
655.144	-9.62
655.177	21.38
655.21	18.38
655.243	4.38
655.276	9.38
655.308	-2.62
655.341	-7.62
655.374	11.38
655.407	4.38
655.44	-4.62
655.472	-3.62
655.505	-15.62
655.538	-0.62
655.571	11.38
655.603	-1.62
655.636	-8.62
655.669	16.38
655.702	19.38
655.734	-18.62
655.767	-6.62
655.8	-0.62
655.833	13.38
655.865	10.38
655.898	20.38
655.931	5.38
655.964	9.38
655.996	11.38
656.029	-3.62
656.062	4.38
656.095	1.38
656.127	-14.62
656.16	-5.62
656.193	2.38
656.225	17.38
656.258	13.38
656.291	5.38
656.324	13.38
656.356	29.38
656.389	14.38
656.422	20.38
656.454	-3.62
656.487	6.38
656.52	6.38
656.552	11.38
656.585	14.38
656.618	10.38
656.65	9.38
656.683	-12.62
656.716	-5.62
656.748	7.38
656.781	4.38
656.814	-7.62
656.846	-0.62
656.879	-1.62
656.912	12.38
656.944	11.38
656.977	-4.62
657.01	3.38
657.042	21.38
657.075	8.38
657.108	9.38
657.14	23.38
657.173	15.38
657.205	38.38
657.238	9.38
657.271	14.38
657.303	-1.62
657.336	-0.62
657.369	18.38
657.401	22.38
657.434	10.38
657.466	17.38
657.499	7.38
657.532	8.38
657.564	2.38
657.597	-5.62
657.629	9.38
657.662	11.38
657.694	5.38
657.727	-3.62
657.76	10.38
657.792	7.38
657.825	-2.62
657.857	-10.62
657.89	5.38
657.922	31.38
657.955	-3.62
657.987	14.38
658.02	6.38
658.053	16.38
658.085	13.38
658.118	11.38
658.15	16.38
658.183	8.38
658.215	9.38
658.248	1.38
658.28	-2.62
658.313	2.38
658.345	17.38
658.378	8.38
658.41	5.38
658.443	18.38
658.475	17.38
658.508	8.38
658.54	-5.62
658.573	-14.62
658.605	9.38
658.638	3.38
658.67	-3.62
658.703	-4.62
658.735	-0.62
658.768	0.38
658.8	-6.62
658.833	10.38
658.865	-4.62
658.898	2.38
658.93	2.38
658.963	2.38
658.995	-17.62
659.028	1.38
659.06	3.38
659.092	5.38
659.125	3.38
659.157	17.38
659.19	7.38
659.222	-7.62
659.255	2.38
659.287	-10.62
659.32	10.38
659.352	5.38
659.384	8.38
659.417	-12.62
659.449	0.38
659.482	15.38
659.514	-2.62
659.546	-1.62
659.579	3.38
659.611	5.38
659.644	-5.62
659.676	-1.62
659.708	-3.62
659.741	7.38
659.773	31.38
659.806	6.38
659.838	-6.62
659.87	0.38
659.903	6.38
659.935	20.38
659.967	13.38
660	11.38
660.032	-3.62
660.065	9.38
660.097	2.38
660.129	-2.62
660.162	-12.62
660.194	8.38
660.226	1.38
660.259	20.38
660.291	-7.62
660.323	0.38
660.356	8.38
660.388	-0.62
660.42	4.38
660.453	8.38
660.485	8.38
660.517	29.38
660.55	26.38
660.582	3.38
660.614	20.38
660.647	12.38
660.679	-15.62
660.711	7.38
660.743	0.38
660.776	6.38
660.808	0.38
660.84	-1.62
660.873	2.38
660.905	8.38
660.937	6.38
660.969	8.38
661.002	4.38
661.034	-1.62
661.066	-4.62
661.099	10.38
661.131	12.38
661.163	12.38
661.195	-12.62
661.228	10.38
661.26	-5.62
661.292	14.38
661.324	30.38
661.357	1.38
661.389	16.38
661.421	13.38
661.453	5.38
661.485	1.38
661.518	0.38
661.55	-15.62
661.582	-3.62
661.614	3.38
661.647	1.38
661.679	4.38
661.711	11.38
661.743	2.38
661.775	6.38
661.808	12.38
661.84	0.38
661.872	7.38
661.904	-0.62
661.936	1.38
661.969	-17.62
662.001	7.38
662.033	5.38
662.065	1.38
662.097	11.38
662.129	7.38
662.162	8.38
662.194	0.38
662.226	-4.62
662.258	21.38
662.29	11.38
662.322	-9.62
662.355	-5.62
662.387	28.38
662.419	11.38
662.451	14.38
662.483	10.38
662.515	-8.62
662.547	-6.62
662.58	-15.62
662.612	-5.62
662.644	-14.62
662.676	14.38
662.708	17.38
662.74	10.38
662.772	9.38
662.804	2.38
662.836	6.38
662.869	-9.62
662.901	18.38
662.933	-5.62
662.965	19.38
662.997	5.38
663.029	-8.62
663.061	-5.62
663.093	2.38
663.125	6.38
663.157	5.38
663.189	9.38
663.221	29.38
663.254	-16.62
663.286	6.38
663.318	-3.62
663.35	-9.62
663.382	-5.62
663.414	12.38
663.446	14.38
663.478	-3.62
663.51	37.38
663.542	8.38
663.574	2.38
663.606	1.38
663.638	-0.62
663.67	0.38
663.702	0.38
663.734	11.38
663.766	11.38
663.798	10.38
663.83	2.38
663.862	4.38
663.894	0.38
663.926	7.38
663.958	11.38
663.99	3.38
664.022	1.38
664.054	12.38
664.086	-5.62
664.118	-11.62
664.15	-27.62
664.182	8.38
664.214	11.38
664.246	25.38
664.278	4.38
664.31	14.38
664.342	7.38
664.374	-2.62
664.406	14.38
664.438	19.38
664.47	10.38
664.502	5.38
664.534	1.38
664.566	-12.62
664.598	11.38
664.63	-18.62
664.662	13.38
664.693	-2.62
664.725	1.38
664.757	2.38
664.789	0.38
664.821	5.38
664.853	0.38
664.885	13.38
664.917	13.38
664.949	32.38
664.981	21.38
665.013	21.38
665.045	4.38
665.076	11.38
665.108	3.38
665.14	-0.62
665.172	1.38
665.204	-14.62
665.236	-2.62
665.268	14.38
665.3	-0.62
665.331	-5.62
665.363	5.38
665.395	2.38
665.427	-3.62
665.459	7.38
665.491	12.38
665.523	-10.62
665.555	6.38
665.586	-5.62
665.618	13.38
665.65	-13.62
665.682	1.38
665.714	3.38
665.746	-2.62
665.777	5.38
665.809	-6.62
665.841	6.38
665.873	4.38
665.905	7.38
665.937	12.38
665.968	15.38
666	-4.62
666.032	6.38
666.064	-6.62
666.096	1.38
666.127	12.38
666.159	9.38
666.191	15.38
666.223	16.38
666.255	3.38
666.286	1.38
666.318	8.38
666.35	20.38
666.382	12.38
666.413	4.38
666.445	-9.62
666.477	-4.62
666.509	-15.62
666.54	-0.62
666.572	1.38
666.604	6.38
666.636	0.38
666.667	9.38
666.699	11.38
666.731	13.38
666.763	-3.62
666.794	3.38
666.826	-4.62
666.858	-1.62
666.89	16.38
666.921	5.38
666.953	1.38
666.985	7.38
667.017	26.38
667.048	1.38
667.08	-3.62
667.112	10.38
667.143	-4.62
667.175	-3.62
667.207	1.38
667.238	3.38
667.27	4.38
667.302	-2.62
667.334	6.38
667.365	13.38
667.397	8.38
667.429	-1.62
667.46	7.38
667.492	11.38
667.524	10.38
667.555	-1.62
667.587	8.38
667.619	-4.62
667.65	-6.62
667.682	-6.62
667.714	13.38
667.745	10.38
667.777	4.38
667.808	5.38
667.84	2.38
667.872	3.38
667.903	29.38
667.935	9.38
667.967	5.38
667.998	11.38
668.03	4.38
668.061	1.38
668.093	6.38
668.125	15.38
668.156	9.38
668.188	9.38
668.22	0.38
668.251	5.38
668.283	11.38
668.314	14.38
668.346	0.38
668.377	13.38
668.409	5.38
668.441	23.38
668.472	13.38
668.504	10.38
668.535	11.38
668.567	29.38
668.599	16.38
668.63	-3.62
668.662	2.38
668.693	11.38
668.725	-0.62
668.756	7.38
668.788	8.38
668.819	5.38
668.851	13.38
668.882	12.38
668.914	12.38
668.946	13.38
668.977	-12.62
669.009	-1.62
669.04	-3.62
669.072	27.38
669.103	9.38
669.135	5.38
669.166	5.38
669.198	12.38
669.229	-7.62
669.261	-14.62
669.292	12.38
669.324	-6.62
669.355	3.38
669.387	-8.62
669.418	7.38
669.45	-14.62
669.481	5.38
669.513	4.38
669.544	4.38
669.576	3.38
669.607	33.38
669.639	28.38
669.67	7.38
669.701	12.38
669.733	-11.62
669.764	14.38
669.796	6.38
669.827	5.38
669.859	10.38
669.89	10.38
669.922	14.38
669.953	6.38
669.985	11.38
670.016	11.38
670.047	-5.62
670.079	7.38
670.11	-2.62
670.142	-5.62
670.173	5.38
670.204	8.38
670.236	-2.62
670.267	-10.62
670.299	9.38
670.33	15.38
670.362	-1.62
670.393	-6.62
670.424	-0.62
670.456	-2.62
670.487	-3.62
670.518	-8.62
670.55	-5.62
670.581	2.38
670.613	7.38
670.644	-3.62
670.675	-9.62
670.707	3.38
670.738	5.38
670.769	5.38
670.801	-9.62
670.832	16.38
670.864	-10.62
670.895	-13.62
670.926	11.38
670.958	14.38
670.989	6.38
671.02	-4.62
671.052	-9.62
671.083	0.38
671.114	8.38
671.146	5.38
671.177	4.38
671.208	-8.62
671.24	-4.62
671.271	-1.62
671.302	9.38
671.333	9.38
671.365	-0.62
671.396	-4.62
671.427	3.38
671.459	12.38
671.49	4.38
671.521	7.38
671.553	-5.62
671.584	3.38
671.615	5.38
671.646	21.38
671.678	10.38
671.709	-11.62
671.74	-6.62
671.771	5.38
671.803	1.38
671.834	3.38
671.865	4.38
671.896	11.38
671.928	-2.62
671.959	1.38
671.99	-8.62
672.021	1.38
672.053	-3.62
672.084	10.38
672.115	1.38
672.146	1.38
672.178	5.38
672.209	-4.62
672.24	-7.62
672.271	17.38
672.303	16.38
672.334	-8.62
672.365	-6.62
672.396	-1.62
672.427	3.38
672.459	16.38
672.49	15.38
672.521	4.38
672.552	8.38
672.583	4.38
672.615	5.38
672.646	-2.62
672.677	5.38
672.708	1.38
672.739	-1.62
672.77	24.38
672.802	8.38
672.833	-3.62
672.864	8.38
672.895	3.38
672.926	-6.62
672.957	-2.62
672.989	-1.62
673.02	22.38
673.051	-3.62
673.082	8.38
673.113	2.38
673.144	7.38
673.175	6.38
673.206	-6.62
673.238	8.38
673.269	-4.62
673.3	-6.62
673.331	8.38
673.362	-8.62
673.393	11.38
673.424	11.38
673.455	11.38
673.487	13.38
673.518	2.38
673.549	0.38
673.58	-13.62
673.611	10.38
673.642	8.38
673.673	-14.62
673.704	-0.62
673.735	3.38
673.766	-5.62
673.797	2.38
673.828	10.38
673.86	2.38
673.891	-1.62
673.922	-1.62
673.953	13.38
673.984	12.38
674.015	16.38
674.046	-3.62
674.077	0.38
674.108	-7.62
674.139	-7.62
674.17	-8.62
674.201	3.38
674.232	11.38
674.263	5.38
674.294	-4.62
674.325	-5.62
674.356	6.38
674.387	29.38
674.418	7.38
674.449	3.38
674.48	-7.62
674.511	4.38
674.542	5.38
674.573	6.38
674.604	22.38
674.635	5.38
674.666	11.38
674.697	-0.62
674.728	4.38
674.759	-5.62
674.79	2.38
674.821	-3.62
674.852	5.38
674.883	4.38
674.914	9.38
674.945	17.38
674.976	16.38
675.007	0.38
675.038	5.38
675.069	-12.62
675.1	-16.62
675.131	10.38
675.162	-5.62
675.193	-4.62
675.224	1.38
675.254	13.38
675.285	15.38
675.316	18.38
675.347	12.38
675.378	-6.62
675.409	-1.62
675.44	6.38
675.471	9.38
675.502	-0.62
675.533	4.38
675.564	-1.62
675.595	0.38
675.625	28.38
675.656	9.38
675.687	0.38
675.718	0.38
675.749	17.38
675.78	12.38
675.811	-4.62
675.842	3.38
675.873	1.38
675.903	5.38
675.934	-4.62
675.965	-12.62
675.996	-3.62
676.027	14.38
676.058	7.38
676.089	5.38
676.119	5.38
676.15	0.38
676.181	-3.62
676.212	-5.62
676.243	5.38
676.274	6.38
676.304	33.38
676.335	-3.62
676.366	1.38
676.397	-0.62
676.428	-1.62
676.459	21.38
676.489	10.38
676.52	20.38
676.551	8.38
676.582	-9.62
676.613	3.38
676.643	-3.62
676.674	15.38
676.705	-7.62
676.736	12.38
676.767	17.38
676.797	14.38
676.828	9.38
676.859	-6.62
676.89	7.38
676.92	1.38
676.951	5.38
676.982	9.38
677.013	22.38
677.044	32.38
677.074	42.38
677.105	11.38
677.136	10.38
677.167	15.38
677.197	23.38
677.228	-1.62
677.259	-6.62
677.289	-7.62
677.32	-10.62
677.351	-9.62
677.382	4.38
677.412	-10.62
677.443	8.38
677.474	1.38
677.505	-9.62
677.535	15.38
677.566	5.38
677.597	0.38
677.627	-3.62
677.658	6.38
677.689	5.38
677.72	-2.62
677.75	-4.62
677.781	10.38
677.812	21.38
677.842	10.38
677.873	7.38
677.904	8.38
677.934	-1.62
677.965	7.38
677.996	-15.62
678.026	-10.62
678.057	2.38
678.088	-9.62
678.118	1.38
678.149	0.38
678.18	-3.62
678.21	1.38
678.241	6.38
678.272	4.38
678.302	15.38
678.333	5.38
678.363	14.38
678.394	20.38
678.425	4.38
678.455	11.38
678.486	8.38
678.517	7.38
678.547	4.38
678.578	2.38
678.608	-17.62
678.639	5.38
678.67	-4.62
678.7	-10.62
678.731	0.38
678.761	4.38
678.792	5.38
678.823	9.38
678.853	8.38
678.884	-14.62
678.914	6.38
678.945	9.38
678.975	-3.62
679.006	17.38
679.037	11.38
679.067	28.38
679.098	0.38
679.128	4.38
679.159	-7.62
679.189	12.38
679.22	-23.62
679.25	14.38
679.281	6.38
679.312	6.38
679.342	19.38
679.373	40.38
679.403	10.38
679.434	7.38
679.464	10.38
679.495	2.38
679.525	18.38
679.556	4.38
679.586	16.38
679.617	5.38
679.647	4.38
679.678	-4.62
679.708	6.38
679.739	3.38
679.769	17.38
679.8	2.38
679.83	12.38
679.861	7.38
679.891	-10.62
679.922	-17.62
679.952	13.38
679.983	25.38
680.013	31.38
680.044	-5.62
680.074	18.38
680.105	19.38
680.135	8.38
680.165	15.38
680.196	8.38
680.226	11.38
680.257	13.38
680.287	11.38
680.318	10.38
680.348	-7.62
680.379	21.38
680.409	13.38
680.439	13.38
680.47	-1.62
680.5	-3.62
680.531	-3.62
680.561	17.38
680.592	9.38
680.622	19.38
680.652	9.38
680.683	6.38
680.713	-2.62
680.744	-1.62
680.774	3.38
680.804	13.38
680.835	-3.62
680.865	-1.62
680.896	23.38
680.926	10.38
680.956	9.38
680.987	9.38
681.017	3.38
681.047	0.38
681.078	0.38
681.108	6.38
681.139	7.38
681.169	-4.62
681.199	6.38
681.23	9.38
681.26	16.38
681.29	34.38
681.321	5.38
681.351	6.38
681.381	-13.62
681.412	1.38
681.442	10.38
681.472	19.38
681.503	15.38
681.533	13.38
681.563	-5.62
681.594	-2.62
681.624	-1.62
681.654	7.38
681.685	20.38
681.715	-7.62
681.745	10.38
681.775	3.38
681.806	0.38
681.836	-3.62
681.866	-6.62
681.897	11.38
681.927	0.38
681.957	-8.62
681.987	7.38
682.018	5.38
682.048	19.38
682.078	12.38
682.109	16.38
682.139	10.38
682.169	5.38
682.199	-0.62
682.23	-2.62
682.26	9.38
682.29	-7.62
682.32	3.38
682.351	7.38
682.381	-1.62
682.411	7.38
682.441	-1.62
682.472	-10.62
682.502	1.38
682.532	9.38
682.562	18.38
682.592	9.38
682.623	16.38
682.653	19.38
682.683	-3.62
682.713	14.38
682.743	18.38
682.774	1.38
682.804	5.38
682.834	32.38
682.864	2.38
682.894	0.38
682.925	-12.62
682.955	5.38
682.985	10.38
683.015	14.38
683.045	19.38
683.076	6.38
683.106	3.38
683.136	1.38
683.166	-7.62
683.196	2.38
683.226	-6.62
683.257	-10.62
683.287	4.38
683.317	12.38
683.347	-8.62
683.377	-0.62
683.407	14.38
683.437	24.38
683.468	6.38
683.498	-2.62
683.528	6.38
683.558	6.38
683.588	-3.62
683.618	5.38
683.648	14.38
683.678	13.38
683.708	29.38
683.739	14.38
683.769	12.38
683.799	6.38
683.829	4.38
683.859	2.38
683.889	12.38
683.919	3.38
683.949	24.38
683.979	4.38
684.009	13.38
684.039	12.38
684.07	1.38
684.1	10.38
684.13	-1.62
684.16	7.38
684.19	2.38
684.22	-1.62
684.25	2.38
684.28	9.38
684.31	-1.62
684.34	17.38
684.37	9.38
684.4	21.38
684.43	8.38
684.46	2.38
684.49	13.38
684.52	10.38
684.55	7.38
684.58	-8.62
684.61	5.38
684.64	15.38
684.67	14.38
684.7	4.38
684.73	4.38
684.76	4.38
684.79	31.38
684.82	7.38
684.85	-8.62
684.88	28.38
684.91	8.38
684.94	4.38
684.97	-1.62
685	4.38
685.03	-10.62
685.06	-2.62
685.09	4.38
685.12	33.38
685.15	-9.62
685.18	5.38
685.21	11.38
685.24	18.38
685.27	21.38
685.3	-0.62
685.33	8.38
685.36	-4.62
685.39	-10.62
685.42	-13.62
685.45	7.38
685.48	3.38
685.51	1.38
685.54	23.38
685.569	13.38
685.599	-1.62
685.629	-2.62
685.659	-7.62
685.689	-12.62
685.719	-6.62
685.749	7.38
685.779	25.38
685.809	16.38
685.839	25.38
685.869	10.38
685.898	17.38
685.928	11.38
685.958	15.38
685.988	27.38
686.018	6.38
686.048	11.38
686.078	21.38
686.108	23.38
686.137	11.38
686.167	26.38
686.197	-2.62
686.227	5.38
686.257	19.38
686.287	4.38
686.317	7.38
686.346	-9.62
686.376	2.38
686.406	-7.62
686.436	2.38
686.466	-11.62
686.496	3.38
686.525	9.38
686.555	13.38
686.585	25.38
686.615	19.38
686.645	7.38
686.675	8.38
686.704	19.38
686.734	9.38
686.764	4.38
686.794	17.38
686.824	-1.62
686.853	10.38
686.883	15.38
686.913	25.38
686.943	21.38
686.973	-4.62
687.002	-3.62
687.032	5.38
687.062	-1.62
687.092	12.38
687.121	1.38
687.151	21.38
687.181	-3.62
687.211	-1.62
687.24	13.38
687.27	12.38
687.3	10.38
687.33	12.38
687.359	-2.62
687.389	26.38
687.419	25.38
687.449	4.38
687.478	19.38
687.508	3.38
687.538	-3.62
687.568	7.38
687.597	-2.62
687.627	9.38
687.657	10.38
687.686	13.38
687.716	23.38
687.746	-6.62
687.776	-9.62
687.805	24.38
687.835	9.38
687.865	25.38
687.894	11.38
687.924	6.38
687.954	11.38
687.983	11.38
688.013	16.38
688.043	12.38
688.072	6.38
688.102	25.38
688.132	7.38
688.161	6.38
688.191	-6.62
688.221	8.38
688.25	-19.62
688.28	-6.62
688.31	22.38
688.339	5.38
688.369	-0.62
688.399	1.38
688.428	3.38
688.458	7.38
688.488	1.38
688.517	4.38
688.547	-2.62
688.576	44.38
688.606	27.38
688.636	1.38
688.665	4.38
688.695	4.38
688.725	4.38
688.754	1.38
688.784	-3.62
688.813	23.38
688.843	2.38
688.873	1.38
688.902	0.38
688.932	17.38
688.961	5.38
688.991	15.38
689.02	8.38
689.05	4.38
689.08	23.38
689.109	17.38
689.139	-3.62
689.168	13.38
689.198	4.38
689.227	-6.62
689.257	6.38
689.287	10.38
689.316	20.38
689.346	-9.62
689.375	-2.62
689.405	13.38
689.434	-6.62
689.464	-0.62
689.493	4.38
689.523	-4.62
689.552	-5.62
689.582	4.38
689.611	3.38
689.641	15.38
689.67	9.38
689.7	22.38
689.73	13.38
689.759	5.38
689.789	19.38
689.818	-2.62
689.848	20.38
689.877	30.38
689.906	9.38
689.936	15.38
689.965	30.38
689.995	3.38
690.024	14.38
690.054	10.38
690.083	22.38
690.113	3.38
690.142	-8.62
690.172	24.38
690.201	17.38
690.231	12.38
690.26	6.38
690.29	10.38
690.319	13.38
690.348	23.38
690.378	15.38
690.407	10.38
690.437	3.38
690.466	15.38
690.496	19.38
690.525	12.38
690.555	-9.62
690.584	4.38
690.613	6.38
690.643	13.38
690.672	10.38
690.702	13.38
690.731	12.38
690.76	16.38
690.79	65.38
690.819	45.38
690.849	40.38
690.878	38.38
690.907	35.38
690.937	34.38
690.966	23.38
690.996	9.38
691.025	2.38
691.054	12.38
691.084	0.38
691.113	6.38
691.142	6.38
691.172	4.38
691.201	11.38
691.23	-1.62
691.26	2.38
691.289	5.38
691.319	-9.62
691.348	12.38
691.377	20.38
691.407	14.38
691.436	13.38
691.465	8.38
691.495	6.38
691.524	6.38
691.553	-2.62
691.583	-12.62
691.612	9.38
691.641	4.38
691.67	5.38
691.7	1.38
691.729	-6.62
691.758	10.38
691.788	15.38
691.817	1.38
691.846	7.38
691.876	1.38
691.905	-3.62
691.934	-0.62
691.963	12.38
691.993	5.38
692.022	3.38
692.051	0.38
692.081	19.38
692.11	19.38
692.139	7.38
692.168	12.38
692.198	17.38
692.227	14.38
692.256	6.38
692.285	2.38
692.315	6.38
692.344	5.38
692.373	27.38
692.402	1.38
692.432	0.38
692.461	15.38
692.49	13.38
692.519	0.38
692.548	14.38
692.578	10.38
692.607	-2.62
692.636	0.38
692.665	21.38
692.694	12.38
692.724	3.38
692.753	18.38
692.782	18.38
692.811	-4.62
692.84	-11.62
692.87	13.38
692.899	6.38
692.928	14.38
692.957	25.38
692.986	7.38
693.016	1.38
693.045	6.38
693.074	-3.62
693.103	5.38
693.132	11.38
693.161	-2.62
693.191	-3.62
693.22	3.38
693.249	13.38
693.278	5.38
693.307	11.38
693.336	-8.62
693.365	-3.62
693.395	-5.62
693.424	6.38
693.453	16.38
693.482	-4.62
693.511	17.38
693.54	6.38
693.569	7.38
693.598	7.38
693.628	3.38
693.657	7.38
693.686	19.38
693.715	15.38
693.744	8.38
693.773	12.38
693.802	13.38
693.831	9.38
693.86	27.38
693.889	12.38
693.919	5.38
693.948	5.38
693.977	13.38
694.006	10.38
694.035	1.38
694.064	-3.62
694.093	2.38
694.122	8.38
694.151	10.38
694.18	22.38
694.209	21.38
694.238	-4.62
694.267	21.38
694.296	18.38
694.325	14.38
694.354	15.38
694.383	15.38
694.412	0.38
694.441	-12.62
694.471	4.38
694.5	-5.62
694.529	-2.62
694.558	24.38
694.587	16.38
694.616	-1.62
694.645	-4.62
694.674	18.38
694.703	26.38
694.732	7.38
694.761	12.38
694.79	14.38
694.819	4.38
694.848	1.38
694.877	3.38
694.906	24.38
694.935	9.38
694.963	22.38
694.992	5.38
695.021	8.38
695.05	14.38
695.079	-8.62
695.108	-1.62
695.137	34.38
695.166	15.38
695.195	2.38
695.224	10.38
695.253	1.38
695.282	6.38
695.311	-1.62
695.34	-3.62
695.369	24.38
695.398	15.38
695.427	25.38
695.456	9.38
695.485	2.38
695.513	4.38
695.542	4.38
695.571	0.38
695.6	15.38
695.629	21.38
695.658	21.38
695.687	20.38
695.716	5.38
695.745	27.38
695.774	-7.62
695.802	3.38
695.831	8.38
695.86	19.38
695.889	17.38
695.918	29.38
695.947	-4.62
695.976	14.38
696.005	20.38
696.033	14.38
696.062	21.38
696.091	1.38
696.12	-10.62
696.149	11.38
696.178	5.38
696.207	12.38
696.235	2.38
696.264	12.38
696.293	19.38
696.322	25.38
696.351	23.38
696.38	1.38
696.408	10.38
696.437	8.38
696.466	11.38
696.495	20.38
696.524	13.38
696.553	9.38
696.581	19.38
696.61	5.38
696.639	9.38
696.668	15.38
696.697	-2.62
696.725	23.38
696.754	9.38
696.783	6.38
696.812	1.38
696.84	12.38
696.869	-2.62
696.898	1.38
696.927	5.38
696.956	25.38
696.984	10.38
697.013	10.38
697.042	8.38
697.071	14.38
697.099	16.38
697.128	21.38
697.157	-3.62
697.186	4.38
697.214	-3.62
697.243	-9.62
697.272	-5.62
697.301	6.38
697.329	26.38
697.358	1.38
697.387	24.38
697.415	28.38
697.444	11.38
697.473	4.38
697.502	-15.62
697.53	21.38
697.559	8.38
697.588	12.38
697.616	9.38
697.645	-0.62
697.674	19.38
697.703	-5.62
697.731	21.38
697.76	14.38
697.789	-0.62
697.817	16.38
697.846	7.38
697.875	8.38
697.903	10.38
697.932	18.38
697.961	-5.62
697.989	-0.62
698.018	14.38
698.047	14.38
698.075	22.38
698.104	-2.62
698.133	6.38
698.161	0.38
698.19	22.38
698.218	10.38
698.247	22.38
698.276	5.38
698.304	30.38
698.333	9.38
698.362	11.38
698.39	19.38
698.419	16.38
698.447	-5.62
698.476	-10.62
698.505	18.38
698.533	10.38
698.562	7.38
698.591	1.38
698.619	-1.62
698.648	6.38
698.676	9.38
698.705	4.38
698.733	-10.62
698.762	1.38
698.791	-1.62
698.819	4.38
698.848	2.38
698.876	4.38
698.905	13.38
698.933	6.38
698.962	-5.62
698.991	8.38
699.019	34.38
699.048	15.38
699.076	13.38
699.105	0.38
699.133	8.38
699.162	12.38
699.19	18.38
699.219	11.38
699.248	-1.62
699.276	-10.62
699.305	4.38
699.333	10.38
699.362	2.38
699.39	16.38
699.419	-3.62
699.447	10.38
699.476	9.38
699.504	-4.62
699.533	10.38
699.561	-2.62
699.59	5.38
699.618	13.38
699.647	20.38
699.675	24.38
699.704	8.38
699.732	11.38
699.761	7.38
699.789	4.38
699.818	11.38
699.846	5.38
699.874	-7.62
699.903	1.38
699.931	1.38
699.96	20.38
699.988	12.38
700.017	3.38
700.045	5.38
700.074	5.38
700.102	-1.62
700.13	1.38
700.159	1.38
700.187	25.38
700.216	4.38
700.244	-15.62
700.273	4.38
700.301	-2.62
700.329	3.38
700.358	22.38
700.386	8.38
700.415	-2.62
700.443	0.38
700.472	7.38
700.5	10.38
700.528	15.38
700.557	-11.62
700.585	-5.62
700.614	11.38
700.642	10.38
700.67	4.38
700.699	20.38
700.727	18.38
700.755	18.38
700.784	-0.62
700.812	-0.62
700.841	18.38
700.869	-2.62
700.897	-18.62
700.926	-2.62
700.954	13.38
700.982	15.38
701.011	3.38
701.039	7.38
701.067	5.38
701.096	10.38
701.124	-11.62
701.152	1.38
701.181	4.38
701.209	1.38
701.237	6.38
701.266	-3.62
701.294	9.38
701.322	3.38
701.351	7.38
701.379	-1.62
701.407	-11.62
701.435	10.38
701.464	10.38
701.492	19.38
701.52	11.38
701.549	25.38
701.577	11.38
701.605	7.38
701.634	4.38
701.662	12.38
701.69	-9.62
701.718	3.38
701.747	17.38
701.775	-1.62
701.803	-2.62
701.831	13.38
701.86	-7.62
701.888	19.38
701.916	20.38
701.944	13.38
701.973	-1.62
702.001	-6.62
702.029	-1.62
702.057	-13.62
702.086	-3.62
702.114	-6.62
702.142	-11.62
702.17	-1.62
702.199	-0.62
702.227	-5.62
702.255	-8.62
702.283	-4.62
702.311	17.38
702.34	-1.62
702.368	-8.62
702.396	12.38
702.424	4.38
702.452	5.38
702.481	2.38
702.509	1.38
702.537	14.38
702.565	17.38
702.593	-10.62
702.621	16.38
702.65	12.38
702.678	14.38
702.706	23.38
702.734	-0.62
702.762	12.38
702.79	-0.62
702.819	11.38
702.847	3.38
702.875	7.38
702.903	12.38
702.931	7.38
702.959	5.38
702.988	6.38
703.016	-5.62
703.044	-7.62
703.072	4.38
703.1	6.38
703.128	20.38
703.156	3.38
703.184	-11.62
703.212	10.38
703.241	3.38
703.269	4.38
703.297	-1.62
703.325	20.38
703.353	-7.62
703.381	-7.62
703.409	7.38
703.437	0.38
703.465	21.38
703.493	1.38
703.522	12.38
703.55	18.38
703.578	9.38
703.606	-2.62
703.634	-5.62
703.662	-7.62
703.69	-15.62
703.718	7.38
703.746	28.38
703.774	16.38
703.802	14.38
703.83	8.38
703.858	0.38
703.886	-0.62
703.914	0.38
703.942	31.38
703.97	-3.62
703.998	-5.62
704.027	20.38
704.055	2.38
704.083	-5.62
704.111	14.38
704.139	1.38
704.167	14.38
704.195	4.38
704.223	-8.62
704.251	1.38
704.279	14.38
704.307	8.38
704.335	-1.62
704.363	10.38
704.391	1.38
704.419	-10.62
704.447	-6.62
704.475	10.38
704.503	1.38
704.531	16.38
704.558	9.38
704.586	19.38
704.614	7.38
704.642	10.38
704.67	2.38
704.698	5.38
704.726	0.38
704.754	-1.62
704.782	-3.62
704.81	6.38
704.838	28.38
704.866	13.38
704.894	-13.62
704.922	3.38
704.95	3.38
704.978	6.38
705.006	-11.62
705.034	21.38
705.061	4.38
705.089	-11.62
705.117	-17.62
705.145	9.38
705.173	3.38
705.201	11.38
705.229	22.38
705.257	1.38
705.285	-5.62
705.313	1.38
705.34	-4.62
705.368	3.38
705.396	8.38
705.424	29.38
705.452	3.38
705.48	3.38
705.508	-10.62
705.536	5.38
705.563	1.38
705.591	8.38
705.619	10.38
705.647	1.38
705.675	2.38
705.703	11.38
705.731	14.38
705.758	21.38
705.786	-6.62
705.814	17.38
705.842	11.38
705.87	4.38
705.898	13.38
705.925	10.38
705.953	12.38
705.981	1.38
706.009	-4.62
706.037	10.38
706.065	-0.62
706.092	4.38
706.12	12.38
706.148	7.38
706.176	0.38
706.204	9.38
706.231	12.38
706.259	0.38
706.287	-1.62
706.315	8.38
706.342	1.38
706.37	11.38
706.398	6.38
706.426	1.38
706.454	0.38
706.481	22.38
706.509	10.38
706.537	8.38
706.565	8.38
706.592	3.38
706.62	0.38
706.648	9.38
706.676	-6.62
706.703	7.38
706.731	-1.62
706.759	5.38
706.787	4.38
706.814	2.38
706.842	8.38
706.87	-11.62
706.897	6.38
706.925	6.38
706.953	12.38
706.981	22.38
707.008	7.38
707.036	5.38
707.064	0.38
707.091	-4.62
707.119	20.38
707.147	8.38
707.174	4.38
707.202	17.38
707.23	-11.62
707.258	4.38
707.285	7.38
707.313	6.38
707.341	3.38
707.368	-1.62
707.396	0.38
707.424	21.38
707.451	5.38
707.479	14.38
707.507	2.38
707.534	-6.62
707.562	8.38
707.59	-4.62
707.617	-5.62
707.645	1.38
707.672	13.38
707.7	21.38
707.728	16.38
707.755	6.38
707.783	-4.62
707.811	2.38
707.838	-2.62
707.866	24.38
707.893	-4.62
707.921	-14.62
707.949	0.38
707.976	7.38
708.004	13.38
708.031	13.38
708.059	-4.62
708.087	-5.62
708.114	-12.62
708.142	-17.62
708.169	-7.62
708.197	-8.62
708.225	8.38
708.252	8.38
708.28	24.38
708.307	11.38
708.335	12.38
708.362	8.38
708.39	-7.62
708.418	-7.62
708.445	-5.62
708.473	9.38
708.5	9.38
708.528	21.38
708.555	2.38
708.583	13.38
708.61	13.38
708.638	7.38
708.665	1.38
708.693	1.38
708.72	8.38
708.748	-4.62
708.776	6.38
708.803	14.38
708.831	-3.62
708.858	11.38
708.886	2.38
708.913	4.38
708.941	-5.62
708.968	2.38
708.996	-0.62
709.023	22.38
709.051	0.38
709.078	-5.62
709.105	-6.62
709.133	7.38
709.16	-1.62
709.188	10.38
709.215	-4.62
709.243	18.38
709.27	-0.62
709.298	-18.62
709.325	-1.62
709.353	-2.62
709.38	1.38
709.408	14.38
709.435	20.38
709.462	9.38
709.49	-11.62
709.517	6.38
709.545	-12.62
709.572	1.38
709.6	0.38
709.627	8.38
709.655	8.38
709.682	-2.62
709.709	0.38
709.737	11.38
709.764	13.38
709.792	6.38
709.819	2.38
709.846	5.38
709.874	9.38
709.901	20.38
709.929	21.38
709.956	17.38
709.983	3.38
710.011	8.38
710.038	0.38
710.066	15.38
710.093	16.38
710.12	3.38
710.148	-3.62
710.175	-9.62
710.202	-12.62
710.23	6.38
710.257	-5.62
710.284	1.38
710.312	7.38
710.339	4.38
710.366	-1.62
710.394	-3.62
710.421	17.38
710.448	8.38
710.476	-21.62
710.503	3.38
710.53	12.38
710.558	9.38
710.585	10.38
710.612	-4.62
710.64	-1.62
710.667	2.38
710.694	1.38
710.722	3.38
710.749	11.38
710.776	7.38
710.804	20.38
710.831	-1.62
710.858	-3.62
710.885	-2.62
710.913	-9.62
710.94	12.38
710.967	-3.62
710.995	11.38
711.022	6.38
711.049	15.38
711.076	-18.62
711.104	-14.62
711.131	-13.62
711.158	-2.62
711.185	15.38
711.213	-4.62
711.24	-6.62
711.267	9.38
711.294	4.38
711.322	3.38
711.349	-12.62
711.376	5.38
711.403	11.38
711.431	-9.62
711.458	6.38
711.485	9.38
711.512	5.38
711.54	7.38
711.567	19.38
711.594	-3.62
711.621	-1.62
711.648	-6.62
711.676	-9.62
711.703	-5.62
711.73	-15.62
711.757	-5.62
711.784	9.38
711.812	13.38
711.839	0.38
711.866	4.38
711.893	9.38
711.92	12.38
711.947	6.38
711.975	20.38
712.002	2.38
712.029	19.38
712.056	6.38
712.083	-3.62
712.11	-3.62
712.138	4.38
712.165	15.38
712.192	0.38
712.219	0.38
712.246	-4.62
712.273	-2.62
712.3	-4.62
712.328	1.38
712.355	9.38
712.382	-6.62
712.409	14.38
712.436	-5.62
712.463	1.38
712.49	13.38
712.517	10.38
712.544	0.38
712.572	5.38
712.599	11.38
712.626	25.38
712.653	-9.62
712.68	-9.62
712.707	13.38
712.734	10.38
712.761	13.38
712.788	7.38
712.815	10.38
712.842	3.38
712.87	13.38
712.897	-9.62
712.924	2.38
712.951	17.38
712.978	20.38
713.005	10.38
713.032	12.38
713.059	-0.62
713.086	12.38
713.113	-9.62
713.14	0.38
713.167	5.38
713.194	24.38
713.221	6.38
713.248	14.38
713.275	-3.62
713.302	-7.62
713.329	-5.62
713.356	10.38
713.383	15.38
713.41	1.38
713.437	10.38
713.464	19.38
713.491	25.38
713.518	5.38
713.545	-1.62
713.572	15.38
713.599	17.38
713.626	0.38
713.653	9.38
713.68	-7.62
713.707	11.38
713.734	14.38
713.761	16.38
713.788	3.38
713.815	9.38
713.842	-10.62
713.869	-11.62
713.896	-10.62
713.923	19.38
713.95	11.38
713.977	-2.62
714.004	-6.62
714.031	3.38
714.058	2.38
714.085	-8.62
714.112	6.38
714.139	-7.62
714.165	20.38
714.192	-2.62
714.219	8.38
714.246	10.38
714.273	-2.62
714.3	14.38
714.327	16.38
714.354	24.38
714.381	-8.62
714.408	14.38
714.435	-3.62
714.461	-3.62
714.488	2.38
714.515	-3.62
714.542	-10.62
714.569	-3.62
714.596	-17.62
714.623	9.38
714.65	-5.62
714.677	2.38
714.703	2.38
714.73	8.38
714.757	7.38
714.784	4.38
714.811	-2.62
714.838	17.38
714.865	1.38
714.891	11.38
714.918	8.38
714.945	-6.62
714.972	-1.62
714.999	12.38
715.026	1.38
715.052	12.38
715.079	-17.62
715.106	9.38
715.133	1.38
715.16	-3.62
715.187	4.38
715.213	-9.62
715.24	-11.62
715.267	2.38
715.294	-4.62
715.321	21.38
715.347	7.38
715.374	6.38
715.401	0.38
715.428	2.38
715.455	8.38
715.481	-1.62
715.508	15.38
715.535	7.38
715.562	29.38
715.588	1.38
715.615	5.38
715.642	-8.62
715.669	13.38
715.695	-4.62
715.722	7.38
715.749	1.38
715.776	8.38
715.802	0.38
715.829	3.38
715.856	-11.62
715.883	3.38
715.909	6.38
715.936	10.38
715.963	-3.62
715.99	0.38
716.016	2.38
716.043	4.38
716.07	-10.62
716.096	-11.62
716.123	-9.62
716.15	13.38
716.177	15.38
716.203	9.38
716.23	7.38
716.257	6.38
716.283	10.38
716.31	0.38
716.337	-1.62
716.363	1.38
716.39	5.38
716.417	7.38
716.443	2.38
716.47	17.38
716.497	19.38
716.523	21.38
716.55	12.38
716.577	26.38
716.603	13.38
716.63	21.38
716.657	22.38
716.683	1.38
716.71	7.38
716.737	0.38
716.763	4.38
716.79	5.38
716.817	12.38
716.843	-1.62
716.87	-21.62
716.897	-2.62
716.923	9.38
716.95	1.38
716.976	5.38
717.003	5.38
717.03	0.38
717.056	14.38
717.083	-4.62
717.109	11.38
717.136	2.38
717.163	1.38
717.189	8.38
717.216	1.38
717.242	-8.62
717.269	4.38
717.296	5.38
717.322	1.38
717.349	-0.62
717.375	-7.62
717.402	-6.62
717.428	8.38
717.455	11.38
717.481	10.38
717.508	1.38
717.535	8.38
717.561	18.38
717.588	-11.62
717.614	11.38
717.641	1.38
717.667	0.38
717.694	7.38
717.72	5.38
717.747	10.38
717.773	1.38
717.8	15.38
717.826	4.38
717.853	2.38
717.88	9.38
717.906	13.38
717.933	9.38
717.959	11.38
717.986	-0.62
718.012	0.38
718.039	12.38
718.065	4.38
718.092	19.38
718.118	4.38
718.144	-0.62
718.171	12.38
718.197	27.38
718.224	9.38
718.25	8.38
718.277	11.38
718.303	0.38
718.33	-2.62
718.356	3.38
718.383	0.38
718.409	-2.62
718.436	-5.62
718.462	2.38
718.489	-8.62
718.515	17.38
718.541	7.38
718.568	13.38
718.594	10.38
718.621	5.38
718.647	3.38
718.674	24.38
718.7	18.38
718.726	3.38
718.753	12.38
718.779	23.38
718.806	-9.62
718.832	-2.62
718.858	1.38
718.885	-0.62
718.911	8.38
718.938	1.38
718.964	-6.62
718.99	20.38
719.017	5.38
719.043	2.38
719.07	18.38
719.096	-2.62
719.122	5.38
719.149	15.38
719.175	5.38
719.201	-1.62
719.228	6.38
719.254	12.38
719.281	0.38
719.307	-23.62
719.333	-7.62
719.36	15.38
719.386	7.38
719.412	-0.62
719.439	-7.62
719.465	3.38
719.491	1.38
719.518	-12.62
719.544	-0.62
719.57	12.38
719.597	20.38
719.623	-5.62
719.649	3.38
719.675	11.38
719.702	11.38
719.728	24.38
719.754	-6.62
719.781	6.38
719.807	11.38
719.833	-5.62
719.86	3.38
719.886	11.38
719.912	0.38
719.938	-2.62
719.965	13.38
719.991	9.38
720.017	-5.62
720.044	1.38
720.07	0.38
720.096	-0.62
720.122	-5.62
720.149	3.38
720.175	7.38
720.201	7.38
720.227	-1.62
720.254	9.38
720.28	4.38
720.306	2.38
720.332	15.38
720.359	24.38
720.385	15.38
720.411	-2.62
720.437	-3.62
720.463	-5.62
720.49	10.38
720.516	-8.62
720.542	-3.62
720.568	-1.62
720.595	11.38
720.621	-0.62
720.647	3.38
720.673	18.38
720.699	-9.62
720.725	0.38
720.752	18.38
720.778	17.38
720.804	8.38
720.83	11.38
720.856	4.38
720.883	4.38
720.909	14.38
720.935	6.38
720.961	14.38
720.987	11.38
721.013	8.38
721.04	-1.62
721.066	2.38
721.092	-3.62
721.118	18.38
721.144	10.38
721.17	8.38
721.196	12.38
721.223	-4.62
721.249	4.38
721.275	1.38
721.301	8.38
721.327	10.38
721.353	7.38
721.379	10.38
721.405	3.38
721.432	28.38
721.458	-8.62
721.484	12.38
721.51	-5.62
721.536	-3.62
721.562	-2.62
721.588	1.38
721.614	7.38
721.64	1.38
721.666	5.38
721.693	-3.62
721.719	12.38
721.745	-9.62
721.771	0.38
721.797	27.38
721.823	2.38
721.849	20.38
721.875	10.38
721.901	15.38
721.927	-1.62
721.953	2.38
721.979	20.38
722.005	21.38
722.031	8.38
722.057	3.38
722.083	-0.62
722.109	9.38
722.135	26.38
722.161	22.38
722.187	10.38
722.214	-1.62
722.24	-2.62
722.266	1.38
722.292	13.38
722.318	26.38
722.344	-2.62
722.37	-5.62
722.396	6.38
722.422	3.38
722.448	11.38
722.474	-20.62
722.5	18.38
722.526	2.38
722.552	2.38
722.578	-2.62
722.603	11.38
722.629	-1.62
722.655	20.38
722.681	-2.62
722.707	-1.62
722.733	-3.62
722.759	-15.62
722.785	3.38
722.811	-2.62
722.837	-4.62
722.863	-1.62
722.889	13.38
722.915	4.38
722.941	2.38
722.967	10.38
722.993	1.38
723.019	17.38
723.045	-1.62
723.071	2.38
723.097	2.38
723.122	14.38
723.148	0.38
723.174	4.38
723.2	13.38
723.226	-2.62
723.252	4.38
723.278	7.38
723.304	5.38
723.33	-3.62
723.356	-2.62
723.381	-20.62
723.407	-8.62
723.433	23.38
723.459	4.38
723.485	8.38
723.511	17.38
723.537	1.38
723.563	12.38
723.588	-11.62
723.614	-1.62
723.64	5.38
723.666	1.38
723.692	14.38
723.718	8.38
723.744	5.38
723.769	3.38
723.795	-1.62
723.821	7.38
723.847	8.38
723.873	4.38
723.899	8.38
723.924	-10.62
723.95	-6.62
723.976	-15.62
724.002	16.38
724.028	17.38
724.053	5.38
724.079	1.38
724.105	-22.62
724.131	1.38
724.157	-2.62
724.182	3.38
724.208	-3.62
724.234	15.38
724.26	5.38
724.286	20.38
724.311	20.38
724.337	-4.62
724.363	5.38
724.389	17.38
724.415	-13.62
724.44	13.38
724.466	11.38
724.492	1.38
724.518	4.38
724.543	1.38
724.569	6.38
724.595	5.38
724.621	-2.62
724.646	2.38
724.672	-1.62
724.698	2.38
724.723	10.38
724.749	2.38
724.775	18.38
724.801	-4.62
724.826	-15.62
724.852	-5.62
724.878	-6.62
724.904	-12.62
724.929	-3.62
724.955	-17.62
724.981	-5.62
725.006	5.38
725.032	14.38
725.058	21.38
725.083	5.38
725.109	-2.62
725.135	6.38
725.161	10.38
725.186	-5.62
725.212	-2.62
725.238	0.38
725.263	-4.62
725.289	8.38
725.315	0.38
725.34	10.38
725.366	-4.62
725.392	-7.62
725.417	-4.62
725.443	6.38
725.468	0.38
725.494	9.38
725.52	13.38
725.545	3.38
725.571	1.38
725.597	12.38
725.622	-3.62
725.648	0.38
725.674	8.38
725.699	5.38
725.725	-3.62
725.75	33.38
725.776	8.38
725.802	-1.62
725.827	3.38
725.853	20.38
725.878	7.38
725.904	-5.62
725.93	7.38
725.955	1.38
725.981	2.38
726.006	-6.62
726.032	5.38
726.057	-2.62
726.083	-12.62
726.109	7.38
726.134	8.38
726.16	2.38
726.185	4.38
726.211	-4.62
726.236	-1.62
726.262	18.38
726.288	2.38
726.313	29.38
726.339	4.38
726.364	5.38
726.39	9.38
726.415	-6.62
726.441	-4.62
726.466	-11.62
726.492	13.38
726.517	-2.62
726.543	-1.62
726.568	-5.62
726.594	11.38
726.619	14.38
726.645	10.38
726.67	10.38
726.696	8.38
726.721	2.38
726.747	0.38
726.772	9.38
726.798	-1.62
726.823	10.38
726.849	-8.62
726.874	14.38
726.9	36.38
726.925	17.38
726.951	10.38
726.976	22.38
727.002	-1.62
727.027	-4.62
727.053	17.38
727.078	2.38
727.104	0.38
727.129	-30.62
727.155	-4.62
727.18	9.38
727.205	0.38
727.231	-0.62
727.256	15.38
727.282	4.38
727.307	14.38
727.333	17.38
727.358	-2.62
727.383	-4.62
727.409	-7.62
727.434	8.38
727.46	2.38
727.485	6.38
727.511	15.38
727.536	8.38
727.561	6.38
727.587	-0.62
727.612	0.38
727.637	15.38
727.663	8.38
727.688	19.38
727.714	11.38
727.739	-1.62
727.764	3.38
727.79	10.38
727.815	27.38
727.841	15.38
727.866	11.38
727.891	1.38
727.917	-7.62
727.942	0.38
727.967	3.38
727.993	-0.62
728.018	-3.62
728.043	-3.62
728.069	21.38
728.094	14.38
728.119	-3.62
728.145	29.38
728.17	0.38
728.195	1.38
728.221	25.38
728.246	-4.62
728.271	-18.62
728.297	2.38
728.322	1.38
728.347	-10.62
728.373	19.38
728.398	-4.62
728.423	5.38
728.448	8.38
728.474	5.38
728.499	8.38
728.524	-3.62
728.55	-6.62
728.575	-6.62
728.6	6.38
728.625	6.38
728.651	18.38
728.676	5.38
728.701	6.38
728.727	14.38
728.752	-15.62
728.777	-11.62
728.802	17.38
728.828	17.38
728.853	9.38
728.878	2.38
728.903	-3.62
728.929	-4.62
728.954	10.38
728.979	12.38
729.004	2.38
729.03	-12.62
729.055	11.38
729.08	-7.62
729.105	-11.62
729.13	16.38
729.156	16.38
729.181	13.38
729.206	-9.62
729.231	-5.62
729.256	10.38
729.282	14.38
729.307	-3.62
729.332	1.38
729.357	-2.62
729.382	4.38
729.408	10.38
729.433	15.38
729.458	14.38
729.483	10.38
729.508	37.38
729.533	12.38
729.559	13.38
729.584	3.38
729.609	8.38
729.634	16.38
729.659	6.38
729.684	-7.62
729.71	10.38
729.735	9.38
729.76	11.38
729.785	13.38
729.81	20.38
729.835	5.38
729.86	5.38
729.886	18.38
729.911	8.38
729.936	7.38
729.961	27.38
729.986	28.38
730.011	68.38
730.036	230.38
730.061	1008.38
730.086	2743.38
730.112	3408.38
730.137	2851.38
730.162	2113.38
730.187	1640.38
730.212	1279.38
730.237	768.38
730.262	472.38
730.287	252.38
730.312	149.38
730.337	75.38
730.362	69.38
730.387	51.38
730.413	18.38
730.438	10.38
730.463	21.38
730.488	14.38
730.513	8.38
730.538	25.38
730.563	20.38
730.588	23.38
730.613	38.38
730.638	7.38
730.663	20.38
730.688	36.38
730.713	18.38
730.738	16.38
730.763	-8.62
730.788	2.38
730.813	2.38
730.838	2.38
730.863	2.38
730.888	-0.62
730.913	0.38
730.938	-12.62
730.963	23.38
730.988	103.38
731.013	432.38
731.038	621.38
731.063	594.38
731.088	461.38
731.113	337.38
731.138	277.38
731.163	198.38
731.188	102.38
731.213	80.38
731.238	42.38
731.263	17.38
731.288	8.38
731.313	8.38
731.338	0.38
731.363	5.38
731.388	18.38
731.413	9.38
731.438	24.38
731.463	19.38
731.487	18.38
731.512	0.38
731.537	-1.62
731.562	-9.62
731.587	5.38
731.612	3.38
731.637	-7.62
731.662	1.38
731.687	-4.62
731.712	-17.62
731.737	8.38
731.762	0.38
731.786	17.38
731.811	28.38
731.836	7.38
731.861	-11.62
731.886	-7.62
731.911	18.38
731.936	15.38
731.961	7.38
731.986	-5.62
732.01	8.38
732.035	2.38
732.06	12.38
732.085	8.38
732.11	13.38
732.135	-5.62
732.16	12.38
732.184	-4.62
732.209	2.38
732.234	21.38
732.259	6.38
732.284	12.38
732.309	5.38
732.334	1.38
732.358	-11.62
732.383	12.38
732.408	-4.62
732.433	8.38
732.458	5.38
732.482	11.38
732.507	10.38
732.532	8.38
732.557	15.38
732.582	18.38
732.607	19.38
732.631	53.38
732.656	85.38
732.681	157.38
732.706	329.38
732.73	463.38
732.755	391.38
732.78	310.38
732.805	237.38
732.83	197.38
732.854	116.38
732.879	81.38
732.904	37.38
732.929	33.38
732.953	31.38
732.978	17.38
733.003	-3.62
733.028	-6.62
733.052	6.38
733.077	5.38
733.102	17.38
733.127	-2.62
733.151	-1.62
733.176	9.38
733.201	8.38
733.226	-4.62
733.25	0.38
733.275	13.38
733.3	9.38
733.324	15.38
733.349	25.38
733.374	-5.62
733.399	6.38
733.423	10.38
733.448	6.38
733.473	1.38
733.497	-4.62
733.522	14.38
733.547	20.38
733.571	15.38
733.596	9.38
733.621	5.38
733.646	-5.62
733.67	10.38
733.695	-10.62
733.72	-1.62
733.744	10.38
733.769	7.38
733.794	21.38
733.818	1.38
733.843	0.38
733.867	5.38
733.892	6.38
733.917	9.38
733.941	-1.62
733.966	-13.62
733.991	2.38
734.015	19.38
734.04	-2.62
734.065	8.38
734.089	24.38
734.114	11.38
734.138	4.38
734.163	-2.62
734.188	11.38
734.212	18.38
734.237	1.38
734.261	-0.62
734.286	-7.62
734.311	-2.62
734.335	-3.62
734.36	-10.62
734.384	3.38
734.409	-10.62
734.434	1.38
734.458	6.38
734.483	-1.62
734.507	3.38
734.532	10.38
734.556	14.38
734.581	11.38
734.606	2.38
734.63	-5.62
734.655	7.38
734.679	12.38
734.704	0.38
734.728	10.38
734.753	9.38
734.777	10.38
734.802	-12.62
734.826	0.38
734.851	-0.62
734.876	13.38
734.9	8.38
734.925	18.38
734.949	17.38
734.974	-3.62
734.998	15.38
735.023	-3.62
735.047	-1.62
735.072	19.38
735.096	8.38
735.121	-4.62
735.145	2.38
735.17	-5.62
735.194	4.38
735.219	11.38
735.243	16.38
735.268	17.38
735.292	-1.62
735.317	-1.62
735.341	18.38
735.365	-4.62
735.39	12.38
735.414	5.38
735.439	6.38
735.463	5.38
735.488	11.38
735.512	6.38
735.537	10.38
735.561	-0.62
735.586	-1.62
735.61	15.38
735.634	0.38
735.659	-6.62
735.683	27.38
735.708	-0.62
735.732	-10.62
735.757	-3.62
735.781	8.38
735.805	-10.62
735.83	-0.62
735.854	-5.62
735.879	-7.62
735.903	10.38
735.927	16.38
735.952	1.38
735.976	2.38
736.001	2.38
736.025	11.38
736.049	10.38
736.074	-2.62
736.098	9.38
736.123	11.38
736.147	0.38
736.171	-1.62
736.196	7.38
736.22	2.38
736.244	12.38
736.269	13.38
736.293	-3.62
736.317	-3.62
736.342	14.38
736.366	19.38
736.39	11.38
736.415	1.38
736.439	1.38
736.463	29.38
736.488	24.38
736.512	15.38
736.536	8.38
736.561	21.38
736.585	0.38
736.609	-5.62
736.634	-17.62
736.658	4.38
736.682	6.38
736.707	3.38
736.731	-3.62
736.755	5.38
736.78	10.38
736.804	17.38
736.828	24.38
736.852	8.38
736.877	10.38
736.901	6.38
736.925	-6.62
736.949	8.38
736.974	-12.62
736.998	0.38
737.022	25.38
737.047	-11.62
737.071	-9.62
737.095	7.38
737.119	19.38
737.144	13.38
737.168	-9.62
737.192	-3.62
737.216	11.38
737.241	11.38
737.265	9.38
737.289	5.38
737.313	-6.62
737.337	9.38
737.362	14.38
737.386	1.38
737.41	-2.62
737.434	2.38
737.459	-3.62
737.483	5.38
737.507	1.38
737.531	5.38
737.555	-1.62
737.58	7.38
737.604	15.38
737.628	-5.62
737.652	-3.62
737.676	-2.62
737.701	-3.62
737.725	15.38
737.749	23.38
737.773	7.38
737.797	7.38
737.821	8.38
737.846	9.38
737.87	6.38
737.894	-4.62
737.918	4.38
737.942	-0.62
737.966	7.38
737.99	13.38
738.015	1.38
738.039	5.38
738.063	-2.62
738.087	26.38
738.111	13.38
738.135	16.38
738.159	2.38
738.184	12.38
738.208	10.38
738.232	-6.62
738.256	25.38
738.28	15.38
738.304	6.38
738.328	-14.62
738.352	8.38
738.376	-9.62
738.4	9.38
738.425	13.38
738.449	-3.62
738.473	18.38
738.497	14.38
738.521	13.38
738.545	19.38
738.569	9.38
738.593	34.38
738.617	1.38
738.641	5.38
738.665	1.38
738.689	8.38
738.713	0.38
738.737	17.38
738.762	13.38
738.786	6.38
738.81	-5.62
738.834	12.38
738.858	7.38
738.882	-7.62
738.906	3.38
738.93	3.38
738.954	14.38
738.978	14.38
739.002	0.38
739.026	-0.62
739.05	4.38
739.074	-15.62
739.098	20.38
739.122	26.38
739.146	9.38
739.17	14.38
739.194	9.38
739.218	6.38
739.242	-2.62
739.266	8.38
739.29	10.38
739.314	10.38
739.338	13.38
739.362	8.38
739.386	-0.62
739.41	0.38
739.434	-1.62
739.458	17.38
739.482	-8.62
739.506	15.38
739.53	4.38
739.554	28.38
739.577	-0.62
739.601	12.38
739.625	-3.62
739.649	-4.62
739.673	11.38
739.697	15.38
739.721	-2.62
739.745	6.38
739.769	19.38
739.793	9.38
739.817	4.38
739.841	-9.62
739.865	6.38
739.889	-6.62
739.912	20.38
739.936	-1.62
739.96	-1.62
739.984	13.38
740.008	1.38
740.032	-1.62
740.056	-2.62
740.08	5.38
740.104	10.38
740.127	21.38
740.151	7.38
740.175	6.38
740.199	5.38
740.223	56.38
740.247	15.38
740.271	8.38
740.295	-2.62
740.318	-4.62
740.342	-1.62
740.366	8.38
740.39	14.38
740.414	-6.62
740.438	-2.62
740.461	10.38
740.485	16.38
740.509	5.38
740.533	23.38
740.557	3.38
740.581	4.38
740.604	1.38
740.628	-3.62
740.652	11.38
740.676	8.38
740.7	13.38
740.723	3.38
740.747	-5.62
740.771	-3.62
740.795	-3.62
740.819	4.38
740.842	5.38
740.866	11.38
740.89	15.38
740.914	7.38
740.938	1.38
740.961	12.38
740.985	9.38
741.009	-11.62
741.033	9.38
741.056	4.38
741.08	-0.62
741.104	8.38
741.128	-2.62
741.151	5.38
741.175	17.38
741.199	17.38
741.223	15.38
741.246	0.38
741.27	5.38
741.294	15.38
741.318	-10.62
741.341	-3.62
741.365	3.38
741.389	4.38
741.413	14.38
741.436	11.38
741.46	19.38
741.484	11.38
741.507	0.38
741.531	30.38
741.555	29.38
741.579	24.38
741.602	24.38
741.626	24.38
741.65	0.38
741.673	-1.62
741.697	13.38
741.721	6.38
741.744	11.38
741.768	4.38
741.792	13.38
741.815	-2.62
741.839	15.38
741.863	7.38
741.886	21.38
741.91	11.38
741.934	0.38
741.957	-10.62
741.981	30.38
742.005	6.38
742.028	3.38
742.052	8.38
742.075	23.38
742.099	17.38
742.123	-9.62
742.146	4.38
742.17	16.38
742.194	-13.62
742.217	-9.62
742.241	4.38
742.264	-8.62
742.288	22.38
742.312	3.38
742.335	4.38
742.359	17.38
742.382	19.38
742.406	17.38
742.43	4.38
742.453	1.38
742.477	0.38
742.5	-8.62
742.524	-2.62
742.548	3.38
742.571	2.38
742.595	-2.62
742.618	14.38
742.642	6.38
742.665	11.38
742.689	6.38
742.712	-1.62
742.736	11.38
742.76	4.38
742.783	21.38
742.807	13.38
742.83	18.38
742.854	-9.62
742.877	13.38
742.901	-15.62
742.924	-0.62
742.948	12.38
742.971	10.38
742.995	4.38
743.018	-4.62
743.042	-10.62
743.065	-5.62
743.089	-19.62
743.112	11.38
743.136	0.38
743.159	-7.62
743.183	-3.62
743.206	26.38
743.23	-3.62
743.253	5.38
743.277	9.38
743.3	1.38
743.324	8.38
743.347	2.38
743.371	23.38
743.394	24.38
743.418	25.38
743.441	-3.62
743.465	6.38
743.488	10.38
743.512	1.38
743.535	8.38
743.558	-5.62
743.582	6.38
743.605	3.38
743.629	3.38
743.652	5.38
743.676	15.38
743.699	-7.62
743.723	-9.62
743.746	13.38
743.769	8.38
743.793	12.38
743.816	1.38
743.84	23.38
743.863	4.38
743.886	10.38
743.91	15.38
743.933	22.38
743.957	8.38
743.98	5.38
744.003	12.38
744.027	12.38
744.05	3.38
744.074	6.38
744.097	2.38
744.12	4.38
744.144	0.38
744.167	8.38
744.19	-3.62
744.214	16.38
744.237	-9.62
744.26	17.38
744.284	0.38
744.307	-10.62
744.331	9.38
744.354	16.38
744.377	4.38
744.401	2.38
744.424	7.38
744.447	-7.62
744.471	-1.62
