Data from HighRes_mercury_15_13_11_07_2024_HR4C61891__0__15-14-23-186.txt Node

Date: Thu Nov 07 15:14:23 EST 2024
User: crc00042
Spectrometer: HR4C6189
Trigger mode: 4
Integration Time (sec): 1.000000E-1
Scans to average: 1
Electric dark correction enabled: true
Nonlinearity correction enabled: false
Boxcar width: 0
XAxis mode: Wavelengths
Number of Pixels in Spectrum: 3648
>>>>>Begin Spectral Data<<<<<
639.567	-48.92
639.602	-48.92
639.636	-48.92
639.67	-39.92
639.704	-1.92
639.738	6.08
639.773	6.08
639.807	-11.92
639.841	-7.92
639.875	7.08
639.909	-4.92
639.943	-18.92
639.978	-3.92
640.012	5.08
640.046	18.08
640.08	8.08
640.114	7.08
640.148	-9.92
640.182	-6.92
640.217	10.08
640.251	16.08
640.285	7.08
640.319	3.08
640.353	6.08
640.387	1.08
640.421	4.08
640.455	4.08
640.49	-12.92
640.524	5.08
640.558	9.08
640.592	7.08
640.626	12.08
640.66	12.08
640.694	-12.92
640.728	15.08
640.762	12.08
640.796	9.08
640.83	11.08
640.865	-3.92
640.899	2.08
640.933	13.08
640.967	14.08
641.001	17.08
641.035	5.08
641.069	7.08
641.103	2.08
641.137	18.08
641.171	-0.92
641.205	13.08
641.239	2.08
641.273	21.08
641.307	8.08
641.341	1.08
641.375	4.08
641.409	6.08
641.443	-4.92
641.477	14.08
641.511	16.08
641.545	10.08
641.579	5.08
641.614	17.08
641.648	29.08
641.682	-18.92
641.716	6.08
641.75	27.08
641.784	2.08
641.818	10.08
641.852	25.08
641.886	14.08
641.919	34.08
641.953	5.08
641.987	-13.92
642.021	6.08
642.055	10.08
642.089	8.08
642.123	-0.92
642.157	8.08
642.191	-4.92
642.225	23.08
642.259	6.08
642.293	6.08
642.327	1.08
642.361	5.08
642.395	22.08
642.429	15.08
642.463	19.08
642.497	22.08
642.531	1.08
642.565	-11.92
642.599	-1.92
642.633	-0.92
642.666	20.08
642.7	13.08
642.734	8.08
642.768	3.08
642.802	18.08
642.836	11.08
642.87	14.08
642.904	6.08
642.938	0.08
642.972	6.08
643.005	3.08
643.039	33.08
643.073	24.08
643.107	1.08
643.141	8.08
643.175	7.08
643.209	7.08
643.243	5.08
643.276	11.08
643.31	-0.92
643.344	19.08
643.378	10.08
643.412	31.08
643.446	6.08
643.48	7.08
643.513	4.08
643.547	12.08
643.581	9.08
643.615	20.08
643.649	13.08
643.683	3.08
643.716	10.08
643.75	7.08
643.784	-4.92
643.818	20.08
643.852	18.08
643.886	8.08
643.919	16.08
643.953	10.08
643.987	5.08
644.021	9.08
644.055	7.08
644.088	6.08
644.122	4.08
644.156	-0.92
644.19	14.08
644.224	14.08
644.257	6.08
644.291	0.08
644.325	26.08
644.359	18.08
644.392	26.08
644.426	26.08
644.46	4.08
644.494	17.08
644.527	0.08
644.561	12.08
644.595	17.08
644.629	2.08
644.662	-3.92
644.696	5.08
644.73	13.08
644.764	9.08
644.797	18.08
644.831	19.08
644.865	27.08
644.899	10.08
644.932	25.08
644.966	1.08
645	8.08
645.033	24.08
645.067	16.08
645.101	21.08
645.135	14.08
645.168	18.08
645.202	-1.92
645.236	-1.92
645.269	4.08
645.303	5.08
645.337	-10.92
645.37	-1.92
645.404	5.08
645.438	21.08
645.471	6.08
645.505	7.08
645.539	3.08
645.572	5.08
645.606	2.08
645.64	10.08
645.673	17.08
645.707	13.08
645.741	10.08
645.774	-3.92
645.808	13.08
645.842	-5.92
645.875	8.08
645.909	3.08
645.943	-0.92
645.976	24.08
646.01	15.08
646.043	12.08
646.077	10.08
646.111	7.08
646.144	22.08
646.178	-2.92
646.212	-4.92
646.245	-6.92
646.279	4.08
646.312	16.08
646.346	21.08
646.38	3.08
646.413	10.08
646.447	12.08
646.48	2.08
646.514	9.08
646.547	3.08
646.581	-7.92
646.615	-0.92
646.648	14.08
646.682	19.08
646.715	2.08
646.749	14.08
646.782	-2.92
646.816	2.08
646.85	-0.92
646.883	8.08
646.917	11.08
646.95	21.08
646.984	9.08
647.017	4.08
647.051	1.08
647.084	28.08
647.118	-15.92
647.151	8.08
647.185	10.08
647.218	-2.92
647.252	19.08
647.285	-10.92
647.319	-16.92
647.353	9.08
647.386	14.08
647.42	17.08
647.453	5.08
647.487	8.08
647.52	1.08
647.553	4.08
647.587	-1.92
647.62	15.08
647.654	16.08
647.687	20.08
647.721	18.08
647.754	16.08
647.788	5.08
647.821	-2.92
647.855	6.08
647.888	22.08
647.922	24.08
647.955	20.08
647.989	8.08
648.022	-6.92
648.055	13.08
648.089	10.08
648.122	18.08
648.156	-3.92
648.189	4.08
648.223	22.08
648.256	25.08
648.29	17.08
648.323	2.08
648.356	12.08
648.39	7.08
648.423	4.08
648.457	-3.92
648.49	6.08
648.523	8.08
648.557	4.08
648.59	-0.92
648.624	10.08
648.657	13.08
648.69	19.08
648.724	22.08
648.757	14.08
648.791	3.08
648.824	17.08
648.857	13.08
648.891	6.08
648.924	7.08
648.957	23.08
648.991	9.08
649.024	16.08
649.057	6.08
649.091	6.08
649.124	11.08
649.158	16.08
649.191	21.08
649.224	12.08
649.258	17.08
649.291	8.08
649.324	2.08
649.358	10.08
649.391	10.08
649.424	3.08
649.458	9.08
649.491	4.08
649.524	-5.92
649.557	-14.92
649.591	-13.92
649.624	20.08
649.657	-3.92
649.691	-4.92
649.724	11.08
649.757	7.08
649.791	8.08
649.824	24.08
649.857	15.08
649.89	8.08
649.924	-7.92
649.957	9.08
649.99	-2.92
650.023	3.08
650.057	2.08
650.09	16.08
650.123	-1.92
650.157	10.08
650.19	10.08
650.223	-2.92
650.256	-20.92
650.29	-9.92
650.323	12.08
650.356	11.08
650.389	4.08
650.423	7.08
650.456	12.08
650.489	12.08
650.522	4.08
650.555	9.08
650.589	4.08
650.622	5.08
650.655	19.08
650.688	5.08
650.721	5.08
650.755	16.08
650.788	13.08
650.821	-1.92
650.854	-1.92
650.887	7.08
650.921	-1.92
650.954	-11.92
650.987	5.08
651.02	20.08
651.053	-0.92
651.087	-3.92
651.12	31.08
651.153	16.08
651.186	-5.92
651.219	6.08
651.252	20.08
651.286	22.08
651.319	-2.92
651.352	4.08
651.385	11.08
651.418	3.08
651.451	22.08
651.484	7.08
651.518	3.08
651.551	30.08
651.584	3.08
651.617	34.08
651.65	23.08
651.683	18.08
651.716	-9.92
651.749	4.08
651.783	12.08
651.816	13.08
651.849	-1.92
651.882	-6.92
651.915	-10.92
651.948	-5.92
651.981	-9.92
652.014	-0.92
652.047	-6.92
652.08	-1.92
652.114	4.08
652.147	-8.92
652.18	2.08
652.213	24.08
652.246	-9.92
652.279	-1.92
652.312	0.08
652.345	8.08
652.378	15.08
652.411	28.08
652.444	10.08
652.477	6.08
652.51	-2.92
652.543	-7.92
652.576	6.08
652.609	-5.92
652.642	-7.92
652.675	21.08
652.709	3.08
652.742	3.08
652.775	1.08
652.808	-5.92
652.841	1.08
652.874	5.08
652.907	3.08
652.94	-5.92
652.973	-10.92
653.006	-14.92
653.039	-4.92
653.072	14.08
653.105	-5.92
653.138	-10.92
653.171	-17.92
653.204	2.08
653.237	11.08
653.27	4.08
653.303	18.08
653.336	18.08
653.368	1.08
653.401	5.08
653.434	-9.92
653.467	9.08
653.5	2.08
653.533	1.08
653.566	6.08
653.599	0.08
653.632	3.08
653.665	14.08
653.698	-5.92
653.731	-12.92
653.764	25.08
653.797	13.08
653.83	19.08
653.863	7.08
653.896	-14.92
653.929	-1.92
653.961	8.08
653.994	5.08
654.027	-10.92
654.06	27.08
654.093	4.08
654.126	7.08
654.159	-6.92
654.192	2.08
654.225	4.08
654.258	4.08
654.29	8.08
654.323	0.08
654.356	1.08
654.389	20.08
654.422	9.08
654.455	7.08
654.488	-5.92
654.521	-8.92
654.553	-1.92
654.586	12.08
654.619	-1.92
654.652	-4.92
654.685	2.08
654.718	14.08
654.751	26.08
654.783	9.08
654.816	30.08
654.849	5.08
654.882	0.08
654.915	-5.92
654.948	1.08
654.98	4.08
655.013	4.08
655.046	-5.92
655.079	-8.92
655.112	10.08
655.144	-9.92
655.177	-7.92
655.21	6.08
655.243	0.08
655.276	1.08
655.308	-5.92
655.341	1.08
655.374	22.08
655.407	-6.92
655.44	-14.92
655.472	12.08
655.505	16.08
655.538	16.08
655.571	18.08
655.603	-6.92
655.636	-1.92
655.669	-3.92
655.702	-13.92
655.734	-2.92
655.767	16.08
655.8	8.08
655.833	8.08
655.865	8.08
655.898	6.08
655.931	3.08
655.964	-5.92
655.996	-0.92
656.029	8.08
656.062	-2.92
656.095	-4.92
656.127	-8.92
656.16	11.08
656.193	5.08
656.225	13.08
656.258	24.08
656.291	1.08
656.324	-6.92
656.356	-2.92
656.389	8.08
656.422	20.08
656.454	-15.92
656.487	-7.92
656.52	17.08
656.552	9.08
656.585	-8.92
656.618	15.08
656.65	15.08
656.683	0.08
656.716	13.08
656.748	-0.92
656.781	-4.92
656.814	-6.92
656.846	17.08
656.879	-16.92
656.912	-0.92
656.944	-9.92
656.977	-6.92
657.01	-2.92
657.042	3.08
657.075	7.08
657.108	3.08
657.14	4.08
657.173	18.08
657.205	26.08
657.238	13.08
657.271	0.08
657.303	-8.92
657.336	28.08
657.369	5.08
657.401	4.08
657.434	4.08
657.466	0.08
657.499	0.08
657.532	-0.92
657.564	3.08
657.597	2.08
657.629	-4.92
657.662	-8.92
657.694	17.08
657.727	-13.92
657.76	19.08
657.792	-0.92
657.825	2.08
657.857	5.08
657.89	4.08
657.922	-0.92
657.955	-12.92
657.987	9.08
658.02	34.08
658.053	11.08
658.085	15.08
658.118	0.08
658.15	19.08
658.183	28.08
658.215	6.08
658.248	0.08
658.28	6.08
658.313	10.08
658.345	6.08
658.378	-3.92
658.41	10.08
658.443	-9.92
658.475	9.08
658.508	8.08
658.54	7.08
658.573	-1.92
658.605	10.08
658.638	-0.92
658.67	5.08
658.703	6.08
658.735	-10.92
658.768	9.08
658.8	7.08
658.833	25.08
658.865	17.08
658.898	7.08
658.93	4.08
658.963	-7.92
658.995	-5.92
659.028	14.08
659.06	7.08
659.092	8.08
659.125	6.08
659.157	16.08
659.19	-2.92
659.222	2.08
659.255	-1.92
659.287	4.08
659.32	10.08
659.352	3.08
659.384	2.08
659.417	1.08
659.449	4.08
659.482	19.08
659.514	-6.92
659.546	-3.92
659.579	-22.92
659.611	7.08
659.644	8.08
659.676	-10.92
659.708	-8.92
659.741	3.08
659.773	8.08
659.806	6.08
659.838	3.08
659.87	11.08
659.903	6.08
659.935	11.08
659.967	13.08
660	6.08
660.032	-1.92
660.065	16.08
660.097	9.08
660.129	13.08
660.162	-6.92
660.194	6.08
660.226	2.08
660.259	7.08
660.291	6.08
660.323	5.08
660.356	15.08
660.388	11.08
660.42	-2.92
660.453	5.08
660.485	23.08
660.517	14.08
660.55	27.08
660.582	18.08
660.614	22.08
660.647	-1.92
660.679	-25.92
660.711	12.08
660.743	-9.92
660.776	-11.92
660.808	1.08
660.84	-3.92
660.873	3.08
660.905	1.08
660.937	11.08
660.969	-0.92
661.002	7.08
661.034	28.08
661.066	4.08
661.099	8.08
661.131	16.08
661.163	3.08
661.195	4.08
661.228	11.08
661.26	3.08
661.292	12.08
661.324	1.08
661.357	-9.92
661.389	3.08
661.421	7.08
661.453	-5.92
661.485	-7.92
661.518	5.08
661.55	0.08
661.582	-2.92
661.614	9.08
661.647	2.08
661.679	-1.92
661.711	6.08
661.743	8.08
661.775	9.08
661.808	26.08
661.84	0.08
661.872	3.08
661.904	2.08
661.936	7.08
661.969	5.08
662.001	-3.92
662.033	1.08
662.065	10.08
662.097	30.08
662.129	13.08
662.162	-14.92
662.194	9.08
662.226	-2.92
662.258	3.08
662.29	13.08
662.322	-14.92
662.355	-11.92
662.387	28.08
662.419	9.08
662.451	30.08
662.483	27.08
662.515	1.08
662.547	19.08
662.58	2.08
662.612	-1.92
662.644	-6.92
662.676	-0.92
662.708	35.08
662.74	7.08
662.772	14.08
662.804	-3.92
662.836	13.08
662.869	-6.92
662.901	10.08
662.933	12.08
662.965	5.08
662.997	22.08
663.029	2.08
663.061	19.08
663.093	-1.92
663.125	1.08
663.157	19.08
663.189	9.08
663.221	32.08
663.254	11.08
663.286	14.08
663.318	14.08
663.35	13.08
663.382	5.08
663.414	16.08
663.446	10.08
663.478	-10.92
663.51	25.08
663.542	-2.92
663.574	5.08
663.606	8.08
663.638	-6.92
663.67	-2.92
663.702	5.08
663.734	1.08
663.766	7.08
663.798	2.08
663.83	12.08
663.862	21.08
663.894	10.08
663.926	-6.92
663.958	22.08
663.99	20.08
664.022	2.08
664.054	9.08
664.086	2.08
664.118	-1.92
664.15	-6.92
664.182	-4.92
664.214	-13.92
664.246	9.08
664.278	5.08
664.31	29.08
664.342	5.08
664.374	14.08
664.406	-12.92
664.438	-0.92
664.47	29.08
664.502	9.08
664.534	7.08
664.566	-9.92
664.598	11.08
664.63	-14.92
664.662	15.08
664.693	9.08
664.725	-3.92
664.757	8.08
664.789	-10.92
664.821	2.08
664.853	22.08
664.885	15.08
664.917	6.08
664.949	14.08
664.981	12.08
665.013	21.08
665.045	-5.92
665.076	11.08
665.108	19.08
665.14	10.08
665.172	12.08
665.204	-1.92
665.236	4.08
665.268	22.08
665.3	14.08
665.331	4.08
665.363	14.08
665.395	0.08
665.427	2.08
665.459	-2.92
665.491	-2.92
665.523	12.08
665.555	5.08
665.586	0.08
665.618	4.08
665.65	0.08
665.682	16.08
665.714	13.08
665.746	0.08
665.777	10.08
665.809	7.08
665.841	17.08
665.873	-5.92
665.905	-1.92
665.937	17.08
665.968	7.08
666	11.08
666.032	9.08
666.064	4.08
666.096	1.08
666.127	-6.92
666.159	19.08
666.191	13.08
666.223	-7.92
666.255	-5.92
666.286	9.08
666.318	4.08
666.35	21.08
666.382	-0.92
666.413	4.08
666.445	8.08
666.477	-2.92
666.509	-8.92
666.54	2.08
666.572	4.08
666.604	16.08
666.636	12.08
666.667	27.08
666.699	19.08
666.731	10.08
666.763	3.08
666.794	6.08
666.826	30.08
666.858	-7.92
666.89	27.08
666.921	24.08
666.953	6.08
666.985	19.08
667.017	28.08
667.048	15.08
667.08	-9.92
667.112	-14.92
667.143	-12.92
667.175	15.08
667.207	2.08
667.238	6.08
667.27	13.08
667.302	11.08
667.334	0.08
667.365	25.08
667.397	-4.92
667.429	-6.92
667.46	6.08
667.492	22.08
667.524	5.08
667.555	7.08
667.587	11.08
667.619	4.08
667.65	2.08
667.682	16.08
667.714	24.08
667.745	12.08
667.777	-4.92
667.808	11.08
667.84	14.08
667.872	-0.92
667.903	18.08
667.935	-5.92
667.967	-2.92
667.998	15.08
668.03	-3.92
668.061	-2.92
668.093	-3.92
668.125	6.08
668.156	4.08
668.188	14.08
668.22	-6.92
668.251	4.08
668.283	5.08
668.314	22.08
668.346	19.08
668.377	31.08
668.409	11.08
668.441	19.08
668.472	23.08
668.504	30.08
668.535	11.08
668.567	22.08
668.599	6.08
668.63	18.08
668.662	17.08
668.693	22.08
668.725	20.08
668.756	14.08
668.788	2.08
668.819	14.08
668.851	8.08
668.882	-1.92
668.914	3.08
668.946	20.08
668.977	8.08
669.009	10.08
669.04	2.08
669.072	7.08
669.103	-6.92
669.135	1.08
669.166	7.08
669.198	4.08
669.229	8.08
669.261	-6.92
669.292	-14.92
669.324	18.08
669.355	7.08
669.387	-14.92
669.418	10.08
669.45	3.08
669.481	0.08
669.513	5.08
669.544	9.08
669.576	-5.92
669.607	32.08
669.639	22.08
669.67	-8.92
669.701	20.08
669.733	6.08
669.764	5.08
669.796	9.08
669.827	-8.92
669.859	7.08
669.89	19.08
669.922	24.08
669.953	4.08
669.985	-0.92
670.016	10.08
670.047	1.08
670.079	7.08
670.11	12.08
670.142	16.08
670.173	0.08
670.204	6.08
670.236	-7.92
670.267	-9.92
670.299	-11.92
670.33	-5.92
670.362	7.08
670.393	-2.92
670.424	21.08
670.456	-3.92
670.487	-1.92
670.518	8.08
670.55	10.08
670.581	-1.92
670.613	14.08
670.644	10.08
670.675	7.08
670.707	2.08
670.738	-3.92
670.769	-4.92
670.801	-17.92
670.832	14.08
670.864	16.08
670.895	19.08
670.926	2.08
670.958	10.08
670.989	11.08
671.02	-13.92
671.052	14.08
671.083	2.08
671.114	-2.92
671.146	14.08
671.177	4.08
671.208	-5.92
671.24	-13.92
671.271	3.08
671.302	17.08
671.333	9.08
671.365	3.08
671.396	-12.92
671.427	11.08
671.459	13.08
671.49	14.08
671.521	1.08
671.553	10.08
671.584	9.08
671.615	-1.92
671.646	15.08
671.678	9.08
671.709	-6.92
671.74	3.08
671.771	24.08
671.803	1.08
671.834	12.08
671.865	12.08
671.896	15.08
671.928	6.08
671.959	6.08
671.99	5.08
672.021	6.08
672.053	-2.92
672.084	20.08
672.115	23.08
672.146	2.08
672.178	-24.92
672.209	8.08
672.24	-11.92
672.271	21.08
672.303	0.08
672.334	-4.92
672.365	7.08
672.396	12.08
672.427	-3.92
672.459	1.08
672.49	30.08
672.521	12.08
672.552	5.08
672.583	3.08
672.615	7.08
672.646	22.08
672.677	5.08
672.708	0.08
672.739	7.08
672.77	18.08
672.802	23.08
672.833	2.08
672.864	3.08
672.895	-4.92
672.926	-1.92
672.957	-3.92
672.989	-5.92
673.02	9.08
673.051	28.08
673.082	27.08
673.113	0.08
673.144	5.08
673.175	16.08
673.206	-0.92
673.238	1.08
673.269	-5.92
673.3	-1.92
673.331	9.08
673.362	3.08
673.393	-3.92
673.424	20.08
673.455	24.08
673.487	15.08
673.518	14.08
673.549	7.08
673.58	6.08
673.611	8.08
673.642	13.08
673.673	-8.92
673.704	-4.92
673.735	-2.92
673.766	-2.92
673.797	5.08
673.828	16.08
673.86	-0.92
673.891	-14.92
673.922	-7.92
673.953	1.08
673.984	6.08
674.015	11.08
674.046	-2.92
674.077	13.08
674.108	-4.92
674.139	-11.92
674.17	4.08
674.201	10.08
674.232	6.08
674.263	13.08
674.294	6.08
674.325	-5.92
674.356	15.08
674.387	19.08
674.418	-0.92
674.449	3.08
674.48	2.08
674.511	10.08
674.542	16.08
674.573	9.08
674.604	14.08
674.635	2.08
674.666	28.08
674.697	10.08
674.728	10.08
674.759	6.08
674.79	-2.92
674.821	-7.92
674.852	-0.92
674.883	8.08
674.914	8.08
674.945	6.08
674.976	16.08
675.007	2.08
675.038	-4.92
675.069	4.08
675.1	0.08
675.131	9.08
675.162	-11.92
675.193	5.08
675.224	7.08
675.254	11.08
675.285	18.08
675.316	9.08
675.347	16.08
675.378	9.08
675.409	5.08
675.44	22.08
675.471	5.08
675.502	-5.92
675.533	8.08
675.564	-0.92
675.595	2.08
675.625	20.08
675.656	2.08
675.687	3.08
675.718	-5.92
675.749	3.08
675.78	8.08
675.811	-5.92
675.842	7.08
675.873	8.08
675.903	-7.92
675.934	7.08
675.965	3.08
675.996	4.08
676.027	11.08
676.058	10.08
676.089	-7.92
676.119	6.08
676.15	6.08
676.181	9.08
676.212	-0.92
676.243	10.08
676.274	3.08
676.304	25.08
676.335	4.08
676.366	4.08
676.397	5.08
676.428	1.08
676.459	9.08
676.489	4.08
676.52	21.08
676.551	10.08
676.582	2.08
676.613	5.08
676.643	6.08
676.674	13.08
676.705	-1.92
676.736	0.08
676.767	15.08
676.797	8.08
676.828	15.08
676.859	3.08
676.89	14.08
676.92	15.08
676.951	12.08
676.982	13.08
677.013	0.08
677.044	11.08
677.074	30.08
677.105	6.08
677.136	-4.92
677.167	6.08
677.197	10.08
677.228	-1.92
677.259	-4.92
677.289	5.08
677.32	1.08
677.351	1.08
677.382	7.08
677.412	-4.92
677.443	6.08
677.474	16.08
677.505	-1.92
677.535	9.08
677.566	6.08
677.597	-10.92
677.627	2.08
677.658	5.08
677.689	-10.92
677.72	1.08
677.75	-1.92
677.781	-7.92
677.812	1.08
677.842	16.08
677.873	5.08
677.904	-8.92
677.934	1.08
677.965	-2.92
677.996	-13.92
678.026	5.08
678.057	3.08
678.088	-11.92
678.118	0.08
678.149	-6.92
678.18	1.08
678.21	10.08
678.241	17.08
678.272	-7.92
678.302	18.08
678.333	11.08
678.363	3.08
678.394	8.08
678.425	4.08
678.455	8.08
678.486	17.08
678.517	14.08
678.547	15.08
678.578	2.08
678.608	-2.92
678.639	19.08
678.67	5.08
678.7	-5.92
678.731	-0.92
678.761	-10.92
678.792	13.08
678.823	10.08
678.853	13.08
678.884	-11.92
678.914	3.08
678.945	-0.92
678.975	-6.92
679.006	2.08
679.037	-8.92
679.067	15.08
679.098	6.08
679.128	-2.92
679.159	-2.92
679.189	14.08
679.22	-18.92
679.25	6.08
679.281	5.08
679.312	1.08
679.342	7.08
679.373	41.08
679.403	9.08
679.434	15.08
679.464	2.08
679.495	6.08
679.525	0.08
679.556	-0.92
679.586	7.08
679.617	19.08
679.647	9.08
679.678	-10.92
679.708	9.08
679.739	7.08
679.769	8.08
679.8	9.08
679.83	15.08
679.861	17.08
679.891	-2.92
679.922	-15.92
679.952	12.08
679.983	1.08
680.013	-0.92
680.044	2.08
680.074	5.08
680.105	10.08
680.135	6.08
680.165	4.08
680.196	8.08
680.226	3.08
680.257	22.08
680.287	14.08
680.318	7.08
680.348	-20.92
680.379	12.08
680.409	15.08
680.439	14.08
680.47	-0.92
680.5	6.08
680.531	1.08
680.561	11.08
680.592	7.08
680.622	15.08
680.652	19.08
680.683	25.08
680.713	2.08
680.744	-11.92
680.774	-2.92
680.804	7.08
680.835	1.08
680.865	-10.92
680.896	13.08
680.926	21.08
680.956	14.08
680.987	3.08
681.017	-13.92
681.047	14.08
681.078	0.08
681.108	5.08
681.139	6.08
681.169	14.08
681.199	10.08
681.23	9.08
681.26	4.08
681.29	8.08
681.321	-2.92
681.351	-5.92
681.381	-9.92
681.412	12.08
681.442	9.08
681.472	4.08
681.503	11.08
681.533	0.08
681.563	-0.92
681.594	8.08
681.624	6.08
681.654	-6.92
681.685	-2.92
681.715	9.08
681.745	4.08
681.775	0.08
681.806	11.08
681.836	8.08
681.866	-6.92
681.897	6.08
681.927	1.08
681.957	-16.92
681.987	13.08
682.018	-9.92
682.048	6.08
682.078	8.08
682.109	34.08
682.139	8.08
682.169	-7.92
682.199	-10.92
682.23	6.08
682.26	13.08
682.29	-8.92
682.32	-11.92
682.351	-5.92
682.381	6.08
682.411	-2.92
682.441	-6.92
682.472	-10.92
682.502	5.08
682.532	1.08
682.562	7.08
682.592	5.08
682.623	20.08
682.653	18.08
682.683	-4.92
682.713	16.08
682.743	6.08
682.774	-1.92
682.804	7.08
682.834	7.08
682.864	11.08
682.894	-12.92
682.925	0.08
682.955	3.08
682.985	9.08
683.015	7.08
683.045	-1.92
683.076	-3.92
683.106	-2.92
683.136	-0.92
683.166	-18.92
683.196	-1.92
683.226	4.08
683.257	1.08
683.287	-3.92
683.317	6.08
683.347	-4.92
683.377	-5.92
683.407	-1.92
683.437	10.08
683.468	2.08
683.498	-4.92
683.528	-5.92
683.558	6.08
683.588	-10.92
683.618	1.08
683.648	-8.92
683.678	-0.92
683.708	15.08
683.739	4.08
683.769	-0.92
683.799	2.08
683.829	-10.92
683.859	1.08
683.889	30.08
683.919	3.08
683.949	4.08
683.979	27.08
684.009	-12.92
684.039	-4.92
684.07	-1.92
684.1	17.08
684.13	7.08
684.16	4.08
684.19	-11.92
684.22	4.08
684.25	2.08
684.28	-14.92
684.31	34.08
684.34	10.08
684.37	-4.92
684.4	15.08
684.43	11.08
684.46	4.08
684.49	22.08
684.52	4.08
684.55	6.08
684.58	-6.92
684.61	20.08
684.64	11.08
684.67	17.08
684.7	-0.92
684.73	-5.92
684.76	5.08
684.79	14.08
684.82	8.08
684.85	-2.92
684.88	13.08
684.91	9.08
684.94	8.08
684.97	0.08
685	-0.92
685.03	-0.92
685.06	-6.92
685.09	-4.92
685.12	25.08
685.15	5.08
685.18	20.08
685.21	23.08
685.24	11.08
685.27	12.08
685.3	6.08
685.33	5.08
685.36	-1.92
685.39	6.08
685.42	-5.92
685.45	-4.92
685.48	10.08
685.51	6.08
685.54	21.08
685.569	27.08
685.599	24.08
685.629	14.08
685.659	-0.92
685.689	-5.92
685.719	-2.92
685.749	-4.92
685.779	3.08
685.809	18.08
685.839	7.08
685.869	2.08
685.898	20.08
685.928	2.08
685.958	11.08
685.988	19.08
686.018	13.08
686.048	17.08
686.078	19.08
686.108	29.08
686.137	4.08
686.167	22.08
686.197	13.08
686.227	6.08
686.257	19.08
686.287	16.08
686.317	3.08
686.346	12.08
686.376	2.08
686.406	-2.92
686.436	10.08
686.466	2.08
686.496	3.08
686.525	-2.92
686.555	6.08
686.585	23.08
686.615	31.08
686.645	19.08
686.675	17.08
686.704	9.08
686.734	11.08
686.764	-8.92
686.794	9.08
686.824	-0.92
686.853	11.08
686.883	29.08
686.913	2.08
686.943	-2.92
686.973	9.08
687.002	16.08
687.032	15.08
687.062	-11.92
687.092	12.08
687.121	-2.92
687.151	11.08
687.181	10.08
687.211	22.08
687.24	-4.92
687.27	12.08
687.3	6.08
687.33	-7.92
687.359	-6.92
687.389	5.08
687.419	2.08
687.449	10.08
687.478	11.08
687.508	0.08
687.538	22.08
687.568	11.08
687.597	-10.92
687.627	10.08
687.657	-8.92
687.686	12.08
687.716	39.08
687.746	3.08
687.776	-27.92
687.805	16.08
687.835	13.08
687.865	10.08
687.894	3.08
687.924	-11.92
687.954	-1.92
687.983	7.08
688.013	4.08
688.043	9.08
688.072	-2.92
688.102	17.08
688.132	11.08
688.161	12.08
688.191	6.08
688.221	34.08
688.25	1.08
688.28	4.08
688.31	2.08
688.339	1.08
688.369	-5.92
688.399	6.08
688.428	3.08
688.458	6.08
688.488	-0.92
688.517	14.08
688.547	27.08
688.576	23.08
688.606	10.08
688.636	-0.92
688.665	7.08
688.695	14.08
688.725	22.08
688.754	21.08
688.784	11.08
688.813	26.08
688.843	10.08
688.873	27.08
688.902	1.08
688.932	0.08
688.961	18.08
688.991	27.08
689.02	20.08
689.05	11.08
689.08	9.08
689.109	14.08
689.139	7.08
689.168	13.08
689.198	23.08
689.227	16.08
689.257	15.08
689.287	14.08
689.316	16.08
689.346	4.08
689.375	-5.92
689.405	4.08
689.434	4.08
689.464	15.08
689.493	-8.92
689.523	-0.92
689.552	12.08
689.582	22.08
689.611	4.08
689.641	4.08
689.67	2.08
689.7	8.08
689.73	18.08
689.759	16.08
689.789	12.08
689.818	16.08
689.848	4.08
689.877	18.08
689.906	0.08
689.936	17.08
689.965	6.08
689.995	5.08
690.024	19.08
690.054	12.08
690.083	11.08
690.113	-4.92
690.142	12.08
690.172	14.08
690.201	1.08
690.231	17.08
690.26	11.08
690.29	1.08
690.319	16.08
690.348	2.08
690.378	9.08
690.407	1.08
690.437	14.08
690.466	12.08
690.496	5.08
690.525	24.08
690.555	13.08
690.584	3.08
690.613	-0.92
690.643	3.08
690.672	1.08
690.702	11.08
690.731	5.08
690.76	43.08
690.79	60.08
690.819	62.08
690.849	60.08
690.878	38.08
690.907	32.08
690.937	29.08
690.966	30.08
690.996	16.08
691.025	0.08
691.054	-9.92
691.084	11.08
691.113	3.08
691.142	9.08
691.172	3.08
691.201	25.08
691.23	-1.92
691.26	19.08
691.289	21.08
691.319	12.08
691.348	15.08
691.377	20.08
691.407	9.08
691.436	17.08
691.465	4.08
691.495	3.08
691.524	-8.92
691.553	2.08
691.583	-2.92
691.612	14.08
691.641	4.08
691.67	-0.92
691.7	10.08
691.729	-3.92
691.758	12.08
691.788	-2.92
691.817	6.08
691.846	-4.92
691.876	6.08
691.905	-2.92
691.934	-2.92
691.963	-1.92
691.993	-2.92
692.022	-1.92
692.051	-15.92
692.081	16.08
692.11	28.08
692.139	27.08
692.168	11.08
692.198	10.08
692.227	12.08
692.256	20.08
692.285	3.08
692.315	15.08
692.344	7.08
692.373	20.08
692.402	-1.92
692.432	-10.92
692.461	8.08
692.49	18.08
692.519	15.08
692.548	38.08
692.578	21.08
692.607	12.08
692.636	0.08
692.665	11.08
692.694	15.08
692.724	8.08
692.753	5.08
692.782	21.08
692.811	1.08
692.84	5.08
692.87	0.08
692.899	13.08
692.928	-1.92
692.957	17.08
692.986	-7.92
693.016	9.08
693.045	5.08
693.074	18.08
693.103	11.08
693.132	12.08
693.161	14.08
693.191	9.08
693.22	0.08
693.249	0.08
693.278	4.08
693.307	24.08
693.336	-9.92
693.365	-3.92
693.395	3.08
693.424	0.08
693.453	30.08
693.482	5.08
693.511	4.08
693.54	15.08
693.569	19.08
693.598	5.08
693.628	29.08
693.657	14.08
693.686	27.08
693.715	21.08
693.744	18.08
693.773	12.08
693.802	11.08
693.831	-2.92
693.86	24.08
693.889	1.08
693.919	18.08
693.948	3.08
693.977	8.08
694.006	11.08
694.035	6.08
694.064	-13.92
694.093	10.08
694.122	9.08
694.151	11.08
694.18	12.08
694.209	25.08
694.238	13.08
694.267	20.08
694.296	18.08
694.325	12.08
694.354	13.08
694.383	15.08
694.412	31.08
694.441	13.08
694.471	-5.92
694.5	-19.92
694.529	20.08
694.558	24.08
694.587	15.08
694.616	11.08
694.645	7.08
694.674	15.08
694.703	20.08
694.732	6.08
694.761	29.08
694.79	13.08
694.819	-8.92
694.848	8.08
694.877	33.08
694.906	31.08
694.935	26.08
694.963	26.08
694.992	4.08
695.021	17.08
695.05	18.08
695.079	7.08
695.108	4.08
695.137	28.08
695.166	14.08
695.195	-10.92
695.224	13.08
695.253	5.08
695.282	19.08
695.311	21.08
695.34	-0.92
695.369	16.08
695.398	12.08
695.427	12.08
695.456	1.08
695.485	22.08
695.513	7.08
695.542	15.08
695.571	21.08
695.6	34.08
695.629	24.08
695.658	16.08
695.687	6.08
695.716	-6.92
695.745	24.08
695.774	-5.92
695.802	2.08
695.831	23.08
695.86	16.08
695.889	5.08
695.918	12.08
695.947	5.08
695.976	7.08
696.005	12.08
696.033	18.08
696.062	12.08
696.091	0.08
696.12	9.08
696.149	12.08
696.178	18.08
696.207	14.08
696.235	-4.92
696.264	19.08
696.293	3.08
696.322	16.08
696.351	22.08
696.38	-7.92
696.408	-5.92
696.437	6.08
696.466	31.08
696.495	26.08
696.524	15.08
696.553	11.08
696.581	18.08
696.61	4.08
696.639	19.08
696.668	36.08
696.697	8.08
696.725	18.08
696.754	8.08
696.783	0.08
696.812	5.08
696.84	4.08
696.869	16.08
696.898	5.08
696.927	5.08
696.956	38.08
696.984	7.08
697.013	12.08
697.042	11.08
697.071	2.08
697.099	26.08
697.128	8.08
697.157	21.08
697.186	15.08
697.214	6.08
697.243	-0.92
697.272	-1.92
697.301	6.08
697.329	15.08
697.358	10.08
697.387	16.08
697.415	7.08
697.444	7.08
697.473	5.08
697.502	-5.92
697.53	14.08
697.559	22.08
697.588	18.08
697.616	5.08
697.645	-5.92
697.674	18.08
697.703	11.08
697.731	18.08
697.76	20.08
697.789	18.08
697.817	6.08
697.846	24.08
697.875	9.08
697.903	36.08
697.932	11.08
697.961	12.08
697.989	18.08
698.018	23.08
698.047	10.08
698.075	21.08
698.104	4.08
698.133	-7.92
698.161	-0.92
698.19	3.08
698.218	2.08
698.247	-4.92
698.276	15.08
698.304	14.08
698.333	13.08
698.362	2.08
698.39	15.08
698.419	22.08
698.447	-2.92
698.476	1.08
698.505	21.08
698.533	4.08
698.562	10.08
698.591	0.08
698.619	-14.92
698.648	9.08
698.676	13.08
698.705	-4.92
698.733	-8.92
698.762	12.08
698.791	16.08
698.819	14.08
698.848	5.08
698.876	25.08
698.905	20.08
698.933	9.08
698.962	9.08
698.991	20.08
699.019	26.08
699.048	14.08
699.076	16.08
699.105	1.08
699.133	17.08
699.162	25.08
699.19	13.08
699.219	10.08
699.248	16.08
699.276	23.08
699.305	-3.92
699.333	9.08
699.362	0.08
699.39	8.08
699.419	-13.92
699.447	7.08
699.476	3.08
699.504	13.08
699.533	0.08
699.561	1.08
699.59	9.08
699.618	8.08
699.647	-2.92
699.675	1.08
699.704	28.08
699.732	2.08
699.761	9.08
699.789	6.08
699.818	20.08
699.846	21.08
699.874	-8.92
699.903	2.08
699.931	14.08
699.96	13.08
699.988	-2.92
700.017	-3.92
700.045	3.08
700.074	-5.92
700.102	12.08
700.13	16.08
700.159	23.08
700.187	21.08
700.216	4.08
700.244	-5.92
700.273	-2.92
700.301	4.08
700.329	21.08
700.358	20.08
700.386	10.08
700.415	13.08
700.443	12.08
700.472	-7.92
700.5	-4.92
700.528	16.08
700.557	14.08
700.585	4.08
700.614	-8.92
700.642	7.08
700.67	17.08
700.699	5.08
700.727	24.08
700.755	16.08
700.784	8.08
700.812	5.08
700.841	27.08
700.869	8.08
700.897	-5.92
700.926	7.08
700.954	16.08
700.982	14.08
701.011	-3.92
701.039	20.08
701.067	25.08
701.096	15.08
701.124	4.08
701.152	-1.92
701.181	-1.92
701.209	-8.92
701.237	15.08
701.266	1.08
701.294	-5.92
701.322	-2.92
701.351	17.08
701.379	8.08
701.407	7.08
701.435	13.08
701.464	28.08
701.492	22.08
701.52	-4.92
701.549	7.08
701.577	12.08
701.605	12.08
701.634	4.08
701.662	19.08
701.69	-1.92
701.718	-9.92
701.747	16.08
701.775	2.08
701.803	-1.92
701.831	15.08
701.86	7.08
701.888	13.08
701.916	5.08
701.944	15.08
701.973	5.08
702.001	11.08
702.029	7.08
702.057	3.08
702.086	2.08
702.114	10.08
702.142	24.08
702.17	6.08
702.199	-4.92
702.227	-4.92
702.255	7.08
702.283	5.08
702.311	7.08
702.34	4.08
702.368	1.08
702.396	15.08
702.424	10.08
702.452	17.08
702.481	8.08
702.509	-12.92
702.537	5.08
702.565	12.08
702.593	-8.92
702.621	5.08
702.65	13.08
702.678	7.08
702.706	18.08
702.734	18.08
702.762	22.08
702.79	17.08
702.819	13.08
702.847	12.08
702.875	18.08
702.903	27.08
702.931	6.08
702.959	6.08
702.988	3.08
703.016	5.08
703.044	11.08
703.072	5.08
703.1	-4.92
703.128	13.08
703.156	12.08
703.184	15.08
703.212	30.08
703.241	4.08
703.269	10.08
703.297	-7.92
703.325	14.08
703.353	7.08
703.381	5.08
703.409	13.08
703.437	1.08
703.465	6.08
703.493	-5.92
703.522	25.08
703.55	11.08
703.578	2.08
703.606	-10.92
703.634	-3.92
703.662	-6.92
703.69	4.08
703.718	9.08
703.746	28.08
703.774	17.08
703.802	27.08
703.83	2.08
703.858	3.08
703.886	-14.92
703.914	-3.92
703.942	5.08
703.97	-4.92
703.998	-5.92
704.027	27.08
704.055	7.08
704.083	1.08
704.111	-2.92
704.139	-4.92
704.167	-5.92
704.195	14.08
704.223	-3.92
704.251	4.08
704.279	14.08
704.307	12.08
704.335	-0.92
704.363	0.08
704.391	2.08
704.419	2.08
704.447	-3.92
704.475	3.08
704.503	16.08
704.531	30.08
704.558	9.08
704.586	7.08
704.614	-5.92
704.642	30.08
704.67	6.08
704.698	2.08
704.726	6.08
704.754	5.08
704.782	4.08
704.81	10.08
704.838	19.08
704.866	4.08
704.894	0.08
704.922	-7.92
704.95	13.08
704.978	18.08
705.006	6.08
705.034	22.08
705.061	4.08
705.089	2.08
705.117	-0.92
705.145	-0.92
705.173	9.08
705.201	4.08
705.229	10.08
705.257	7.08
705.285	13.08
705.313	3.08
705.34	2.08
705.368	6.08
705.396	16.08
705.424	18.08
705.452	-8.92
705.48	21.08
705.508	1.08
705.536	1.08
705.563	2.08
705.591	19.08
705.619	17.08
705.647	1.08
705.675	14.08
705.703	-0.92
705.731	14.08
705.758	19.08
705.786	11.08
705.814	29.08
705.842	14.08
705.87	10.08
705.898	15.08
705.925	-7.92
705.953	17.08
705.981	4.08
706.009	6.08
706.037	0.08
706.065	-2.92
706.092	-20.92
706.12	-1.92
706.148	-9.92
706.176	-6.92
706.204	8.08
706.231	6.08
706.259	-11.92
706.287	2.08
706.315	26.08
706.342	6.08
706.37	15.08
706.398	4.08
706.426	1.08
706.454	4.08
706.481	7.08
706.509	14.08
706.537	-6.92
706.565	1.08
706.592	3.08
706.62	2.08
706.648	5.08
706.676	1.08
706.703	4.08
706.731	7.08
706.759	-8.92
706.787	7.08
706.814	11.08
706.842	6.08
706.87	12.08
706.897	3.08
706.925	7.08
706.953	20.08
706.981	12.08
707.008	0.08
707.036	11.08
707.064	0.08
707.091	-7.92
707.119	22.08
707.147	-0.92
707.174	8.08
707.202	2.08
707.23	-21.92
707.258	2.08
707.285	-2.92
707.313	-1.92
707.341	-12.92
707.368	0.08
707.396	9.08
707.424	22.08
707.451	6.08
707.479	10.08
707.507	11.08
707.534	-4.92
707.562	9.08
707.59	-0.92
707.617	6.08
707.645	-3.92
707.672	-1.92
707.7	4.08
707.728	8.08
707.755	2.08
707.783	3.08
707.811	6.08
707.838	1.08
707.866	4.08
707.893	24.08
707.921	2.08
707.949	3.08
707.976	9.08
708.004	3.08
708.031	3.08
708.059	-4.92
708.087	3.08
708.114	1.08
708.142	-6.92
708.169	16.08
708.197	-10.92
708.225	1.08
708.252	13.08
708.28	14.08
708.307	13.08
708.335	7.08
708.362	-0.92
708.39	-6.92
708.418	10.08
708.445	11.08
708.473	-3.92
708.5	-13.92
708.528	-1.92
708.555	9.08
708.583	0.08
708.61	11.08
708.638	11.08
708.665	-3.92
708.693	6.08
708.72	-6.92
708.748	-13.92
708.776	14.08
708.803	21.08
708.831	14.08
708.858	17.08
708.886	4.08
708.913	-7.92
708.941	-0.92
708.968	16.08
708.996	-9.92
709.023	18.08
709.051	11.08
709.078	-11.92
709.105	5.08
709.133	11.08
709.16	12.08
709.188	21.08
709.215	11.08
709.243	11.08
709.27	-10.92
709.298	2.08
709.325	1.08
709.353	14.08
709.38	7.08
709.408	4.08
709.435	6.08
709.462	5.08
709.49	21.08
709.517	2.08
709.545	-21.92
709.572	6.08
709.6	0.08
709.627	15.08
709.655	2.08
709.682	7.08
709.709	-3.92
709.737	-0.92
709.764	-9.92
709.792	-1.92
709.819	2.08
709.846	2.08
709.874	12.08
709.901	9.08
709.929	9.08
709.956	6.08
709.983	5.08
710.011	-2.92
710.038	2.08
710.066	18.08
710.093	5.08
710.12	9.08
710.148	-6.92
710.175	5.08
710.202	6.08
710.23	16.08
710.257	13.08
710.284	23.08
710.312	7.08
710.339	-4.92
710.366	10.08
710.394	-6.92
710.421	5.08
710.448	-3.92
710.476	-11.92
710.503	-2.92
710.53	16.08
710.558	18.08
710.585	4.08
710.612	3.08
710.64	14.08
710.667	-1.92
710.694	-5.92
710.722	-4.92
710.749	3.08
710.776	-2.92
710.804	6.08
710.831	5.08
710.858	3.08
710.885	2.08
710.913	-0.92
710.94	50.08
710.967	11.08
710.995	6.08
711.022	2.08
711.049	-3.92
711.076	-0.92
711.104	-4.92
711.131	-8.92
711.158	-14.92
711.185	12.08
711.213	-5.92
711.24	-9.92
711.267	-7.92
711.294	8.08
711.322	20.08
711.349	-6.92
711.376	-3.92
711.403	6.08
711.431	-1.92
711.458	7.08
711.485	1.08
711.512	7.08
711.54	2.08
711.567	8.08
711.594	-2.92
711.621	10.08
711.648	26.08
711.676	5.08
711.703	5.08
711.73	-3.92
711.757	9.08
711.784	-3.92
711.812	13.08
711.839	5.08
711.866	-0.92
711.893	8.08
711.92	13.08
711.947	11.08
711.975	9.08
712.002	5.08
712.029	32.08
712.056	9.08
712.083	18.08
712.11	-3.92
712.138	-14.92
712.165	-14.92
712.192	-0.92
712.219	-6.92
712.246	-8.92
712.273	5.08
712.3	-3.92
712.328	1.08
712.355	14.08
712.382	1.08
712.409	25.08
712.436	1.08
712.463	14.08
712.49	16.08
712.517	-6.92
712.544	0.08
712.572	10.08
712.599	0.08
712.626	7.08
712.653	2.08
712.68	-11.92
712.707	3.08
712.734	-1.92
712.761	5.08
712.788	8.08
712.815	1.08
712.842	8.08
712.87	2.08
712.897	1.08
712.924	-2.92
712.951	13.08
712.978	0.08
713.005	11.08
713.032	-0.92
713.059	14.08
713.086	2.08
713.113	-3.92
713.14	0.08
713.167	1.08
713.194	11.08
713.221	2.08
713.248	17.08
713.275	-4.92
713.302	-3.92
713.329	4.08
713.356	14.08
713.383	10.08
713.41	17.08
713.437	9.08
713.464	13.08
713.491	20.08
713.518	8.08
713.545	4.08
713.572	-3.92
713.599	13.08
713.626	16.08
713.653	13.08
713.68	-1.92
713.707	-0.92
713.734	11.08
713.761	6.08
713.788	0.08
713.815	27.08
713.842	4.08
713.869	-2.92
713.896	5.08
713.923	-5.92
713.95	-11.92
713.977	-1.92
714.004	-12.92
714.031	-14.92
714.058	-13.92
714.085	-1.92
714.112	23.08
714.139	1.08
714.165	1.08
714.192	-1.92
714.219	8.08
714.246	8.08
714.273	7.08
714.3	1.08
714.327	10.08
714.354	4.08
714.381	5.08
714.408	-1.92
714.435	-5.92
714.461	21.08
714.488	15.08
714.515	2.08
714.542	-12.92
714.569	-5.92
714.596	-18.92
714.623	13.08
714.65	-3.92
714.677	-1.92
714.703	13.08
714.73	13.08
714.757	19.08
714.784	8.08
714.811	5.08
714.838	-0.92
714.865	11.08
714.891	14.08
714.918	10.08
714.945	9.08
714.972	17.08
714.999	21.08
715.026	2.08
715.052	-5.92
715.079	3.08
715.106	0.08
715.133	13.08
715.16	-5.92
715.187	0.08
715.213	-0.92
715.24	-2.92
715.267	4.08
715.294	10.08
715.321	4.08
715.347	-0.92
715.374	-8.92
715.401	15.08
715.428	-0.92
715.455	-9.92
715.481	-15.92
715.508	2.08
715.535	-1.92
715.562	16.08
715.588	-5.92
715.615	-0.92
715.642	-1.92
715.669	24.08
715.695	10.08
715.722	6.08
715.749	21.08
715.776	11.08
715.802	7.08
715.829	15.08
715.856	-6.92
715.883	13.08
715.909	-3.92
715.936	6.08
715.963	4.08
715.99	-14.92
716.016	6.08
716.043	12.08
716.07	7.08
716.096	0.08
716.123	8.08
716.15	-4.92
716.177	4.08
716.203	5.08
716.23	0.08
716.257	-1.92
716.283	21.08
716.31	5.08
716.337	8.08
716.363	-0.92
716.39	14.08
716.417	29.08
716.443	6.08
716.47	18.08
716.497	20.08
716.523	20.08
716.55	16.08
716.577	15.08
716.603	4.08
716.63	8.08
716.657	12.08
716.683	-9.92
716.71	-7.92
716.737	-0.92
716.763	2.08
716.79	-2.92
716.817	13.08
716.843	3.08
716.87	-5.92
716.897	-6.92
716.923	12.08
716.95	-2.92
716.976	-11.92
717.003	18.08
717.03	12.08
717.056	10.08
717.083	4.08
717.109	7.08
717.136	5.08
717.163	17.08
717.189	1.08
717.216	-19.92
717.242	-9.92
717.269	-1.92
717.296	21.08
717.322	22.08
717.349	7.08
717.375	-0.92
717.402	-2.92
717.428	21.08
717.455	15.08
717.481	4.08
717.508	10.08
717.535	5.08
717.561	2.08
717.588	14.08
717.614	8.08
717.641	6.08
717.667	-2.92
717.694	10.08
717.72	-14.92
717.747	6.08
717.773	1.08
717.8	33.08
717.826	14.08
717.853	-8.92
717.88	12.08
717.906	15.08
717.933	2.08
717.959	6.08
717.986	2.08
718.012	8.08
718.039	14.08
718.065	8.08
718.092	11.08
718.118	-8.92
718.144	10.08
718.171	10.08
718.197	29.08
718.224	8.08
718.25	-1.92
718.277	5.08
718.303	8.08
718.33	1.08
718.356	-9.92
718.383	-9.92
718.409	6.08
718.436	-1.92
718.462	7.08
718.489	1.08
718.515	5.08
718.541	8.08
718.568	6.08
718.594	12.08
718.621	11.08
718.647	-0.92
718.674	2.08
718.7	6.08
718.726	1.08
718.753	3.08
718.779	14.08
718.806	2.08
718.832	7.08
718.858	9.08
718.885	-4.92
718.911	13.08
718.938	11.08
718.964	3.08
718.99	9.08
719.017	7.08
719.043	12.08
719.07	21.08
719.096	-2.92
719.122	9.08
719.149	7.08
719.175	1.08
719.201	9.08
719.228	14.08
719.254	-5.92
719.281	3.08
719.307	10.08
719.333	-1.92
719.36	14.08
719.386	0.08
719.412	10.08
719.439	-4.92
719.465	7.08
719.491	-4.92
719.518	17.08
719.544	7.08
719.57	20.08
719.597	13.08
719.623	0.08
719.649	17.08
719.675	9.08
719.702	15.08
719.728	8.08
719.754	-4.92
719.781	-1.92
719.807	4.08
719.833	2.08
719.86	7.08
719.886	2.08
719.912	20.08
719.938	17.08
719.965	17.08
719.991	12.08
720.017	9.08
720.044	5.08
720.07	21.08
720.096	13.08
720.122	6.08
720.149	16.08
720.175	34.08
720.201	10.08
720.227	0.08
720.254	8.08
720.28	15.08
720.306	2.08
720.332	10.08
720.359	14.08
720.385	9.08
720.411	14.08
720.437	14.08
720.463	5.08
720.49	17.08
720.516	6.08
720.542	-1.92
720.568	6.08
720.595	20.08
720.621	6.08
720.647	4.08
720.673	-6.92
720.699	2.08
720.725	5.08
720.752	13.08
720.778	7.08
720.804	4.08
720.83	4.08
720.856	13.08
720.883	-5.92
720.909	11.08
720.935	15.08
720.961	19.08
720.987	10.08
721.013	27.08
721.04	9.08
721.066	-3.92
721.092	-1.92
721.118	27.08
721.144	10.08
721.17	17.08
721.196	11.08
721.223	-10.92
721.249	-11.92
721.275	15.08
721.301	12.08
721.327	17.08
721.353	21.08
721.379	9.08
721.405	7.08
721.432	20.08
721.458	2.08
721.484	18.08
721.51	-9.92
721.536	19.08
721.562	-4.92
721.588	5.08
721.614	3.08
721.64	2.08
721.666	-2.92
721.693	3.08
721.719	19.08
721.745	-0.92
721.771	-1.92
721.797	1.08
721.823	7.08
721.849	29.08
721.875	18.08
721.901	13.08
721.927	2.08
721.953	8.08
721.979	28.08
722.005	12.08
722.031	-2.92
722.057	14.08
722.083	5.08
722.109	10.08
722.135	6.08
722.161	15.08
722.187	3.08
722.214	-1.92
722.24	12.08
722.266	2.08
722.292	22.08
722.318	15.08
722.344	4.08
722.37	11.08
722.396	6.08
722.422	7.08
722.448	22.08
722.474	2.08
722.5	19.08
722.526	10.08
722.552	1.08
722.578	-1.92
722.603	17.08
722.629	3.08
722.655	6.08
722.681	-1.92
722.707	1.08
722.733	16.08
722.759	-4.92
722.785	1.08
722.811	9.08
722.837	4.08
722.863	7.08
722.889	17.08
722.915	7.08
722.941	13.08
722.967	10.08
722.993	9.08
723.019	9.08
723.045	4.08
723.071	7.08
723.097	14.08
723.122	-1.92
723.148	-14.92
723.174	-9.92
723.2	-8.92
723.226	-6.92
723.252	9.08
723.278	9.08
723.304	-4.92
723.33	2.08
723.356	5.08
723.381	6.08
723.407	-1.92
723.433	17.08
723.459	14.08
723.485	2.08
723.511	10.08
723.537	2.08
723.563	11.08
723.588	9.08
723.614	20.08
723.64	5.08
723.666	0.08
723.692	7.08
723.718	4.08
723.744	0.08
723.769	-8.92
723.795	1.08
723.821	4.08
723.847	6.08
723.873	-2.92
723.899	10.08
723.924	-1.92
723.95	0.08
723.976	5.08
724.002	19.08
724.028	25.08
724.053	-5.92
724.079	-7.92
724.105	0.08
724.131	2.08
724.157	-5.92
724.182	14.08
724.208	3.08
724.234	-3.92
724.26	-1.92
724.286	13.08
724.311	2.08
724.337	-14.92
724.363	3.08
724.389	22.08
724.415	-0.92
724.44	18.08
724.466	-3.92
724.492	5.08
724.518	-3.92
724.543	2.08
724.569	5.08
724.595	22.08
724.621	4.08
724.646	3.08
724.672	-2.92
724.698	2.08
724.723	21.08
724.749	10.08
724.775	13.08
724.801	13.08
724.826	2.08
724.852	-1.92
724.878	10.08
724.904	1.08
724.929	14.08
724.955	4.08
724.981	7.08
725.006	21.08
725.032	15.08
725.058	21.08
725.083	12.08
725.109	8.08
725.135	19.08
725.161	14.08
725.186	10.08
725.212	5.08
725.238	13.08
725.263	-11.92
725.289	-5.92
725.315	-7.92
725.34	-1.92
725.366	22.08
725.392	-8.92
725.417	-2.92
725.443	10.08
725.468	20.08
725.494	10.08
725.52	2.08
725.545	13.08
725.571	-2.92
725.597	1.08
725.622	12.08
725.648	18.08
725.674	20.08
725.699	30.08
725.725	9.08
725.75	2.08
725.776	-11.92
725.802	12.08
725.827	12.08
725.853	11.08
725.878	11.08
725.904	14.08
725.93	12.08
725.955	-1.92
725.981	8.08
726.006	11.08
726.032	9.08
726.057	6.08
726.083	-9.92
726.109	11.08
726.134	7.08
726.16	-6.92
726.185	2.08
726.211	4.08
726.236	21.08
726.262	7.08
726.288	0.08
726.313	10.08
726.339	7.08
726.364	9.08
726.39	23.08
726.415	-6.92
726.441	3.08
726.466	1.08
726.492	20.08
726.517	15.08
726.543	0.08
726.568	-5.92
726.594	-2.92
726.619	4.08
726.645	23.08
726.67	4.08
726.696	14.08
726.721	-2.92
726.747	-4.92
726.772	5.08
726.798	12.08
726.823	10.08
726.849	11.08
726.874	28.08
726.9	36.08
726.925	26.08
726.951	18.08
726.976	14.08
727.002	3.08
727.027	-3.92
727.053	19.08
727.078	6.08
727.104	-3.92
727.129	-14.92
727.155	5.08
727.18	11.08
727.205	2.08
727.231	-6.92
727.256	1.08
727.282	16.08
727.307	15.08
727.333	6.08
727.358	1.08
727.383	-9.92
727.409	-13.92
727.434	11.08
727.46	7.08
727.485	20.08
727.511	25.08
727.536	3.08
727.561	5.08
727.587	-2.92
727.612	-4.92
727.637	14.08
727.663	8.08
727.688	23.08
727.714	6.08
727.739	1.08
727.764	-11.92
727.79	4.08
727.815	-0.92
727.841	17.08
727.866	9.08
727.891	-6.92
727.917	-6.92
727.942	-1.92
727.967	-2.92
727.993	-19.92
728.018	2.08
728.043	2.08
728.069	9.08
728.094	12.08
728.119	7.08
728.145	25.08
728.17	15.08
728.195	3.08
728.221	25.08
728.246	11.08
728.271	-13.92
728.297	-0.92
728.322	13.08
728.347	7.08
728.373	16.08
728.398	7.08
728.423	3.08
728.448	2.08
728.474	12.08
728.499	11.08
728.524	-7.92
728.55	1.08
728.575	4.08
728.6	-7.92
728.625	-4.92
728.651	-7.92
728.676	-5.92
728.701	14.08
728.727	13.08
728.752	-10.92
728.777	5.08
728.802	9.08
728.828	5.08
728.853	19.08
728.878	-1.92
728.903	-9.92
728.929	-8.92
728.954	-4.92
728.979	9.08
729.004	22.08
729.03	-9.92
729.055	17.08
729.08	-2.92
729.105	7.08
729.13	19.08
729.156	17.08
729.181	28.08
729.206	-10.92
729.231	5.08
729.256	7.08
729.282	9.08
729.307	-11.92
729.332	11.08
729.357	1.08
729.382	14.08
729.408	10.08
729.433	20.08
729.458	5.08
729.483	10.08
729.508	12.08
729.533	7.08
729.559	14.08
729.584	-6.92
729.609	5.08
729.634	20.08
729.659	6.08
729.684	6.08
729.71	27.08
729.735	0.08
729.76	11.08
729.785	-9.92
729.81	20.08
729.835	9.08
729.86	5.08
729.886	13.08
729.911	15.08
729.936	11.08
729.961	27.08
729.986	34.08
730.011	70.08
730.036	215.08
730.061	1043.08
730.086	2751.08
730.112	3489.08
730.137	2957.08
730.162	2216.08
730.187	1698.08
730.212	1290.08
730.237	831.08
730.262	481.08
730.287	254.08
730.312	143.08
730.337	87.08
730.362	62.08
730.387	45.08
730.413	23.08
730.438	8.08
730.463	23.08
730.488	25.08
730.513	16.08
730.538	2.08
730.563	24.08
730.588	16.08
730.613	5.08
730.638	1.08
730.663	14.08
730.688	30.08
730.713	20.08
730.738	14.08
730.763	18.08
730.788	6.08
730.813	23.08
730.838	1.08
730.863	11.08
730.888	1.08
730.913	9.08
730.938	-3.92
730.963	14.08
730.988	128.08
731.013	414.08
731.038	669.08
731.063	625.08
731.088	491.08
731.113	378.08
731.138	272.08
731.163	210.08
731.188	107.08
731.213	64.08
731.238	47.08
731.263	23.08
731.288	9.08
731.313	4.08
731.338	7.08
731.363	21.08
731.388	10.08
731.413	20.08
731.438	16.08
731.463	7.08
731.487	16.08
731.512	0.08
731.537	3.08
731.562	2.08
731.587	3.08
731.612	-6.92
731.637	12.08
731.662	16.08
731.687	-0.92
731.712	-9.92
731.737	1.08
731.762	0.08
731.786	12.08
731.811	-0.92
731.836	2.08
731.861	6.08
731.886	6.08
731.911	31.08
731.936	22.08
731.961	1.08
731.986	4.08
732.01	3.08
732.035	6.08
732.06	5.08
732.085	-7.92
732.11	-6.92
732.135	-5.92
732.16	4.08
732.184	6.08
732.209	6.08
732.234	-4.92
732.259	-5.92
732.284	6.08
732.309	7.08
732.334	6.08
732.358	-5.92
732.383	-1.92
732.408	2.08
732.433	10.08
732.458	15.08
732.482	10.08
732.507	15.08
732.532	15.08
732.557	15.08
732.582	28.08
732.607	34.08
732.631	60.08
732.656	97.08
732.681	163.08
732.706	326.08
732.73	465.08
732.755	409.08
732.78	299.08
732.805	259.08
732.83	193.08
732.854	132.08
732.879	99.08
732.904	43.08
732.929	23.08
732.953	30.08
732.978	16.08
733.003	0.08
733.028	5.08
733.052	20.08
733.077	4.08
733.102	16.08
733.127	10.08
733.151	9.08
733.176	18.08
733.201	19.08
733.226	-12.92
733.25	-4.92
733.275	6.08
733.3	-2.92
733.324	34.08
733.349	22.08
733.374	23.08
733.399	3.08
733.423	3.08
733.448	-1.92
733.473	4.08
733.497	7.08
733.522	6.08
733.547	16.08
733.571	10.08
733.596	14.08
733.621	19.08
733.646	11.08
733.67	6.08
733.695	-1.92
733.72	15.08
733.744	7.08
733.769	7.08
733.794	-2.92
733.818	-0.92
733.843	7.08
733.867	5.08
733.892	16.08
733.917	15.08
733.941	6.08
733.966	6.08
733.991	6.08
734.015	8.08
734.04	-1.92
734.065	15.08
734.089	10.08
734.114	-2.92
734.138	14.08
734.163	-12.92
734.188	-2.92
734.212	20.08
734.237	9.08
734.261	14.08
734.286	-4.92
734.311	9.08
734.335	-0.92
734.36	-12.92
734.384	3.08
734.409	15.08
734.434	-5.92
734.458	9.08
734.483	8.08
734.507	-3.92
734.532	7.08
734.556	2.08
734.581	3.08
734.606	18.08
734.63	-9.92
734.655	-2.92
734.679	1.08
734.704	-1.92
734.728	12.08
734.753	1.08
734.777	0.08
734.802	4.08
734.826	18.08
734.851	-2.92
734.876	17.08
734.9	16.08
734.925	25.08
734.949	-0.92
734.974	-4.92
734.998	14.08
735.023	-1.92
735.047	-2.92
735.072	16.08
735.096	10.08
735.121	-5.92
735.145	-7.92
735.17	-13.92
735.194	3.08
735.219	-5.92
735.243	-11.92
735.268	-0.92
735.292	10.08
735.317	-4.92
735.341	10.08
735.365	-17.92
735.39	29.08
735.414	18.08
735.439	8.08
735.463	14.08
735.488	15.08
735.512	5.08
735.537	5.08
735.561	-3.92
735.586	2.08
735.61	-5.92
735.634	2.08
735.659	7.08
735.683	19.08
735.708	-7.92
735.732	6.08
735.757	-3.92
735.781	1.08
735.805	18.08
735.83	-2.92
735.854	-8.92
735.879	-2.92
735.903	18.08
735.927	17.08
735.952	5.08
735.976	-14.92
736.001	-8.92
736.025	0.08
736.049	5.08
736.074	15.08
736.098	6.08
736.123	16.08
736.147	0.08
736.171	8.08
736.196	4.08
736.22	-10.92
736.244	7.08
736.269	-4.92
736.293	-5.92
736.317	6.08
736.342	17.08
736.366	21.08
736.39	10.08
736.415	6.08
736.439	4.08
736.463	22.08
736.488	25.08
736.512	8.08
736.536	-1.92
736.561	23.08
736.585	7.08
736.609	15.08
736.634	9.08
736.658	1.08
736.682	1.08
736.707	-3.92
736.731	-5.92
736.755	12.08
736.78	31.08
736.804	33.08
736.828	16.08
736.852	6.08
736.877	13.08
736.901	5.08
736.925	-0.92
736.949	-4.92
736.974	-5.92
736.998	1.08
737.022	4.08
737.047	-18.92
737.071	2.08
737.095	11.08
737.119	27.08
737.144	-3.92
737.168	-5.92
737.192	7.08
737.216	10.08
737.241	-1.92
737.265	11.08
737.289	13.08
737.313	21.08
737.337	20.08
737.362	15.08
737.386	9.08
737.41	-6.92
737.434	16.08
737.459	15.08
737.483	-0.92
737.507	11.08
737.531	19.08
737.555	12.08
737.58	4.08
737.604	3.08
737.628	-2.92
737.652	1.08
737.676	-5.92
737.701	9.08
737.725	20.08
737.749	12.08
737.773	5.08
737.797	-3.92
737.821	2.08
737.846	-0.92
737.87	45.08
737.894	-1.92
737.918	3.08
737.942	8.08
737.966	28.08
737.99	21.08
738.015	16.08
738.039	8.08
738.063	-10.92
738.087	5.08
738.111	11.08
738.135	7.08
738.159	-11.92
738.184	3.08
738.208	7.08
738.232	-1.92
738.256	21.08
738.28	14.08
738.304	13.08
738.328	-5.92
738.352	7.08
738.376	8.08
738.4	9.08
738.425	25.08
738.449	12.08
738.473	21.08
738.497	12.08
738.521	16.08
738.545	13.08
738.569	12.08
738.593	29.08
738.617	14.08
738.641	9.08
738.665	-1.92
738.689	35.08
738.713	3.08
738.737	14.08
738.762	15.08
738.786	12.08
738.81	9.08
738.834	24.08
738.858	8.08
738.882	16.08
738.906	5.08
738.93	3.08
738.954	15.08
738.978	8.08
739.002	-1.92
739.026	7.08
739.05	10.08
739.074	6.08
739.098	46.08
739.122	21.08
739.146	14.08
739.17	22.08
739.194	16.08
739.218	1.08
739.242	-6.92
739.266	12.08
739.29	13.08
739.314	9.08
739.338	-0.92
739.362	11.08
739.386	0.08
739.41	5.08
739.434	-3.92
739.458	9.08
739.482	9.08
739.506	26.08
739.53	9.08
739.554	12.08
739.577	5.08
739.601	23.08
739.625	8.08
739.649	13.08
739.673	-2.92
739.697	13.08
739.721	2.08
739.745	5.08
739.769	17.08
739.793	14.08
739.817	4.08
739.841	-16.92
739.865	-1.92
739.889	2.08
739.912	5.08
739.936	3.08
739.96	3.08
739.984	15.08
740.008	7.08
740.032	3.08
740.056	1.08
740.08	1.08
740.104	-3.92
740.127	12.08
740.151	20.08
740.175	4.08
740.199	7.08
740.223	57.08
740.247	30.08
740.271	-2.92
740.295	1.08
740.318	-3.92
740.342	-9.92
740.366	2.08
740.39	14.08
740.414	15.08
740.438	17.08
740.461	15.08
740.485	2.08
740.509	7.08
740.533	22.08
740.557	-2.92
740.581	7.08
740.604	-1.92
740.628	8.08
740.652	15.08
740.676	5.08
740.7	20.08
740.723	2.08
740.747	9.08
740.771	16.08
740.795	10.08
740.819	14.08
740.842	14.08
740.866	13.08
740.89	5.08
740.914	3.08
740.938	-10.92
740.961	6.08
740.985	11.08
741.009	-11.92
741.033	-7.92
741.056	7.08
741.08	4.08
741.104	-1.92
741.128	7.08
741.151	22.08
741.175	-9.92
741.199	-0.92
741.223	11.08
741.246	9.08
741.27	4.08
741.294	8.08
741.318	-0.92
741.341	11.08
741.365	5.08
741.389	20.08
741.413	6.08
741.436	22.08
741.46	-1.92
741.484	12.08
741.507	12.08
741.531	36.08
741.555	7.08
741.579	8.08
741.602	13.08
741.626	9.08
741.65	-0.92
741.673	13.08
741.697	20.08
741.721	18.08
741.744	2.08
741.768	-2.92
741.792	-2.92
741.815	12.08
741.839	11.08
741.863	18.08
741.886	5.08
741.91	7.08
741.934	14.08
741.957	-1.92
741.981	9.08
742.005	7.08
742.028	0.08
742.052	9.08
742.075	12.08
742.099	21.08
742.123	9.08
742.146	5.08
742.17	-2.92
742.194	-3.92
742.217	4.08
742.241	-6.92
742.264	-7.92
742.288	23.08
742.312	9.08
742.335	20.08
742.359	6.08
742.382	20.08
742.406	15.08
742.43	-13.92
742.453	-1.92
742.477	-4.92
742.5	9.08
742.524	-5.92
742.548	-5.92
742.571	-3.92
742.595	4.08
742.618	-2.92
742.642	6.08
742.665	15.08
742.689	-9.92
742.712	18.08
742.736	-5.92
742.76	20.08
742.783	2.08
742.807	2.08
742.83	9.08
742.854	-8.92
742.877	2.08
742.901	7.08
742.924	5.08
742.948	9.08
742.971	27.08
742.995	9.08
743.018	-20.92
743.042	1.08
743.065	2.08
743.089	-0.92
743.112	5.08
743.136	-3.92
743.159	-5.92
743.183	3.08
743.206	-0.92
743.23	10.08
743.253	23.08
743.277	31.08
743.3	19.08
743.324	13.08
743.347	-0.92
743.371	26.08
743.394	11.08
743.418	15.08
743.441	21.08
743.465	19.08
743.488	6.08
743.512	-7.92
743.535	1.08
743.558	-2.92
743.582	0.08
743.605	7.08
743.629	5.08
743.652	9.08
743.676	6.08
743.699	18.08
743.723	-1.92
743.746	1.08
743.769	-0.92
743.793	-2.92
743.816	9.08
743.84	26.08
743.863	11.08
743.886	16.08
743.91	17.08
743.933	1.08
743.957	7.08
743.98	-11.92
744.003	-1.92
744.027	-0.92
744.05	-5.92
744.074	12.08
744.097	1.08
744.12	6.08
744.144	9.08
744.167	35.08
744.19	-0.92
744.214	19.08
744.237	-1.92
744.26	21.08
744.284	6.08
744.307	10.08
744.331	9.08
744.354	-5.92
744.377	4.08
744.401	-5.92
744.424	4.08
744.447	-12.92
744.471	-9.92
