Data from HighRes_mercury_15_13_11_07_2024_HR4C61891__78__15-14-30-986.txt Node

Date: Thu Nov 07 15:14:30 EST 2024
User: crc00042
Spectrometer: HR4C6189
Trigger mode: 4
Integration Time (sec): 1.000000E-1
Scans to average: 1
Electric dark correction enabled: true
Nonlinearity correction enabled: false
Boxcar width: 0
XAxis mode: Wavelengths
Number of Pixels in Spectrum: 3648
>>>>>Begin Spectral Data<<<<<
639.567	-20.62
639.602	-20.62
639.636	-20.62
639.67	-38.62
639.704	-14.62
639.738	-1.62
639.773	8.38
639.807	-7.62
639.841	3.38
639.875	15.38
639.909	-0.62
639.943	-8.62
639.978	-15.62
640.012	1.38
640.046	17.38
640.08	4.38
640.114	-2.62
640.148	-13.62
640.182	2.38
640.217	-2.62
640.251	13.38
640.285	12.38
640.319	-11.62
640.353	11.38
640.387	6.38
640.421	10.38
640.455	5.38
640.49	14.38
640.524	14.38
640.558	3.38
640.592	13.38
640.626	10.38
640.66	8.38
640.694	0.38
640.728	15.38
640.762	8.38
640.796	7.38
640.83	23.38
640.865	-1.62
640.899	11.38
640.933	7.38
640.967	21.38
641.001	6.38
641.035	3.38
641.069	7.38
641.103	-5.62
641.137	0.38
641.171	-9.62
641.205	21.38
641.239	3.38
641.273	15.38
641.307	10.38
641.341	4.38
641.375	-4.62
641.409	9.38
641.443	3.38
641.477	1.38
641.511	11.38
641.545	7.38
641.579	3.38
641.614	0.38
641.648	-4.62
641.682	-3.62
641.716	-0.62
641.75	4.38
641.784	9.38
641.818	10.38
641.852	19.38
641.886	-2.62
641.919	17.38
641.953	18.38
641.987	-15.62
642.021	3.38
642.055	-0.62
642.089	7.38
642.123	-7.62
642.157	12.38
642.191	-4.62
642.225	19.38
642.259	4.38
642.293	8.38
642.327	4.38
642.361	-2.62
642.395	13.38
642.429	12.38
642.463	-4.62
642.497	5.38
642.531	8.38
642.565	9.38
642.599	2.38
642.633	-8.62
642.666	14.38
642.7	13.38
642.734	18.38
642.768	-8.62
642.802	-10.62
642.836	8.38
642.87	5.38
642.904	10.38
642.938	10.38
642.972	-5.62
643.005	6.38
643.039	30.38
643.073	7.38
643.107	8.38
643.141	-3.62
643.175	6.38
643.209	3.38
643.243	2.38
643.276	23.38
643.31	-1.62
643.344	2.38
643.378	18.38
643.412	5.38
643.446	8.38
643.48	2.38
643.513	7.38
643.547	-0.62
643.581	3.38
643.615	-10.62
643.649	11.38
643.683	-7.62
643.716	0.38
643.75	-2.62
643.784	-6.62
643.818	12.38
643.852	12.38
643.886	-0.62
643.919	11.38
643.953	13.38
643.987	6.38
644.021	8.38
644.055	4.38
644.088	17.38
644.122	-12.62
644.156	1.38
644.19	-7.62
644.224	8.38
644.257	0.38
644.291	10.38
644.325	9.38
644.359	7.38
644.392	24.38
644.426	14.38
644.46	-2.62
644.494	12.38
644.527	-10.62
644.561	-2.62
644.595	-6.62
644.629	1.38
644.662	-11.62
644.696	13.38
644.73	7.38
644.764	15.38
644.797	8.38
644.831	-5.62
644.865	-2.62
644.899	7.38
644.932	16.38
644.966	2.38
645	21.38
645.033	22.38
645.067	7.38
645.101	16.38
645.135	-2.62
645.168	-0.62
645.202	-7.62
645.236	0.38
645.269	13.38
645.303	-5.62
645.337	4.38
645.37	-14.62
645.404	0.38
645.438	3.38
645.471	1.38
645.505	3.38
645.539	14.38
645.572	-0.62
645.606	-4.62
645.64	3.38
645.673	6.38
645.707	26.38
645.741	4.38
645.774	-1.62
645.808	14.38
645.842	7.38
645.875	6.38
645.909	-4.62
645.943	-5.62
645.976	4.38
646.01	19.38
646.043	0.38
646.077	-0.62
646.111	0.38
646.144	9.38
646.178	1.38
646.212	-10.62
646.245	9.38
646.279	7.38
646.312	7.38
646.346	15.38
646.38	9.38
646.413	15.38
646.447	0.38
646.48	-14.62
646.514	13.38
646.547	8.38
646.581	7.38
646.615	-3.62
646.648	-11.62
646.682	5.38
646.715	-17.62
646.749	11.38
646.782	3.38
646.816	-5.62
646.85	2.38
646.883	-7.62
646.917	5.38
646.95	8.38
646.984	3.38
647.017	0.38
647.051	12.38
647.084	-1.62
647.118	-3.62
647.151	7.38
647.185	-7.62
647.218	2.38
647.252	0.38
647.285	-5.62
647.319	-1.62
647.353	9.38
647.386	28.38
647.42	18.38
647.453	-6.62
647.487	12.38
647.52	6.38
647.553	-1.62
647.587	8.38
647.62	-8.62
647.654	7.38
647.687	10.38
647.721	14.38
647.754	17.38
647.788	4.38
647.821	-4.62
647.855	-2.62
647.888	17.38
647.922	11.38
647.955	11.38
647.989	8.38
648.022	8.38
648.055	7.38
648.089	10.38
648.122	26.38
648.156	10.38
648.189	8.38
648.223	20.38
648.256	17.38
648.29	10.38
648.323	8.38
648.356	10.38
648.39	18.38
648.423	9.38
648.457	14.38
648.49	13.38
648.523	23.38
648.557	0.38
648.59	-8.62
648.624	6.38
648.657	-3.62
648.69	20.38
648.724	-2.62
648.757	25.38
648.791	15.38
648.824	4.38
648.857	27.38
648.891	3.38
648.924	-7.62
648.957	11.38
648.991	-1.62
649.024	24.38
649.057	-1.62
649.091	2.38
649.124	8.38
649.158	6.38
649.191	29.38
649.224	21.38
649.258	13.38
649.291	3.38
649.324	5.38
649.358	10.38
649.391	6.38
649.424	1.38
649.458	-0.62
649.491	5.38
649.524	5.38
649.557	-2.62
649.591	-13.62
649.624	-7.62
649.657	-1.62
649.691	7.38
649.724	-1.62
649.757	3.38
649.791	-14.62
649.824	10.38
649.857	22.38
649.89	8.38
649.924	-11.62
649.957	-4.62
649.99	-6.62
650.023	7.38
650.057	12.38
650.09	22.38
650.123	-11.62
650.157	31.38
650.19	25.38
650.223	9.38
650.256	-15.62
650.29	11.38
650.323	20.38
650.356	4.38
650.389	-2.62
650.423	-13.62
650.456	9.38
650.489	6.38
650.522	20.38
650.555	8.38
650.589	12.38
650.622	10.38
650.655	8.38
650.688	12.38
650.721	9.38
650.755	9.38
650.788	7.38
650.821	4.38
650.854	7.38
650.887	7.38
650.921	-9.62
650.954	-8.62
650.987	6.38
651.02	-0.62
651.053	1.38
651.087	0.38
651.12	21.38
651.153	10.38
651.186	9.38
651.219	-22.62
651.252	4.38
651.286	11.38
651.319	-8.62
651.352	1.38
651.385	0.38
651.418	4.38
651.451	14.38
651.484	6.38
651.518	-7.62
651.551	14.38
651.584	-11.62
651.617	10.38
651.65	13.38
651.683	12.38
651.716	11.38
651.749	2.38
651.783	3.38
651.816	6.38
651.849	10.38
651.882	11.38
651.915	3.38
651.948	19.38
651.981	-3.62
652.014	-8.62
652.047	3.38
652.08	2.38
652.114	-3.62
652.147	-9.62
652.18	4.38
652.213	20.38
652.246	9.38
652.279	-4.62
652.312	9.38
652.345	7.38
652.378	7.38
652.411	9.38
652.444	20.38
652.477	13.38
652.51	-0.62
652.543	-20.62
652.576	2.38
652.609	0.38
652.642	25.38
652.675	5.38
652.709	5.38
652.742	4.38
652.775	4.38
652.808	14.38
652.841	13.38
652.874	1.38
652.907	-2.62
652.94	-11.62
652.973	-11.62
653.006	3.38
653.039	-0.62
653.072	6.38
653.105	-9.62
653.138	-6.62
653.171	-8.62
653.204	-2.62
653.237	-0.62
653.27	4.38
653.303	4.38
653.336	14.38
653.368	-14.62
653.401	19.38
653.434	-9.62
653.467	12.38
653.5	-1.62
653.533	-6.62
653.566	7.38
653.599	2.38
653.632	16.38
653.665	-3.62
653.698	-6.62
653.731	-7.62
653.764	12.38
653.797	-10.62
653.83	17.38
653.863	11.38
653.896	10.38
653.929	-0.62
653.961	8.38
653.994	-9.62
654.027	4.38
654.06	26.38
654.093	20.38
654.126	-1.62
654.159	-1.62
654.192	-0.62
654.225	-2.62
654.258	-13.62
654.29	11.38
654.323	5.38
654.356	5.38
654.389	15.38
654.422	3.38
654.455	4.38
654.488	18.38
654.521	-1.62
654.553	-20.62
654.586	3.38
654.619	8.38
654.652	-20.62
654.685	2.38
654.718	-29.62
654.751	7.38
654.783	1.38
654.816	20.38
654.849	8.38
654.882	2.38
654.915	-6.62
654.948	19.38
654.98	1.38
655.013	-7.62
655.046	-5.62
655.079	-20.62
655.112	-4.62
655.144	-8.62
655.177	6.38
655.21	8.38
655.243	19.38
655.276	3.38
655.308	1.38
655.341	8.38
655.374	-3.62
655.407	-3.62
655.44	-1.62
655.472	2.38
655.505	7.38
655.538	-11.62
655.571	8.38
655.603	18.38
655.636	4.38
655.669	2.38
655.702	9.38
655.734	3.38
655.767	-1.62
655.8	-10.62
655.833	0.38
655.865	9.38
655.898	5.38
655.931	2.38
655.964	-1.62
655.996	2.38
656.029	13.38
656.062	-5.62
656.095	-9.62
656.127	-3.62
656.16	0.38
656.193	1.38
656.225	15.38
656.258	19.38
656.291	15.38
656.324	14.38
656.356	16.38
656.389	-10.62
656.422	7.38
656.454	5.38
656.487	12.38
656.52	7.38
656.552	20.38
656.585	13.38
656.618	9.38
656.65	14.38
656.683	-4.62
656.716	5.38
656.748	8.38
656.781	3.38
656.814	-15.62
656.846	1.38
656.879	-0.62
656.912	-0.62
656.944	-5.62
656.977	5.38
657.01	8.38
657.042	17.38
657.075	12.38
657.108	0.38
657.14	0.38
657.173	34.38
657.205	21.38
657.238	16.38
657.271	11.38
657.303	-0.62
657.336	-7.62
657.369	-6.62
657.401	-4.62
657.434	-2.62
657.466	6.38
657.499	6.38
657.532	7.38
657.564	3.38
657.597	3.38
657.629	-2.62
657.662	-7.62
657.694	7.38
657.727	-8.62
657.76	7.38
657.792	1.38
657.825	-8.62
657.857	-14.62
657.89	3.38
657.922	3.38
657.955	-22.62
657.987	4.38
658.02	11.38
658.053	13.38
658.085	9.38
658.118	14.38
658.15	17.38
658.183	23.38
658.215	-9.62
658.248	-24.62
658.28	-4.62
658.313	19.38
658.345	-2.62
658.378	-7.62
658.41	5.38
658.443	6.38
658.475	-5.62
658.508	-5.62
658.54	-5.62
658.573	0.38
658.605	18.38
658.638	0.38
658.67	6.38
658.703	6.38
658.735	-9.62
658.768	-0.62
658.8	-15.62
658.833	21.38
658.865	13.38
658.898	0.38
658.93	-0.62
658.963	11.38
658.995	-11.62
659.028	-2.62
659.06	1.38
659.092	-1.62
659.125	11.38
659.157	4.38
659.19	-5.62
659.222	-1.62
659.255	4.38
659.287	12.38
659.32	-4.62
659.352	-5.62
659.384	23.38
659.417	-4.62
659.449	14.38
659.482	23.38
659.514	-5.62
659.546	-11.62
659.579	-8.62
659.611	6.38
659.644	-12.62
659.676	-6.62
659.708	-19.62
659.741	1.38
659.773	10.38
659.806	4.38
659.838	6.38
659.87	-0.62
659.903	-6.62
659.935	11.38
659.967	4.38
660	9.38
660.032	-3.62
660.065	22.38
660.097	-6.62
660.129	-12.62
660.162	0.38
660.194	3.38
660.226	22.38
660.259	17.38
660.291	-3.62
660.323	8.38
660.356	25.38
660.388	4.38
660.42	-15.62
660.453	8.38
660.485	17.38
660.517	7.38
660.55	15.38
660.582	1.38
660.614	12.38
660.647	5.38
660.679	-5.62
660.711	14.38
660.743	-7.62
660.776	-7.62
660.808	-7.62
660.84	-7.62
660.873	1.38
660.905	-7.62
660.937	6.38
660.969	-12.62
661.002	-5.62
661.034	11.38
661.066	4.38
661.099	-11.62
661.131	27.38
661.163	15.38
661.195	-7.62
661.228	7.38
661.26	2.38
661.292	10.38
661.324	-2.62
661.357	6.38
661.389	10.38
661.421	6.38
661.453	-10.62
661.485	4.38
661.518	7.38
661.55	0.38
661.582	-15.62
661.614	-10.62
661.647	4.38
661.679	1.38
661.711	1.38
661.743	-3.62
661.775	4.38
661.808	8.38
661.84	-13.62
661.872	-4.62
661.904	-2.62
661.936	3.38
661.969	-1.62
662.001	1.38
662.033	14.38
662.065	-12.62
662.097	5.38
662.129	24.38
662.162	-5.62
662.194	4.38
662.226	12.38
662.258	6.38
662.29	14.38
662.322	-3.62
662.355	0.38
662.387	22.38
662.419	11.38
662.451	2.38
662.483	12.38
662.515	4.38
662.547	-4.62
662.58	3.38
662.612	-2.62
662.644	-9.62
662.676	4.38
662.708	29.38
662.74	1.38
662.772	-8.62
662.804	13.38
662.836	29.38
662.869	-3.62
662.901	13.38
662.933	-1.62
662.965	17.38
662.997	4.38
663.029	-5.62
663.061	-2.62
663.093	5.38
663.125	13.38
663.157	-15.62
663.189	-7.62
663.221	11.38
663.254	0.38
663.286	7.38
663.318	-0.62
663.35	3.38
663.382	0.38
663.414	12.38
663.446	11.38
663.478	-0.62
663.51	18.38
663.542	-5.62
663.574	0.38
663.606	7.38
663.638	-25.62
663.67	-15.62
663.702	-8.62
663.734	7.38
663.766	14.38
663.798	11.38
663.83	8.38
663.862	17.38
663.894	7.38
663.926	-10.62
663.958	12.38
663.99	13.38
664.022	-2.62
664.054	5.38
664.086	0.38
664.118	1.38
664.15	-10.62
664.182	-7.62
664.214	12.38
664.246	20.38
664.278	0.38
664.31	20.38
664.342	2.38
664.374	-5.62
664.406	3.38
664.438	15.38
664.47	24.38
664.502	-2.62
664.534	2.38
664.566	-7.62
664.598	18.38
664.63	0.38
664.662	6.38
664.693	5.38
664.725	-8.62
664.757	4.38
664.789	-1.62
664.821	6.38
664.853	16.38
664.885	-5.62
664.917	5.38
664.949	14.38
664.981	13.38
665.013	8.38
665.045	-7.62
665.076	-2.62
665.108	-4.62
665.14	3.38
665.172	-5.62
665.204	5.38
665.236	-2.62
665.268	2.38
665.3	1.38
665.331	-15.62
665.363	12.38
665.395	-2.62
665.427	-1.62
665.459	11.38
665.491	-3.62
665.523	6.38
665.555	-2.62
665.586	-6.62
665.618	-4.62
665.65	-12.62
665.682	15.38
665.714	10.38
665.746	-6.62
665.777	11.38
665.809	3.38
665.841	12.38
665.873	5.38
665.905	5.38
665.937	26.38
665.968	8.38
666	-2.62
666.032	1.38
666.064	2.38
666.096	3.38
666.127	19.38
666.159	21.38
666.191	10.38
666.223	9.38
666.255	10.38
666.286	-1.62
666.318	11.38
666.35	16.38
666.382	7.38
666.413	-5.62
666.445	-22.62
666.477	-12.62
666.509	-5.62
666.54	16.38
666.572	5.38
666.604	10.38
666.636	14.38
666.667	36.38
666.699	21.38
666.731	4.38
666.763	4.38
666.794	2.38
666.826	13.38
666.858	7.38
666.89	27.38
666.921	5.38
666.953	1.38
666.985	5.38
667.017	23.38
667.048	29.38
667.08	1.38
667.112	-8.62
667.143	-19.62
667.175	10.38
667.207	13.38
667.238	9.38
667.27	9.38
667.302	5.38
667.334	-12.62
667.365	1.38
667.397	-10.62
667.429	9.38
667.46	21.38
667.492	13.38
667.524	-9.62
667.555	4.38
667.587	9.38
667.619	-3.62
667.65	-12.62
667.682	10.38
667.714	9.38
667.745	2.38
667.777	0.38
667.808	-4.62
667.84	5.38
667.872	-11.62
667.903	18.38
667.935	-1.62
667.967	7.38
667.998	5.38
668.03	-5.62
668.061	10.38
668.093	-5.62
668.125	-12.62
668.156	-2.62
668.188	8.38
668.22	-5.62
668.251	6.38
668.283	10.38
668.314	25.38
668.346	6.38
668.377	12.38
668.409	3.38
668.441	29.38
668.472	13.38
668.504	9.38
668.535	18.38
668.567	17.38
668.599	0.38
668.63	1.38
668.662	-11.62
668.693	20.38
668.725	-3.62
668.756	10.38
668.788	22.38
668.819	13.38
668.851	6.38
668.882	-4.62
668.914	-2.62
668.946	-3.62
668.977	-23.62
669.009	-11.62
669.04	-23.62
669.072	-1.62
669.103	10.38
669.135	9.38
669.166	9.38
669.198	4.38
669.229	4.38
669.261	-4.62
669.292	-15.62
669.324	-2.62
669.355	1.38
669.387	-2.62
669.418	-1.62
669.45	-18.62
669.481	-2.62
669.513	5.38
669.544	30.38
669.576	11.38
669.607	9.38
669.639	8.38
669.67	-1.62
669.701	8.38
669.733	3.38
669.764	1.38
669.796	8.38
669.827	5.38
669.859	7.38
669.89	9.38
669.922	12.38
669.953	9.38
669.985	-2.62
670.016	5.38
670.047	3.38
670.079	-3.62
670.11	10.38
670.142	-0.62
670.173	-1.62
670.204	1.38
670.236	10.38
670.267	-4.62
670.299	0.38
670.33	11.38
670.362	-1.62
670.393	-0.62
670.424	10.38
670.456	-20.62
670.487	-9.62
670.518	3.38
670.55	23.38
670.581	9.38
670.613	1.38
670.644	-4.62
670.675	-13.62
670.707	-3.62
670.738	5.38
670.769	3.38
670.801	6.38
670.832	1.38
670.864	0.38
670.895	4.38
670.926	0.38
670.958	19.38
670.989	-1.62
671.02	-13.62
671.052	7.38
671.083	-8.62
671.114	-6.62
671.146	23.38
671.177	16.38
671.208	0.38
671.24	5.38
671.271	-0.62
671.302	23.38
671.333	-2.62
671.365	-6.62
671.396	4.38
671.427	13.38
671.459	10.38
671.49	9.38
671.521	-5.62
671.553	1.38
671.584	22.38
671.615	-2.62
671.646	1.38
671.678	1.38
671.709	-10.62
671.74	-13.62
671.771	3.38
671.803	3.38
671.834	3.38
671.865	-10.62
671.896	-5.62
671.928	-2.62
671.959	-16.62
671.99	2.38
672.021	3.38
672.053	2.38
672.084	11.38
672.115	5.38
672.146	-7.62
672.178	-9.62
672.209	1.38
672.24	4.38
672.271	30.38
672.303	-5.62
672.334	5.38
672.365	-6.62
672.396	3.38
672.427	32.38
672.459	10.38
672.49	18.38
672.521	11.38
672.552	9.38
672.583	5.38
672.615	14.38
672.646	9.38
672.677	-3.62
672.708	-7.62
672.739	1.38
672.77	27.38
672.802	16.38
672.833	-4.62
672.864	12.38
672.895	-2.62
672.926	-5.62
672.957	-6.62
672.989	3.38
673.02	6.38
673.051	0.38
673.082	6.38
673.113	5.38
673.144	11.38
673.175	19.38
673.206	3.38
673.238	0.38
673.269	-6.62
673.3	4.38
673.331	8.38
673.362	0.38
673.393	12.38
673.424	11.38
673.455	25.38
673.487	9.38
673.518	16.38
673.549	8.38
673.58	4.38
673.611	4.38
673.642	0.38
673.673	-13.62
673.704	1.38
673.735	-4.62
673.766	-4.62
673.797	-9.62
673.828	4.38
673.86	-10.62
673.891	-15.62
673.922	-15.62
673.953	-7.62
673.984	1.38
674.015	17.38
674.046	10.38
674.077	0.38
674.108	0.38
674.139	5.38
674.17	0.38
674.201	-2.62
674.232	-0.62
674.263	7.38
674.294	-11.62
674.325	0.38
674.356	23.38
674.387	4.38
674.418	-6.62
674.449	-15.62
674.48	2.38
674.511	22.38
674.542	3.38
674.573	-3.62
674.604	10.38
674.635	-6.62
674.666	8.38
674.697	18.38
674.728	-5.62
674.759	1.38
674.79	-20.62
674.821	-1.62
674.852	0.38
674.883	-1.62
674.914	1.38
674.945	7.38
674.976	4.38
675.007	-7.62
675.038	4.38
675.069	-1.62
675.1	-18.62
675.131	9.38
675.162	-11.62
675.193	-0.62
675.224	7.38
675.254	11.38
675.285	-3.62
675.316	13.38
675.347	8.38
675.378	-4.62
675.409	-19.62
675.44	6.38
675.471	5.38
675.502	6.38
675.533	-16.62
675.564	1.38
675.595	4.38
675.625	29.38
675.656	9.38
675.687	-2.62
675.718	-4.62
675.749	10.38
675.78	5.38
675.811	-1.62
675.842	-13.62
675.873	-12.62
675.903	1.38
675.934	5.38
675.965	-1.62
675.996	-5.62
676.027	7.38
676.058	5.38
676.089	-5.62
676.119	-3.62
676.15	-11.62
676.181	4.38
676.212	-16.62
676.243	2.38
676.274	1.38
676.304	17.38
676.335	-2.62
676.366	6.38
676.397	-8.62
676.428	-5.62
676.459	12.38
676.489	12.38
676.52	1.38
676.551	3.38
676.582	-6.62
676.613	13.38
676.643	-5.62
676.674	25.38
676.705	14.38
676.736	-1.62
676.767	22.38
676.797	23.38
676.828	4.38
676.859	0.38
676.89	-10.62
676.92	8.38
676.951	5.38
676.982	0.38
677.013	7.38
677.044	8.38
677.074	11.38
677.105	-5.62
677.136	8.38
677.167	-8.62
677.197	13.38
677.228	-10.62
677.259	-11.62
677.289	3.38
677.32	7.38
677.351	-1.62
677.382	-3.62
677.412	-12.62
677.443	9.38
677.474	3.38
677.505	-11.62
677.535	8.38
677.566	-4.62
677.597	-6.62
677.627	-13.62
677.658	-2.62
677.689	4.38
677.72	7.38
677.75	-3.62
677.781	18.38
677.812	12.38
677.842	9.38
677.873	13.38
677.904	8.38
677.934	-2.62
677.965	3.38
677.996	-5.62
678.026	10.38
678.057	-4.62
678.088	-18.62
678.118	-12.62
678.149	-20.62
678.18	0.38
678.21	13.38
678.241	2.38
678.272	-3.62
678.302	-6.62
678.333	9.38
678.363	9.38
678.394	-0.62
678.425	-7.62
678.455	8.38
678.486	17.38
678.517	-2.62
678.547	3.38
678.578	7.38
678.608	-5.62
678.639	-2.62
678.67	8.38
678.7	-4.62
678.731	-4.62
678.761	-7.62
678.792	7.38
678.823	9.38
678.853	2.38
678.884	4.38
678.914	7.38
678.945	16.38
678.975	-7.62
679.006	5.38
679.037	-6.62
679.067	16.38
679.098	12.38
679.128	-26.62
679.159	-7.62
679.189	17.38
679.22	-1.62
679.25	6.38
679.281	-4.62
679.312	-16.62
679.342	1.38
679.373	18.38
679.403	-3.62
679.434	-2.62
679.464	-8.62
679.495	0.38
679.525	-7.62
679.556	19.38
679.586	-0.62
679.617	12.38
679.647	4.38
679.678	8.38
679.708	8.38
679.739	0.38
679.769	5.38
679.8	-0.62
679.83	-11.62
679.861	15.38
679.891	1.38
679.922	-18.62
679.952	-1.62
679.983	10.38
680.013	22.38
680.044	3.38
680.074	-0.62
680.105	1.38
680.135	1.38
680.165	12.38
680.196	10.38
680.226	9.38
680.257	19.38
680.287	-0.62
680.318	1.38
680.348	2.38
680.379	5.38
680.409	4.38
680.439	0.38
680.47	-9.62
680.5	-2.62
680.531	-6.62
680.561	-6.62
680.592	13.38
680.622	20.38
680.652	15.38
680.683	16.38
680.713	1.38
680.744	6.38
680.774	4.38
680.804	30.38
680.835	-2.62
680.865	-22.62
680.896	17.38
680.926	8.38
680.956	11.38
680.987	18.38
681.017	-2.62
681.047	1.38
681.078	-4.62
681.108	-8.62
681.139	-1.62
681.169	-11.62
681.199	-5.62
681.23	6.38
681.26	14.38
681.29	2.38
681.321	7.38
681.351	3.38
681.381	-9.62
681.412	10.38
681.442	3.38
681.472	10.38
681.503	11.38
681.533	13.38
681.563	12.38
681.594	13.38
681.624	23.38
681.654	2.38
681.685	4.38
681.715	3.38
681.745	-0.62
681.775	6.38
681.806	14.38
681.836	10.38
681.866	12.38
681.897	8.38
681.927	0.38
681.957	-20.62
681.987	7.38
682.018	9.38
682.048	-2.62
682.078	-1.62
682.109	17.38
682.139	15.38
682.169	7.38
682.199	0.38
682.23	-11.62
682.26	5.38
682.29	-8.62
682.32	5.38
682.351	2.38
682.381	3.38
682.411	-16.62
682.441	2.38
682.472	-0.62
682.502	3.38
682.532	3.38
682.562	13.38
682.592	22.38
682.623	23.38
682.653	-4.62
682.683	3.38
682.713	3.38
682.743	-11.62
682.774	-8.62
682.804	0.38
682.834	22.38
682.864	2.38
682.894	3.38
682.925	10.38
682.955	1.38
682.985	3.38
683.015	6.38
683.045	13.38
683.076	-3.62
683.106	-1.62
683.136	-3.62
683.166	3.38
683.196	-9.62
683.226	3.38
683.257	-6.62
683.287	2.38
683.317	-1.62
683.347	1.38
683.377	1.38
683.407	1.38
683.437	4.38
683.468	11.38
683.498	0.38
683.528	-5.62
683.558	3.38
683.588	-13.62
683.618	0.38
683.648	0.38
683.678	-1.62
683.708	-4.62
683.739	-3.62
683.769	-0.62
683.799	10.38
683.829	13.38
683.859	-5.62
683.889	4.38
683.919	-5.62
683.949	3.38
683.979	-7.62
684.009	10.38
684.039	1.38
684.07	-8.62
684.1	10.38
684.13	11.38
684.16	-1.62
684.19	4.38
684.22	6.38
684.25	7.38
684.28	-7.62
684.31	9.38
684.34	24.38
684.37	2.38
684.4	-12.62
684.43	9.38
684.46	8.38
684.49	-1.62
684.52	3.38
684.55	20.38
684.58	3.38
684.61	15.38
684.64	15.38
684.67	16.38
684.7	0.38
684.73	11.38
684.76	-6.62
684.79	13.38
684.82	7.38
684.85	1.38
684.88	6.38
684.91	1.38
684.94	-5.62
684.97	-22.62
685	8.38
685.03	2.38
685.06	-3.62
685.09	1.38
685.12	12.38
685.15	-3.62
685.18	2.38
685.21	2.38
685.24	6.38
685.27	2.38
685.3	-1.62
685.33	21.38
685.36	11.38
685.39	-13.62
685.42	-11.62
685.45	-0.62
685.48	-11.62
685.51	-4.62
685.54	13.38
685.569	13.38
685.599	10.38
685.629	12.38
685.659	6.38
685.689	14.38
685.719	-0.62
685.749	-8.62
685.779	15.38
685.809	13.38
685.839	12.38
685.869	12.38
685.898	7.38
685.928	6.38
685.958	2.38
685.988	18.38
686.018	-3.62
686.048	7.38
686.078	20.38
686.108	16.38
686.137	9.38
686.167	24.38
686.197	-5.62
686.227	4.38
686.257	24.38
686.287	15.38
686.317	0.38
686.346	-4.62
686.376	-2.62
686.406	-0.62
686.436	12.38
686.466	14.38
686.496	2.38
686.525	7.38
686.555	7.38
686.585	25.38
686.615	27.38
686.645	19.38
686.675	-1.62
686.704	-9.62
686.734	4.38
686.764	-4.62
686.794	11.38
686.824	-6.62
686.853	14.38
686.883	18.38
686.913	4.38
686.943	-1.62
686.973	-8.62
687.002	6.38
687.032	10.38
687.062	1.38
687.092	24.38
687.121	7.38
687.151	-9.62
687.181	6.38
687.211	21.38
687.24	3.38
687.27	8.38
687.3	9.38
687.33	9.38
687.359	-10.62
687.389	2.38
687.419	-2.62
687.449	2.38
687.478	7.38
687.508	12.38
687.538	13.38
687.568	6.38
687.597	-5.62
687.627	4.38
687.657	20.38
687.686	17.38
687.716	8.38
687.746	-8.62
687.776	-11.62
687.805	9.38
687.835	2.38
687.865	16.38
687.894	10.38
687.924	0.38
687.954	17.38
687.983	4.38
688.013	15.38
688.043	2.38
688.072	-7.62
688.102	18.38
688.132	3.38
688.161	1.38
688.191	-4.62
688.221	20.38
688.25	5.38
688.28	2.38
688.31	-5.62
688.339	4.38
688.369	-2.62
688.399	1.38
688.428	-3.62
688.458	21.38
688.488	6.38
688.517	6.38
688.547	6.38
688.576	18.38
688.606	7.38
688.636	2.38
688.665	18.38
688.695	-2.62
688.725	5.38
688.754	9.38
688.784	-2.62
688.813	0.38
688.843	-3.62
688.873	0.38
688.902	21.38
688.932	15.38
688.961	4.38
688.991	22.38
689.02	23.38
689.05	1.38
689.08	34.38
689.109	17.38
689.139	9.38
689.168	27.38
689.198	8.38
689.227	-6.62
689.257	6.38
689.287	14.38
689.316	11.38
689.346	-0.62
689.375	-1.62
689.405	14.38
689.434	-6.62
689.464	14.38
689.493	0.38
689.523	-6.62
689.552	-7.62
689.582	3.38
689.611	3.38
689.641	19.38
689.67	10.38
689.7	6.38
689.73	25.38
689.759	4.38
689.789	22.38
689.818	12.38
689.848	1.38
689.877	14.38
689.906	21.38
689.936	5.38
689.965	5.38
689.995	17.38
690.024	14.38
690.054	11.38
690.083	4.38
690.113	2.38
690.142	1.38
690.172	5.38
690.201	11.38
690.231	11.38
690.26	17.38
690.29	12.38
690.319	19.38
690.348	-0.62
690.378	9.38
690.407	20.38
690.437	-13.62
690.466	5.38
690.496	2.38
690.525	4.38
690.555	2.38
690.584	-0.62
690.613	1.38
690.643	1.38
690.672	20.38
690.702	12.38
690.731	8.38
690.76	32.38
690.79	71.38
690.819	56.38
690.849	51.38
690.878	26.38
690.907	11.38
690.937	11.38
690.966	31.38
690.996	11.38
691.025	13.38
691.054	13.38
691.084	18.38
691.113	11.38
691.142	18.38
691.172	18.38
691.201	28.38
691.23	8.38
691.26	8.38
691.289	1.38
691.319	-3.62
691.348	30.38
691.377	25.38
691.407	-10.62
691.436	5.38
691.465	9.38
691.495	4.38
691.524	-8.62
691.553	-1.62
691.583	20.38
691.612	28.38
691.641	9.38
691.67	4.38
691.7	18.38
691.729	-2.62
691.758	-0.62
691.788	7.38
691.817	-0.62
691.846	9.38
691.876	-1.62
691.905	1.38
691.934	7.38
691.963	12.38
691.993	17.38
692.022	12.38
692.051	0.38
692.081	13.38
692.11	19.38
692.139	2.38
692.168	10.38
692.198	17.38
692.227	3.38
692.256	14.38
692.285	16.38
692.315	-5.62
692.344	14.38
692.373	7.38
692.402	4.38
692.432	2.38
692.461	-7.62
692.49	0.38
692.519	4.38
692.548	21.38
692.578	13.38
692.607	-3.62
692.636	-0.62
692.665	26.38
692.694	16.38
692.724	6.38
692.753	19.38
692.782	-0.62
692.811	-5.62
692.84	-2.62
692.87	4.38
692.899	-4.62
692.928	3.38
692.957	5.38
692.986	1.38
693.016	17.38
693.045	12.38
693.074	17.38
693.103	7.38
693.132	12.38
693.161	2.38
693.191	2.38
693.22	-19.62
693.249	5.38
693.278	13.38
693.307	11.38
693.336	-4.62
693.365	2.38
693.395	-1.62
693.424	9.38
693.453	17.38
693.482	-0.62
693.511	10.38
693.54	14.38
693.569	15.38
693.598	-8.62
693.628	20.38
693.657	15.38
693.686	19.38
693.715	11.38
693.744	9.38
693.773	5.38
693.802	9.38
693.831	0.38
693.86	32.38
693.889	1.38
693.919	9.38
693.948	-0.62
693.977	10.38
694.006	3.38
694.035	-0.62
694.064	-7.62
694.093	4.38
694.122	7.38
694.151	3.38
694.18	10.38
694.209	26.38
694.238	10.38
694.267	17.38
694.296	0.38
694.325	8.38
694.354	8.38
694.383	10.38
694.412	-7.62
694.441	1.38
694.471	-0.62
694.5	9.38
694.529	13.38
694.558	15.38
694.587	11.38
694.616	-3.62
694.645	7.38
694.674	8.38
694.703	11.38
694.732	20.38
694.761	16.38
694.79	23.38
694.819	5.38
694.848	-7.62
694.877	17.38
694.906	35.38
694.935	12.38
694.963	21.38
694.992	0.38
695.021	15.38
695.05	28.38
695.079	12.38
695.108	-5.62
695.137	27.38
695.166	10.38
695.195	-4.62
695.224	26.38
695.253	11.38
695.282	2.38
695.311	13.38
695.34	10.38
695.369	11.38
695.398	7.38
695.427	21.38
695.456	9.38
695.485	16.38
695.513	9.38
695.542	10.38
695.571	6.38
695.6	30.38
695.629	12.38
695.658	17.38
695.687	16.38
695.716	-5.62
695.745	30.38
695.774	-11.62
695.802	-13.62
695.831	4.38
695.86	20.38
695.889	17.38
695.918	12.38
695.947	4.38
695.976	22.38
696.005	14.38
696.033	12.38
696.062	21.38
696.091	2.38
696.12	-1.62
696.149	28.38
696.178	8.38
696.207	14.38
696.235	-11.62
696.264	-9.62
696.293	-0.62
696.322	3.38
696.351	12.38
696.38	-4.62
696.408	18.38
696.437	3.38
696.466	2.38
696.495	9.38
696.524	28.38
696.553	8.38
696.581	28.38
696.61	16.38
696.639	19.38
696.668	15.38
696.697	-2.62
696.725	17.38
696.754	13.38
696.783	4.38
696.812	3.38
696.84	-9.62
696.869	23.38
696.898	-10.62
696.927	-5.62
696.956	19.38
696.984	-7.62
697.013	15.38
697.042	15.38
697.071	21.38
697.099	13.38
697.128	3.38
697.157	12.38
697.186	11.38
697.214	21.38
697.243	1.38
697.272	-9.62
697.301	6.38
697.329	18.38
697.358	6.38
697.387	15.38
697.415	1.38
697.444	15.38
697.473	11.38
697.502	-11.62
697.53	3.38
697.559	-11.62
697.588	5.38
697.616	-4.62
697.645	1.38
697.674	19.38
697.703	7.38
697.731	11.38
697.76	9.38
697.789	16.38
697.817	-0.62
697.846	32.38
697.875	7.38
697.903	24.38
697.932	4.38
697.961	17.38
697.989	24.38
698.018	32.38
698.047	7.38
698.075	14.38
698.104	9.38
698.133	4.38
698.161	-4.62
698.19	-4.62
698.218	1.38
698.247	4.38
698.276	7.38
698.304	9.38
698.333	13.38
698.362	15.38
698.39	11.38
698.419	16.38
698.447	10.38
698.476	5.38
698.505	12.38
698.533	7.38
698.562	8.38
698.591	-3.62
698.619	14.38
698.648	19.38
698.676	8.38
698.705	3.38
698.733	-6.62
698.762	2.38
698.791	5.38
698.819	-3.62
698.848	7.38
698.876	27.38
698.905	15.38
698.933	24.38
698.962	-3.62
698.991	22.38
699.019	23.38
699.048	31.38
699.076	14.38
699.105	-9.62
699.133	1.38
699.162	12.38
699.19	15.38
699.219	4.38
699.248	0.38
699.276	6.38
699.305	3.38
699.333	11.38
699.362	8.38
699.39	7.38
699.419	7.38
699.447	12.38
699.476	10.38
699.504	-12.62
699.533	-4.62
699.561	-6.62
699.59	21.38
699.618	17.38
699.647	3.38
699.675	-0.62
699.704	9.38
699.732	9.38
699.761	8.38
699.789	0.38
699.818	7.38
699.846	-1.62
699.874	-9.62
699.903	3.38
699.931	0.38
699.96	13.38
699.988	-3.62
700.017	-12.62
700.045	2.38
700.074	-18.62
700.102	3.38
700.13	-11.62
700.159	4.38
700.187	8.38
700.216	9.38
700.244	5.38
700.273	-2.62
700.301	4.38
700.329	-4.62
700.358	19.38
700.386	1.38
700.415	11.38
700.443	-3.62
700.472	6.38
700.5	9.38
700.528	8.38
700.557	17.38
700.585	10.38
700.614	-3.62
700.642	13.38
700.67	16.38
700.699	19.38
700.727	-3.62
700.755	21.38
700.784	27.38
700.812	3.38
700.841	10.38
700.869	-4.62
700.897	-13.62
700.926	-3.62
700.954	6.38
700.982	9.38
701.011	12.38
701.039	5.38
701.067	5.38
701.096	8.38
701.124	-2.62
701.152	14.38
701.181	9.38
701.209	-7.62
701.237	6.38
701.266	-8.62
701.294	-7.62
701.322	-1.62
701.351	9.38
701.379	-4.62
701.407	1.38
701.435	7.38
701.464	12.38
701.492	43.38
701.52	5.38
701.549	1.38
701.577	-10.62
701.605	-7.62
701.634	5.38
701.662	18.38
701.69	-4.62
701.718	-2.62
701.747	13.38
701.775	6.38
701.803	8.38
701.831	8.38
701.86	1.38
701.888	24.38
701.916	5.38
701.944	8.38
701.973	-2.62
702.001	-0.62
702.029	-21.62
702.057	-14.62
702.086	4.38
702.114	-4.62
702.142	7.38
702.17	10.38
702.199	7.38
702.227	-3.62
702.255	4.38
702.283	-11.62
702.311	2.38
702.34	3.38
702.368	10.38
702.396	14.38
702.424	-0.62
702.452	-9.62
702.481	9.38
702.509	-4.62
702.537	11.38
702.565	16.38
702.593	-0.62
702.621	-3.62
702.65	6.38
702.678	18.38
702.706	8.38
702.734	-3.62
702.762	1.38
702.79	-3.62
702.819	6.38
702.847	8.38
702.875	5.38
702.903	3.38
702.931	-7.62
702.959	6.38
702.988	11.38
703.016	1.38
703.044	9.38
703.072	-3.62
703.1	-18.62
703.128	3.38
703.156	25.38
703.184	9.38
703.212	18.38
703.241	9.38
703.269	7.38
703.297	10.38
703.325	3.38
703.353	-3.62
703.381	-10.62
703.409	1.38
703.437	-10.62
703.465	17.38
703.493	9.38
703.522	13.38
703.55	5.38
703.578	21.38
703.606	-2.62
703.634	-0.62
703.662	-8.62
703.69	-5.62
703.718	2.38
703.746	22.38
703.774	-6.62
703.802	17.38
703.83	-0.62
703.858	3.38
703.886	-7.62
703.914	-4.62
703.942	9.38
703.97	2.38
703.998	-3.62
704.027	20.38
704.055	7.38
704.083	0.38
704.111	-1.62
704.139	-1.62
704.167	-3.62
704.195	14.38
704.223	-8.62
704.251	-7.62
704.279	20.38
704.307	-4.62
704.335	-4.62
704.363	14.38
704.391	-7.62
704.419	-0.62
704.447	-0.62
704.475	14.38
704.503	1.38
704.531	19.38
704.558	4.38
704.586	-0.62
704.614	-0.62
704.642	3.38
704.67	-5.62
704.698	7.38
704.726	11.38
704.754	-4.62
704.782	-3.62
704.81	4.38
704.838	13.38
704.866	-4.62
704.894	-3.62
704.922	3.38
704.95	16.38
704.978	14.38
705.006	9.38
705.034	18.38
705.061	-2.62
705.089	-6.62
705.117	-1.62
705.145	3.38
705.173	-10.62
705.201	11.38
705.229	2.38
705.257	13.38
705.285	15.38
705.313	13.38
705.34	6.38
705.368	2.38
705.396	11.38
705.424	-0.62
705.452	-3.62
705.48	-2.62
705.508	-15.62
705.536	-8.62
705.563	-21.62
705.591	-2.62
705.619	11.38
705.647	-0.62
705.675	9.38
705.703	11.38
705.731	25.38
705.758	13.38
705.786	-3.62
705.814	22.38
705.842	-2.62
705.87	21.38
705.898	19.38
705.925	11.38
705.953	8.38
705.981	-3.62
706.009	-3.62
706.037	11.38
706.065	3.38
706.092	-10.62
706.12	12.38
706.148	-17.62
706.176	-11.62
706.204	6.38
706.231	2.38
706.259	-14.62
706.287	-8.62
706.315	-0.62
706.342	3.38
706.37	5.38
706.398	3.38
706.426	-2.62
706.454	5.38
706.481	20.38
706.509	16.38
706.537	-2.62
706.565	-5.62
706.592	19.38
706.62	1.38
706.648	13.38
706.676	-15.62
706.703	-13.62
706.731	-3.62
706.759	-0.62
706.787	7.38
706.814	7.38
706.842	12.38
706.87	2.38
706.897	12.38
706.925	6.38
706.953	-0.62
706.981	24.38
707.008	15.38
707.036	-5.62
707.064	-0.62
707.091	-25.62
707.119	-5.62
707.147	-7.62
707.174	0.38
707.202	19.38
707.23	4.38
707.258	3.38
707.285	7.38
707.313	0.38
707.341	-4.62
707.368	-4.62
707.396	-5.62
707.424	5.38
707.451	-0.62
707.479	-9.62
707.507	-17.62
707.534	4.38
707.562	-0.62
707.59	-7.62
707.617	-4.62
707.645	8.38
707.672	3.38
707.7	-6.62
707.728	14.38
707.755	14.38
707.783	3.38
707.811	9.38
707.838	-10.62
707.866	5.38
707.893	11.38
707.921	-1.62
707.949	5.38
707.976	4.38
708.004	0.38
708.031	2.38
708.059	3.38
708.087	-4.62
708.114	9.38
708.142	3.38
708.169	10.38
708.197	1.38
708.225	9.38
708.252	3.38
708.28	11.38
708.307	1.38
708.335	7.38
708.362	9.38
708.39	-1.62
708.418	7.38
708.445	-5.62
708.473	-3.62
708.5	-4.62
708.528	24.38
708.555	7.38
708.583	-4.62
708.61	-9.62
708.638	8.38
708.665	2.38
708.693	17.38
708.72	4.38
708.748	3.38
708.776	-4.62
708.803	8.38
708.831	14.38
708.858	8.38
708.886	-0.62
708.913	-9.62
708.941	-8.62
708.968	7.38
708.996	-13.62
709.023	38.38
709.051	5.38
709.078	-4.62
709.105	-2.62
709.133	-0.62
709.16	-0.62
709.188	19.38
709.215	12.38
709.243	6.38
709.27	-2.62
709.298	2.38
709.325	-2.62
709.353	5.38
709.38	14.38
709.408	-0.62
709.435	-0.62
709.462	1.38
709.49	23.38
709.517	5.38
709.545	-1.62
709.572	15.38
709.6	6.38
709.627	0.38
709.655	-5.62
709.682	-11.62
709.709	-14.62
709.737	-5.62
709.764	7.38
709.792	27.38
709.819	6.38
709.846	-11.62
709.874	10.38
709.901	20.38
709.929	24.38
709.956	13.38
709.983	0.38
710.011	-12.62
710.038	-21.62
710.066	16.38
710.093	15.38
710.12	-4.62
710.148	-0.62
710.175	-6.62
710.202	-18.62
710.23	2.38
710.257	-0.62
710.284	7.38
710.312	-1.62
710.339	4.38
710.366	20.38
710.394	-11.62
710.421	2.38
710.448	1.38
710.476	-16.62
710.503	1.38
710.53	13.38
710.558	4.38
710.585	15.38
710.612	-3.62
710.64	3.38
710.667	-14.62
710.694	-10.62
710.722	-0.62
710.749	-3.62
710.776	3.38
710.804	18.38
710.831	4.38
710.858	-8.62
710.885	-12.62
710.913	-0.62
710.94	21.38
710.967	6.38
710.995	11.38
711.022	0.38
711.049	4.38
711.076	-16.62
711.104	3.38
711.131	-10.62
711.158	-1.62
711.185	10.38
711.213	-15.62
711.24	-0.62
711.267	12.38
711.294	5.38
711.322	37.38
711.349	-0.62
711.376	8.38
711.403	8.38
711.431	-11.62
711.458	-8.62
711.485	-4.62
711.512	11.38
711.54	-4.62
711.567	0.38
711.594	-1.62
711.621	0.38
711.648	12.38
711.676	-7.62
711.703	12.38
711.73	-0.62
711.757	11.38
711.784	13.38
711.812	8.38
711.839	-0.62
711.866	3.38
711.893	-2.62
711.92	12.38
711.947	13.38
711.975	16.38
712.002	-0.62
712.029	-4.62
712.056	-2.62
712.083	5.38
712.11	-5.62
712.138	6.38
712.165	15.38
712.192	-3.62
712.219	6.38
712.246	9.38
712.273	-0.62
712.3	-11.62
712.328	-0.62
712.355	-2.62
712.382	-7.62
712.409	26.38
712.436	-1.62
712.463	13.38
712.49	11.38
712.517	7.38
712.544	7.38
712.572	1.38
712.599	3.38
712.626	-2.62
712.653	1.38
712.68	-5.62
712.707	9.38
712.734	14.38
712.761	2.38
712.788	21.38
712.815	9.38
712.842	25.38
712.87	0.38
712.897	-14.62
712.924	-13.62
712.951	6.38
712.978	14.38
713.005	16.38
713.032	3.38
713.059	11.38
713.086	12.38
713.113	-3.62
713.14	-21.62
713.167	5.38
713.194	14.38
713.221	-0.62
713.248	12.38
713.275	-5.62
713.302	-9.62
713.329	11.38
713.356	12.38
713.383	5.38
713.41	11.38
713.437	-7.62
713.464	-9.62
713.491	-5.62
713.518	16.38
713.545	13.38
713.572	8.38
713.599	12.38
713.626	9.38
713.653	7.38
713.68	11.38
713.707	16.38
713.734	4.38
713.761	-12.62
713.788	-9.62
713.815	-3.62
713.842	2.38
713.869	10.38
713.896	-4.62
713.923	-2.62
713.95	1.38
713.977	1.38
714.004	4.38
714.031	-4.62
714.058	6.38
714.085	12.38
714.112	11.38
714.139	7.38
714.165	6.38
714.192	-2.62
714.219	4.38
714.246	6.38
714.273	6.38
714.3	11.38
714.327	3.38
714.354	-5.62
714.381	3.38
714.408	-6.62
714.435	-11.62
714.461	7.38
714.488	13.38
714.515	9.38
714.542	-6.62
714.569	-10.62
714.596	-4.62
714.623	-1.62
714.65	3.38
714.677	-0.62
714.703	-2.62
714.73	6.38
714.757	-0.62
714.784	4.38
714.811	-12.62
714.838	12.38
714.865	12.38
714.891	5.38
714.918	4.38
714.945	2.38
714.972	-7.62
714.999	9.38
715.026	-2.62
715.052	19.38
715.079	-0.62
715.106	1.38
715.133	21.38
715.16	-2.62
715.187	-11.62
715.213	8.38
715.24	-14.62
715.267	1.38
715.294	5.38
715.321	11.38
715.347	-2.62
715.374	-9.62
715.401	10.38
715.428	5.38
715.455	4.38
715.481	-3.62
715.508	7.38
715.535	-10.62
715.562	28.38
715.588	-3.62
715.615	12.38
715.642	3.38
715.669	19.38
715.695	-8.62
715.722	-11.62
715.749	8.38
715.776	17.38
715.802	-3.62
715.829	1.38
715.856	-8.62
715.883	26.38
715.909	7.38
715.936	3.38
715.963	13.38
715.99	-14.62
716.016	18.38
716.043	-3.62
716.07	-3.62
716.096	-8.62
716.123	9.38
716.15	14.38
716.177	30.38
716.203	13.38
716.23	1.38
716.257	19.38
716.283	25.38
716.31	19.38
716.337	24.38
716.363	4.38
716.39	-2.62
716.417	12.38
716.443	7.38
716.47	6.38
716.497	16.38
716.523	18.38
716.55	8.38
716.577	11.38
716.603	-0.62
716.63	14.38
716.657	23.38
716.683	-10.62
716.71	-6.62
716.737	-0.62
716.763	7.38
716.79	13.38
716.817	11.38
716.843	5.38
716.87	-0.62
716.897	11.38
716.923	6.38
716.95	-4.62
716.976	-14.62
717.003	-12.62
717.03	4.38
717.056	-9.62
717.083	4.38
717.109	7.38
717.136	9.38
717.163	-14.62
717.189	7.38
717.216	-4.62
717.242	-3.62
717.269	15.38
717.296	10.38
717.322	12.38
717.349	20.38
717.375	7.38
717.402	-10.62
717.428	0.38
717.455	9.38
717.481	6.38
717.508	8.38
717.535	-0.62
717.561	10.38
717.588	3.38
717.614	-0.62
717.641	7.38
717.667	19.38
717.694	3.38
717.72	2.38
717.747	-6.62
717.773	2.38
717.8	25.38
717.826	-0.62
717.853	1.38
717.88	4.38
717.906	5.38
717.933	5.38
717.959	2.38
717.986	19.38
718.012	-4.62
718.039	9.38
718.065	12.38
718.092	19.38
718.118	1.38
718.144	-8.62
718.171	-2.62
718.197	12.38
718.224	8.38
718.25	-5.62
718.277	8.38
718.303	17.38
718.33	9.38
718.356	5.38
718.383	-1.62
718.409	8.38
718.436	14.38
718.462	13.38
718.489	-6.62
718.515	18.38
718.541	16.38
718.568	16.38
718.594	1.38
718.621	13.38
718.647	1.38
718.674	22.38
718.7	19.38
718.726	13.38
718.753	15.38
718.779	11.38
718.806	7.38
718.832	-6.62
718.858	2.38
718.885	5.38
718.911	7.38
718.938	11.38
718.964	0.38
718.99	13.38
719.017	10.38
719.043	-0.62
719.07	8.38
719.096	-4.62
719.122	12.38
719.149	8.38
719.175	18.38
719.201	-10.62
719.228	-12.62
719.254	5.38
719.281	-7.62
719.307	-6.62
719.333	-3.62
719.36	24.38
719.386	-9.62
719.412	11.38
719.439	-9.62
719.465	9.38
719.491	1.38
719.518	25.38
719.544	21.38
719.57	25.38
719.597	27.38
719.623	2.38
719.649	20.38
719.675	10.38
719.702	11.38
719.728	12.38
719.754	-7.62
719.781	-1.62
719.807	6.38
719.833	2.38
719.86	1.38
719.886	10.38
719.912	2.38
719.938	-8.62
719.965	-0.62
719.991	6.38
720.017	-0.62
720.044	-7.62
720.07	-3.62
720.096	4.38
720.122	15.38
720.149	12.38
720.175	18.38
720.201	9.38
720.227	3.38
720.254	-0.62
720.28	-12.62
720.306	-3.62
720.332	14.38
720.359	8.38
720.385	0.38
720.411	3.38
720.437	4.38
720.463	17.38
720.49	8.38
720.516	-10.62
720.542	-3.62
720.568	3.38
720.595	11.38
720.621	0.38
720.647	7.38
720.673	5.38
720.699	8.38
720.725	14.38
720.752	13.38
720.778	4.38
720.804	3.38
720.83	20.38
720.856	-2.62
720.883	-15.62
720.909	-15.62
720.935	-2.62
720.961	13.38
720.987	4.38
721.013	11.38
721.04	-2.62
721.066	-8.62
721.092	-0.62
721.118	25.38
721.144	11.38
721.17	-8.62
721.196	8.38
721.223	1.38
721.249	2.38
721.275	24.38
721.301	10.38
721.327	15.38
721.353	1.38
721.379	-8.62
721.405	10.38
721.432	26.38
721.458	5.38
721.484	9.38
721.51	-0.62
721.536	19.38
721.562	-0.62
721.588	16.38
721.614	2.38
721.64	7.38
721.666	2.38
721.693	2.38
721.719	3.38
721.745	-0.62
721.771	9.38
721.797	20.38
721.823	1.38
721.849	18.38
721.875	11.38
721.901	11.38
721.927	-5.62
721.953	-7.62
721.979	18.38
722.005	20.38
722.031	-14.62
722.057	4.38
722.083	4.38
722.109	8.38
722.135	13.38
722.161	27.38
722.187	14.38
722.214	11.38
722.24	-0.62
722.266	-11.62
722.292	7.38
722.318	9.38
722.344	-3.62
722.37	0.38
722.396	21.38
722.422	-0.62
722.448	-12.62
722.474	-20.62
722.5	4.38
722.526	5.38
722.552	14.38
722.578	14.38
722.603	10.38
722.629	-11.62
722.655	12.38
722.681	-13.62
722.707	7.38
722.733	4.38
722.759	-0.62
722.785	6.38
722.811	16.38
722.837	-0.62
722.863	12.38
722.889	13.38
722.915	-2.62
722.941	-6.62
722.967	-4.62
722.993	13.38
723.019	2.38
723.045	10.38
723.071	10.38
723.097	5.38
723.122	11.38
723.148	-2.62
723.174	-4.62
723.2	3.38
723.226	7.38
723.252	13.38
723.278	4.38
723.304	4.38
723.33	8.38
723.356	-14.62
723.381	-11.62
723.407	-2.62
723.433	13.38
723.459	-0.62
723.485	-5.62
723.511	17.38
723.537	2.38
723.563	6.38
723.588	17.38
723.614	2.38
723.64	1.38
723.666	3.38
723.692	15.38
723.718	27.38
723.744	-6.62
723.769	-16.62
723.795	-21.62
723.821	5.38
723.847	0.38
723.873	9.38
723.899	33.38
723.924	3.38
723.95	1.38
723.976	-8.62
724.002	4.38
724.028	11.38
724.053	-10.62
724.079	-4.62
724.105	-1.62
724.131	4.38
724.157	4.38
724.182	7.38
724.208	2.38
724.234	17.38
724.26	-1.62
724.286	13.38
724.311	13.38
724.337	-11.62
724.363	-8.62
724.389	3.38
724.415	11.38
724.44	28.38
724.466	5.38
724.492	-0.62
724.518	14.38
724.543	1.38
724.569	-2.62
724.595	1.38
724.621	-3.62
724.646	2.38
724.672	3.38
724.698	3.38
724.723	-6.62
724.749	10.38
724.775	21.38
724.801	-7.62
724.826	-14.62
724.852	-7.62
724.878	-4.62
724.904	-28.62
724.929	8.38
724.955	0.38
724.981	13.38
725.006	8.38
725.032	4.38
725.058	8.38
725.083	-16.62
725.109	-4.62
725.135	-2.62
725.161	13.38
725.186	-12.62
725.212	-5.62
725.238	5.38
725.263	-3.62
725.289	-3.62
725.315	1.38
725.34	-5.62
725.366	16.38
725.392	-3.62
725.417	2.38
725.443	-0.62
725.468	25.38
725.494	17.38
725.52	9.38
725.545	3.38
725.571	-11.62
725.597	-6.62
725.622	11.38
725.648	-6.62
725.674	4.38
725.699	7.38
725.725	1.38
725.75	22.38
725.776	6.38
725.802	-6.62
725.827	4.38
725.853	25.38
725.878	8.38
725.904	4.38
725.93	-5.62
725.955	-0.62
725.981	-8.62
726.006	-8.62
726.032	6.38
726.057	0.38
726.083	5.38
726.109	3.38
726.134	11.38
726.16	1.38
726.185	12.38
726.211	-10.62
726.236	16.38
726.262	0.38
726.288	5.38
726.313	33.38
726.339	-0.62
726.364	8.38
726.39	11.38
726.415	-3.62
726.441	2.38
726.466	5.38
726.492	6.38
726.517	-1.62
726.543	0.38
726.568	-8.62
726.594	7.38
726.619	21.38
726.645	-4.62
726.67	9.38
726.696	15.38
726.721	3.38
726.747	-16.62
726.772	10.38
726.798	0.38
726.823	9.38
726.849	7.38
726.874	19.38
726.9	36.38
726.925	31.38
726.951	13.38
726.976	3.38
727.002	15.38
727.027	13.38
727.053	27.38
727.078	-5.62
727.104	8.38
727.129	-14.62
727.155	-7.62
727.18	-5.62
727.205	6.38
727.231	-15.62
727.256	2.38
727.282	-3.62
727.307	4.38
727.333	6.38
727.358	-0.62
727.383	3.38
727.409	3.38
727.434	-2.62
727.46	2.38
727.485	-4.62
727.511	-1.62
727.536	-10.62
727.561	-12.62
727.587	3.38
727.612	11.38
727.637	14.38
727.663	8.38
727.688	12.38
727.714	-9.62
727.739	-17.62
727.764	-1.62
727.79	16.38
727.815	7.38
727.841	20.38
727.866	12.38
727.891	15.38
727.917	-12.62
727.942	-3.62
727.967	-4.62
727.993	-11.62
728.018	-3.62
728.043	-4.62
728.069	-2.62
728.094	11.38
728.119	8.38
728.145	23.38
728.17	9.38
728.195	9.38
728.221	26.38
728.246	-10.62
728.271	-11.62
728.297	3.38
728.322	2.38
728.347	2.38
728.373	5.38
728.398	11.38
728.423	5.38
728.448	-7.62
728.474	16.38
728.499	2.38
728.524	2.38
728.55	-0.62
728.575	3.38
728.6	-4.62
728.625	-9.62
728.651	8.38
728.676	15.38
728.701	2.38
728.727	9.38
728.752	-5.62
728.777	-6.62
728.802	0.38
728.828	10.38
728.853	1.38
728.878	3.38
728.903	-6.62
728.929	-6.62
728.954	3.38
728.979	7.38
729.004	-7.62
729.03	-0.62
729.055	9.38
729.08	-14.62
729.105	2.38
729.13	16.38
729.156	11.38
729.181	12.38
729.206	-25.62
729.231	3.38
729.256	7.38
729.282	-0.62
729.307	-11.62
729.332	-10.62
729.357	0.38
729.382	8.38
729.408	7.38
729.433	10.38
729.458	16.38
729.483	4.38
729.508	18.38
729.533	5.38
729.559	5.38
729.584	-3.62
729.609	-11.62
729.634	11.38
729.659	-4.62
729.684	-4.62
729.71	11.38
729.735	13.38
729.76	-4.62
729.785	-9.62
729.81	26.38
729.835	13.38
729.86	5.38
729.886	12.38
729.911	8.38
729.936	-4.62
729.961	29.38
729.986	16.38
730.011	71.38
730.036	215.38
730.061	982.38
730.086	2667.38
730.112	3354.38
730.137	2849.38
730.162	2085.38
730.187	1595.38
730.212	1240.38
730.237	808.38
730.262	454.38
730.287	252.38
730.312	141.38
730.337	68.38
730.362	60.38
730.387	45.38
730.413	24.38
730.438	19.38
730.463	28.38
730.488	29.38
730.513	-0.62
730.538	8.38
730.563	29.38
730.588	14.38
730.613	30.38
730.638	3.38
730.663	11.38
730.688	19.38
730.713	20.38
730.738	4.38
730.763	-1.62
730.788	-10.62
730.813	24.38
730.838	-1.62
730.863	20.38
730.888	7.38
730.913	13.38
730.938	-4.62
730.963	13.38
730.988	109.38
731.013	404.38
731.038	575.38
731.063	612.38
731.088	452.38
731.113	363.38
731.138	281.38
731.163	182.38
731.188	105.38
731.213	64.38
731.238	48.38
731.263	15.38
731.288	7.38
731.313	18.38
731.338	21.38
731.363	7.38
731.388	19.38
731.413	3.38
731.438	18.38
731.463	-2.62
731.487	16.38
731.512	-6.62
731.537	-5.62
731.562	-1.62
731.587	11.38
731.612	-14.62
731.637	2.38
731.662	7.38
731.687	-7.62
731.712	-2.62
731.737	13.38
731.762	2.38
731.786	8.38
731.811	5.38
731.836	8.38
731.861	-5.62
731.886	-9.62
731.911	9.38
731.936	9.38
731.961	23.38
731.986	0.38
732.01	-0.62
732.035	1.38
732.06	9.38
732.085	0.38
732.11	-0.62
732.135	-1.62
732.16	-0.62
732.184	-3.62
732.209	-3.62
732.234	5.38
732.259	-5.62
732.284	0.38
732.309	9.38
732.334	3.38
732.358	-12.62
732.383	-12.62
732.408	12.38
732.433	8.38
732.458	9.38
732.482	5.38
732.507	5.38
732.532	11.38
732.557	24.38
732.582	13.38
732.607	27.38
732.631	47.38
732.656	90.38
732.681	130.38
732.706	340.38
732.73	475.38
732.755	402.38
732.78	317.38
732.805	245.38
732.83	191.38
732.854	149.38
732.879	91.38
732.904	48.38
732.929	17.38
732.953	17.38
732.978	15.38
733.003	-4.62
733.028	5.38
733.052	18.38
733.077	7.38
733.102	6.38
733.127	-6.62
733.151	-13.62
733.176	-0.62
733.201	-0.62
733.226	1.38
733.25	3.38
733.275	-14.62
733.3	-11.62
733.324	14.38
733.349	12.38
733.374	13.38
733.399	12.38
733.423	0.38
733.448	4.38
733.473	-21.62
733.497	-0.62
733.522	10.38
733.547	27.38
733.571	29.38
733.596	11.38
733.621	5.38
733.646	2.38
733.67	12.38
733.695	1.38
733.72	3.38
733.744	4.38
733.769	0.38
733.794	21.38
733.818	5.38
733.843	0.38
733.867	-6.62
733.892	-2.62
733.917	3.38
733.941	-3.62
733.966	0.38
733.991	-14.62
734.015	9.38
734.04	4.38
734.065	11.38
734.089	22.38
734.114	-10.62
734.138	19.38
734.163	-3.62
734.188	-2.62
734.212	-2.62
734.237	-8.62
734.261	6.38
734.286	-22.62
734.311	7.38
734.335	-5.62
734.36	-9.62
734.384	-0.62
734.409	17.38
734.434	1.38
734.458	10.38
734.483	1.38
734.507	0.38
734.532	-2.62
734.556	1.38
734.581	-10.62
734.606	-1.62
734.63	-7.62
734.655	-10.62
734.679	7.38
734.704	4.38
734.728	10.38
734.753	3.38
734.777	7.38
734.802	2.38
734.826	15.38
734.851	13.38
734.876	9.38
734.9	5.38
734.925	3.38
734.949	13.38
734.974	1.38
734.998	1.38
735.023	-12.62
735.047	-6.62
735.072	13.38
735.096	1.38
735.121	17.38
735.145	-2.62
735.17	16.38
735.194	8.38
735.219	2.38
735.243	10.38
735.268	7.38
735.292	14.38
735.317	16.38
735.341	25.38
735.365	0.38
735.39	2.38
735.414	7.38
735.439	-1.62
735.463	13.38
735.488	9.38
735.512	11.38
735.537	-3.62
735.561	-2.62
735.586	-2.62
735.61	11.38
735.634	-8.62
735.659	12.38
735.683	27.38
735.708	10.38
735.732	-6.62
735.757	6.38
735.781	14.38
735.805	10.38
735.83	-22.62
735.854	6.38
735.879	4.38
735.903	12.38
735.927	1.38
735.952	7.38
735.976	-4.62
736.001	-3.62
736.025	6.38
736.049	8.38
736.074	2.38
736.098	-5.62
736.123	7.38
736.147	11.38
736.171	-0.62
736.196	-4.62
736.22	-4.62
736.244	9.38
736.269	-5.62
736.293	-2.62
736.317	-2.62
736.342	2.38
736.366	15.38
736.39	21.38
736.415	11.38
736.439	10.38
736.463	10.38
736.488	12.38
736.512	13.38
736.536	7.38
736.561	24.38
736.585	-3.62
736.609	-0.62
736.634	-10.62
736.658	4.38
736.682	-16.62
736.707	-10.62
736.731	-4.62
736.755	-6.62
736.78	9.38
736.804	12.38
736.828	4.38
736.852	2.38
736.877	-3.62
736.901	17.38
736.925	14.38
736.949	12.38
736.974	7.38
736.998	-2.62
737.022	-0.62
737.047	-3.62
737.071	-0.62
737.095	8.38
737.119	40.38
737.144	3.38
737.168	-2.62
737.192	-0.62
737.216	0.38
737.241	-7.62
737.265	5.38
737.289	3.38
737.313	-0.62
737.337	8.38
737.362	-2.62
737.386	-4.62
737.41	2.38
737.434	8.38
737.459	5.38
737.483	15.38
737.507	19.38
737.531	2.38
737.555	4.38
737.58	3.38
737.604	5.38
737.628	-10.62
737.652	14.38
737.676	9.38
737.701	15.38
737.725	2.38
737.749	7.38
737.773	9.38
737.797	4.38
737.821	1.38
737.846	16.38
737.87	21.38
737.894	8.38
737.918	-0.62
737.942	25.38
737.966	20.38
737.99	9.38
738.015	31.38
738.039	8.38
738.063	-2.62
738.087	23.38
738.111	4.38
738.135	9.38
738.159	-4.62
738.184	-2.62
738.208	17.38
738.232	4.38
738.256	17.38
738.28	16.38
738.304	12.38
738.328	-5.62
738.352	15.38
738.376	6.38
738.4	17.38
738.425	7.38
738.449	18.38
738.473	25.38
738.497	12.38
738.521	16.38
738.545	9.38
738.569	6.38
738.593	15.38
738.617	1.38
738.641	9.38
738.665	20.38
738.689	5.38
738.713	15.38
738.737	17.38
738.762	11.38
738.786	8.38
738.81	-15.62
738.834	1.38
738.858	3.38
738.882	7.38
738.906	-2.62
738.93	12.38
738.954	8.38
738.978	19.38
739.002	6.38
739.026	17.38
739.05	7.38
739.074	-2.62
739.098	33.38
739.122	15.38
739.146	15.38
739.17	17.38
739.194	23.38
739.218	2.38
739.242	-10.62
739.266	-8.62
739.29	11.38
739.314	-0.62
739.338	10.38
739.362	6.38
739.386	-2.62
739.41	1.38
739.434	-3.62
739.458	13.38
739.482	4.38
739.506	9.38
739.53	-2.62
739.554	13.38
739.577	13.38
739.601	5.38
739.625	-10.62
739.649	-5.62
739.673	-9.62
739.697	5.38
739.721	0.38
739.745	35.38
739.769	24.38
739.793	20.38
739.817	6.38
739.841	1.38
739.865	25.38
739.889	-6.62
739.912	4.38
739.936	0.38
739.96	5.38
739.984	19.38
740.008	8.38
740.032	4.38
740.056	11.38
740.08	20.38
740.104	9.38
740.127	4.38
740.151	5.38
740.175	21.38
740.199	9.38
740.223	58.38
740.247	5.38
740.271	9.38
740.295	5.38
740.318	-5.62
740.342	-8.62
740.366	3.38
740.39	5.38
740.414	2.38
740.438	3.38
740.461	28.38
740.485	8.38
740.509	-2.62
740.533	13.38
740.557	5.38
740.581	7.38
740.604	-2.62
740.628	1.38
740.652	13.38
740.676	5.38
740.7	21.38
740.723	7.38
740.747	-5.62
740.771	-3.62
740.795	-4.62
740.819	6.38
740.842	5.38
740.866	5.38
740.89	11.38
740.914	5.38
740.938	6.38
740.961	5.38
740.985	-3.62
741.009	-7.62
741.033	16.38
741.056	-2.62
741.08	-14.62
741.104	-2.62
741.128	0.38
741.151	17.38
741.175	5.38
741.199	3.38
741.223	16.38
741.246	0.38
741.27	6.38
741.294	17.38
741.318	8.38
741.341	1.38
741.365	-4.62
741.389	3.38
741.413	18.38
741.436	23.38
741.46	7.38
741.484	11.38
741.507	7.38
741.531	21.38
741.555	11.38
741.579	13.38
741.602	7.38
741.626	12.38
741.65	4.38
741.673	2.38
741.697	27.38
741.721	16.38
741.744	-2.62
741.768	-1.62
741.792	4.38
741.815	-13.62
741.839	1.38
741.863	28.38
741.886	22.38
741.91	11.38
741.934	10.38
741.957	-8.62
741.981	14.38
742.005	-1.62
742.028	-8.62
742.052	-10.62
742.075	14.38
742.099	14.38
742.123	-0.62
742.146	-6.62
742.17	0.38
742.194	6.38
742.217	0.38
742.241	-23.62
742.264	-9.62
742.288	20.38
742.312	9.38
742.335	10.38
742.359	18.38
742.382	18.38
742.406	8.38
742.43	9.38
742.453	8.38
742.477	2.38
742.5	3.38
742.524	0.38
742.548	-1.62
742.571	8.38
742.595	0.38
742.618	-7.62
742.642	13.38
742.665	9.38
742.689	-0.62
742.712	13.38
742.736	2.38
742.76	13.38
742.783	8.38
742.807	13.38
742.83	4.38
742.854	-11.62
742.877	-0.62
742.901	9.38
742.924	8.38
742.948	-3.62
742.971	16.38
742.995	6.38
743.018	-3.62
743.042	-11.62
743.065	-11.62
743.089	-4.62
743.112	-8.62
743.136	-9.62
743.159	-10.62
743.183	-10.62
743.206	11.38
743.23	1.38
743.253	4.38
743.277	6.38
743.3	-4.62
743.324	4.38
743.347	-4.62
743.371	24.38
743.394	24.38
743.418	13.38
743.441	0.38
743.465	7.38
743.488	-2.62
743.512	-5.62
743.535	0.38
743.558	-4.62
743.582	3.38
743.605	0.38
743.629	5.38
743.652	20.38
743.676	-0.62
743.699	4.38
743.723	7.38
743.746	10.38
743.769	-2.62
743.793	3.38
743.816	12.38
743.84	12.38
743.863	-3.62
743.886	8.38
743.91	10.38
743.933	14.38
743.957	0.38
743.98	-0.62
744.003	8.38
744.027	8.38
744.05	9.38
744.074	8.38
744.097	-7.62
744.12	-8.62
744.144	-22.62
744.167	5.38
744.19	3.38
744.214	4.38
744.237	-12.62
744.26	2.38
744.284	12.38
744.307	-2.62
744.331	1.38
744.354	-1.62
744.377	0.38
744.401	2.38
744.424	5.38
744.447	-10.62
744.471	-4.62
