Data from HighRes_mercury_15_13_11_07_2024_HR4C61891__26__15-14-25-786.txt Node

Date: Thu Nov 07 15:14:25 EST 2024
User: crc00042
Spectrometer: HR4C6189
Trigger mode: 4
Integration Time (sec): 1.000000E-1
Scans to average: 1
Electric dark correction enabled: true
Nonlinearity correction enabled: false
Boxcar width: 0
XAxis mode: Wavelengths
Number of Pixels in Spectrum: 3648
>>>>>Begin Spectral Data<<<<<
639.567	-72.31
639.602	-72.31
639.636	-72.31
639.67	-41.31
639.704	-23.31
639.738	1.69
639.773	5.69
639.807	-2.31
639.841	14.69
639.875	-4.31
639.909	3.69
639.943	-9.31
639.978	-12.31
640.012	14.69
640.046	15.69
640.08	-6.31
640.114	-6.31
640.148	-15.31
640.182	-19.31
640.217	-2.31
640.251	25.69
640.285	15.69
640.319	5.69
640.353	-2.31
640.387	4.69
640.421	15.69
640.455	0.69
640.49	-7.31
640.524	-4.31
640.558	-5.31
640.592	-11.31
640.626	-2.31
640.66	-1.31
640.694	-21.31
640.728	5.69
640.762	14.69
640.796	17.69
640.83	24.69
640.865	-2.31
640.899	3.69
640.933	15.69
640.967	3.69
641.001	-4.31
641.035	0.69
641.069	2.69
641.103	-9.31
641.137	-4.31
641.171	-17.31
641.205	-9.31
641.239	-2.31
641.273	11.69
641.307	9.69
641.341	4.69
641.375	7.69
641.409	8.69
641.443	-1.31
641.477	4.69
641.511	-3.31
641.545	12.69
641.579	-2.31
641.614	14.69
641.648	-6.31
641.682	-5.31
641.716	12.69
641.75	16.69
641.784	-10.31
641.818	-5.31
641.852	9.69
641.886	-7.31
641.919	9.69
641.953	4.69
641.987	-24.31
642.021	-6.31
642.055	1.69
642.089	10.69
642.123	-18.31
642.157	0.69
642.191	2.69
642.225	-9.31
642.259	6.69
642.293	18.69
642.327	-7.31
642.361	-6.31
642.395	16.69
642.429	18.69
642.463	5.69
642.497	15.69
642.531	-6.31
642.565	-8.31
642.599	7.69
642.633	-16.31
642.666	12.69
642.7	5.69
642.734	6.69
642.768	-8.31
642.802	15.69
642.836	6.69
642.87	5.69
642.904	4.69
642.938	17.69
642.972	2.69
643.005	11.69
643.039	7.69
643.073	3.69
643.107	10.69
643.141	-2.31
643.175	-1.31
643.209	-5.31
643.243	7.69
643.276	9.69
643.31	-15.31
643.344	-8.31
643.378	3.69
643.412	6.69
643.446	16.69
643.48	13.69
643.513	6.69
643.547	9.69
643.581	-1.31
643.615	4.69
643.649	15.69
643.683	10.69
643.716	9.69
643.75	11.69
643.784	-7.31
643.818	9.69
643.852	1.69
643.886	6.69
643.919	12.69
643.953	-0.31
643.987	-3.31
644.021	1.69
644.055	6.69
644.088	-11.31
644.122	2.69
644.156	-1.31
644.19	11.69
644.224	3.69
644.257	13.69
644.291	26.69
644.325	-4.31
644.359	-10.31
644.392	1.69
644.426	5.69
644.46	-8.31
644.494	-9.31
644.527	-6.31
644.561	9.69
644.595	3.69
644.629	-15.31
644.662	21.69
644.696	13.69
644.73	2.69
644.764	8.69
644.797	0.69
644.831	-0.31
644.865	17.69
644.899	5.69
644.932	19.69
644.966	-3.31
645	16.69
645.033	17.69
645.067	2.69
645.101	6.69
645.135	-0.31
645.168	12.69
645.202	-0.31
645.236	-5.31
645.269	8.69
645.303	-2.31
645.337	-11.31
645.37	-2.31
645.404	4.69
645.438	5.69
645.471	-16.31
645.505	-5.31
645.539	-8.31
645.572	-8.31
645.606	-3.31
645.64	-5.31
645.673	11.69
645.707	19.69
645.741	14.69
645.774	-6.31
645.808	1.69
645.842	-6.31
645.875	17.69
645.909	-10.31
645.943	-4.31
645.976	7.69
646.01	9.69
646.043	21.69
646.077	11.69
646.111	5.69
646.144	14.69
646.178	16.69
646.212	-0.31
646.245	1.69
646.279	11.69
646.312	18.69
646.346	11.69
646.38	3.69
646.413	6.69
646.447	-4.31
646.48	-2.31
646.514	2.69
646.547	-8.31
646.581	-10.31
646.615	-17.31
646.648	-17.31
646.682	10.69
646.715	-13.31
646.749	2.69
646.782	11.69
646.816	2.69
646.85	1.69
646.883	-0.31
646.917	17.69
646.95	7.69
646.984	2.69
647.017	-9.31
647.051	-10.31
647.084	3.69
647.118	-14.31
647.151	8.69
647.185	11.69
647.218	-2.31
647.252	-6.31
647.285	2.69
647.319	2.69
647.353	17.69
647.386	29.69
647.42	-6.31
647.453	2.69
647.487	18.69
647.52	4.69
647.553	5.69
647.587	-9.31
647.62	-3.31
647.654	11.69
647.687	12.69
647.721	13.69
647.754	1.69
647.788	5.69
647.821	-1.31
647.855	6.69
647.888	7.69
647.922	15.69
647.955	18.69
647.989	4.69
648.022	15.69
648.055	13.69
648.089	6.69
648.122	31.69
648.156	-11.31
648.189	-12.31
648.223	0.69
648.256	8.69
648.29	0.69
648.323	1.69
648.356	4.69
648.39	-1.31
648.423	0.69
648.457	2.69
648.49	3.69
648.523	17.69
648.557	-3.31
648.59	-7.31
648.624	-1.31
648.657	-8.31
648.69	23.69
648.724	6.69
648.757	15.69
648.791	4.69
648.824	9.69
648.857	19.69
648.891	0.69
648.924	2.69
648.957	8.69
648.991	-2.31
649.024	9.69
649.057	2.69
649.091	-8.31
649.124	23.69
649.158	15.69
649.191	20.69
649.224	22.69
649.258	12.69
649.291	20.69
649.324	4.69
649.358	4.69
649.391	10.69
649.424	8.69
649.458	-6.31
649.491	-3.31
649.524	3.69
649.557	9.69
649.591	-15.31
649.624	3.69
649.657	-12.31
649.691	8.69
649.724	-8.31
649.757	0.69
649.791	-15.31
649.824	10.69
649.857	3.69
649.89	-11.31
649.924	-4.31
649.957	-10.31
649.99	-29.31
650.023	-15.31
650.057	5.69
650.09	6.69
650.123	5.69
650.157	20.69
650.19	21.69
650.223	13.69
650.256	-13.31
650.29	-5.31
650.323	6.69
650.356	16.69
650.389	13.69
650.423	-6.31
650.456	1.69
650.489	-2.31
650.522	-10.31
650.555	17.69
650.589	10.69
650.622	-7.31
650.655	4.69
650.688	6.69
650.721	-0.31
650.755	11.69
650.788	6.69
650.821	-2.31
650.854	15.69
650.887	2.69
650.921	5.69
650.954	-15.31
650.987	-3.31
651.02	-3.31
651.053	1.69
651.087	-13.31
651.12	3.69
651.153	13.69
651.186	-2.31
651.219	-4.31
651.252	21.69
651.286	19.69
651.319	-7.31
651.352	0.69
651.385	11.69
651.418	6.69
651.451	21.69
651.484	9.69
651.518	-13.31
651.551	32.69
651.584	4.69
651.617	21.69
651.65	8.69
651.683	26.69
651.716	1.69
651.749	-6.31
651.783	-11.31
651.816	7.69
651.849	-9.31
651.882	0.69
651.915	-1.31
651.948	12.69
651.981	7.69
652.014	-2.31
652.047	3.69
652.08	6.69
652.114	-1.31
652.147	3.69
652.18	11.69
652.213	34.69
652.246	1.69
652.279	-9.31
652.312	17.69
652.345	-7.31
652.378	-4.31
652.411	8.69
652.444	1.69
652.477	8.69
652.51	-2.31
652.543	-12.31
652.576	11.69
652.609	-5.31
652.642	6.69
652.675	8.69
652.709	-1.31
652.742	21.69
652.775	-9.31
652.808	1.69
652.841	8.69
652.874	4.69
652.907	6.69
652.94	8.69
652.973	-3.31
653.006	-9.31
653.039	0.69
653.072	-1.31
653.105	-3.31
653.138	-2.31
653.171	2.69
653.204	-13.31
653.237	12.69
653.27	-3.31
653.303	5.69
653.336	0.69
653.368	3.69
653.401	-16.31
653.434	-8.31
653.467	16.69
653.5	4.69
653.533	-7.31
653.566	5.69
653.599	-2.31
653.632	-1.31
653.665	16.69
653.698	-12.31
653.731	-11.31
653.764	5.69
653.797	-15.31
653.83	4.69
653.863	13.69
653.896	-8.31
653.929	-2.31
653.961	6.69
653.994	1.69
654.027	-5.31
654.06	4.69
654.093	16.69
654.126	-2.31
654.159	-20.31
654.192	-9.31
654.225	14.69
654.258	-4.31
654.29	-7.31
654.323	-7.31
654.356	-10.31
654.389	9.69
654.422	-2.31
654.455	-1.31
654.488	3.69
654.521	-13.31
654.553	-13.31
654.586	14.69
654.619	-6.31
654.652	7.69
654.685	2.69
654.718	-18.31
654.751	0.69
654.783	-13.31
654.816	9.69
654.849	8.69
654.882	-13.31
654.915	-9.31
654.948	1.69
654.98	-14.31
655.013	8.69
655.046	13.69
655.079	-3.31
655.112	-6.31
655.144	-26.31
655.177	0.69
655.21	11.69
655.243	17.69
655.276	-11.31
655.308	-7.31
655.341	-1.31
655.374	10.69
655.407	7.69
655.44	5.69
655.472	-9.31
655.505	-17.31
655.538	1.69
655.571	7.69
655.603	-17.31
655.636	-1.31
655.669	21.69
655.702	-3.31
655.734	-16.31
655.767	-0.31
655.8	-10.31
655.833	2.69
655.865	-1.31
655.898	-9.31
655.931	-19.31
655.964	-5.31
655.996	-0.31
656.029	10.69
656.062	2.69
656.095	10.69
656.127	-3.31
656.16	-8.31
656.193	2.69
656.225	5.69
656.258	-0.31
656.291	13.69
656.324	1.69
656.356	7.69
656.389	-5.31
656.422	15.69
656.454	-7.31
656.487	9.69
656.52	-0.31
656.552	-10.31
656.585	14.69
656.618	2.69
656.65	-8.31
656.683	-9.31
656.716	14.69
656.748	10.69
656.781	-6.31
656.814	-8.31
656.846	-1.31
656.879	1.69
656.912	1.69
656.944	0.69
656.977	-21.31
657.01	-14.31
657.042	-0.31
657.075	16.69
657.108	-13.31
657.14	1.69
657.173	15.69
657.205	25.69
657.238	9.69
657.271	-2.31
657.303	-15.31
657.336	-7.31
657.369	-3.31
657.401	1.69
657.434	-0.31
657.466	10.69
657.499	-1.31
657.532	-0.31
657.564	13.69
657.597	14.69
657.629	2.69
657.662	-1.31
657.694	-1.31
657.727	-13.31
657.76	10.69
657.792	-7.31
657.825	-13.31
657.857	1.69
657.89	6.69
657.922	2.69
657.955	-15.31
657.987	-10.31
658.02	18.69
658.053	9.69
658.085	-1.31
658.118	0.69
658.15	11.69
658.183	24.69
658.215	-4.31
658.248	-6.31
658.28	-9.31
658.313	18.69
658.345	4.69
658.378	-7.31
658.41	-10.31
658.443	-10.31
658.475	5.69
658.508	-0.31
658.54	-0.31
658.573	-15.31
658.605	3.69
658.638	-5.31
658.67	9.69
658.703	9.69
658.735	-3.31
658.768	11.69
658.8	-5.31
658.833	16.69
658.865	11.69
658.898	9.69
658.93	-10.31
658.963	-9.31
658.995	-5.31
659.028	2.69
659.06	-5.31
659.092	-1.31
659.125	6.69
659.157	-4.31
659.19	-15.31
659.222	-12.31
659.255	-11.31
659.287	18.69
659.32	6.69
659.352	-2.31
659.384	8.69
659.417	-7.31
659.449	7.69
659.482	5.69
659.514	-22.31
659.546	-9.31
659.579	-9.31
659.611	-4.31
659.644	-15.31
659.676	-5.31
659.708	1.69
659.741	2.69
659.773	-5.31
659.806	10.69
659.838	4.69
659.87	-5.31
659.903	-25.31
659.935	3.69
659.967	-1.31
660	-6.31
660.032	-12.31
660.065	20.69
660.097	-12.31
660.129	-8.31
660.162	-40.31
660.194	-6.31
660.226	4.69
660.259	5.69
660.291	3.69
660.323	-4.31
660.356	-3.31
660.388	-16.31
660.42	-7.31
660.453	8.69
660.485	20.69
660.517	17.69
660.55	8.69
660.582	-3.31
660.614	19.69
660.647	-9.31
660.679	-25.31
660.711	-18.31
660.743	-13.31
660.776	-6.31
660.808	-5.31
660.84	13.69
660.873	0.69
660.905	5.69
660.937	-7.31
660.969	4.69
661.002	0.69
661.034	3.69
661.066	-15.31
661.099	19.69
661.131	19.69
661.163	3.69
661.195	-12.31
661.228	7.69
661.26	16.69
661.292	0.69
661.324	-4.31
661.357	0.69
661.389	10.69
661.421	1.69
661.453	6.69
661.485	-8.31
661.518	16.69
661.55	-17.31
661.582	-11.31
661.614	-7.31
661.647	-4.31
661.679	1.69
661.711	-3.31
661.743	-1.31
661.775	-7.31
661.808	12.69
661.84	-22.31
661.872	14.69
661.904	6.69
661.936	5.69
661.969	-12.31
662.001	-5.31
662.033	15.69
662.065	5.69
662.097	21.69
662.129	-1.31
662.162	-9.31
662.194	5.69
662.226	17.69
662.258	17.69
662.29	-0.31
662.322	-2.31
662.355	-20.31
662.387	11.69
662.419	0.69
662.451	7.69
662.483	9.69
662.515	-9.31
662.547	-10.31
662.58	-13.31
662.612	1.69
662.644	-16.31
662.676	0.69
662.708	17.69
662.74	4.69
662.772	6.69
662.804	4.69
662.836	3.69
662.869	2.69
662.901	14.69
662.933	-5.31
662.965	11.69
662.997	13.69
663.029	3.69
663.061	-5.31
663.093	22.69
663.125	16.69
663.157	3.69
663.189	3.69
663.221	9.69
663.254	-1.31
663.286	10.69
663.318	-0.31
663.35	-5.31
663.382	-5.31
663.414	22.69
663.446	9.69
663.478	6.69
663.51	29.69
663.542	0.69
663.574	-9.31
663.606	-2.31
663.638	-6.31
663.67	7.69
663.702	16.69
663.734	-10.31
663.766	5.69
663.798	-7.31
663.83	-4.31
663.862	-8.31
663.894	3.69
663.926	-2.31
663.958	11.69
663.99	16.69
664.022	-0.31
664.054	21.69
664.086	-1.31
664.118	-7.31
664.15	-3.31
664.182	2.69
664.214	-10.31
664.246	-3.31
664.278	1.69
664.31	23.69
664.342	4.69
664.374	-1.31
664.406	-14.31
664.438	-3.31
664.47	13.69
664.502	7.69
664.534	10.69
664.566	-12.31
664.598	15.69
664.63	7.69
664.662	13.69
664.693	-5.31
664.725	7.69
664.757	7.69
664.789	-9.31
664.821	8.69
664.853	18.69
664.885	6.69
664.917	-4.31
664.949	7.69
664.981	7.69
665.013	-7.31
665.045	-11.31
665.076	-10.31
665.108	1.69
665.14	-5.31
665.172	11.69
665.204	1.69
665.236	6.69
665.268	19.69
665.3	-5.31
665.331	-11.31
665.363	3.69
665.395	-11.31
665.427	-3.31
665.459	13.69
665.491	-2.31
665.523	11.69
665.555	10.69
665.586	-3.31
665.618	2.69
665.65	-2.31
665.682	3.69
665.714	13.69
665.746	6.69
665.777	9.69
665.809	-0.31
665.841	-7.31
665.873	-11.31
665.905	-5.31
665.937	13.69
665.968	7.69
666	8.69
666.032	-14.31
666.064	6.69
666.096	-5.31
666.127	3.69
666.159	5.69
666.191	20.69
666.223	0.69
666.255	12.69
666.286	6.69
666.318	1.69
666.35	14.69
666.382	17.69
666.413	0.69
666.445	9.69
666.477	-1.31
666.509	9.69
666.54	11.69
666.572	-1.31
666.604	6.69
666.636	-5.31
666.667	13.69
666.699	9.69
666.731	-8.31
666.763	-1.31
666.794	8.69
666.826	3.69
666.858	-25.31
666.89	22.69
666.921	-2.31
666.953	-9.31
666.985	7.69
667.017	32.69
667.048	9.69
667.08	-0.31
667.112	-8.31
667.143	-17.31
667.175	4.69
667.207	19.69
667.238	11.69
667.27	-16.31
667.302	-4.31
667.334	-12.31
667.365	8.69
667.397	8.69
667.429	4.69
667.46	21.69
667.492	10.69
667.524	-2.31
667.555	5.69
667.587	-0.31
667.619	-2.31
667.65	-2.31
667.682	4.69
667.714	-8.31
667.745	3.69
667.777	10.69
667.808	16.69
667.84	3.69
667.872	6.69
667.903	11.69
667.935	-5.31
667.967	-1.31
667.998	-7.31
668.03	5.69
668.061	1.69
668.093	1.69
668.125	9.69
668.156	3.69
668.188	-2.31
668.22	-13.31
668.251	15.69
668.283	9.69
668.314	25.69
668.346	12.69
668.377	13.69
668.409	14.69
668.441	30.69
668.472	23.69
668.504	11.69
668.535	16.69
668.567	25.69
668.599	-6.31
668.63	1.69
668.662	3.69
668.693	17.69
668.725	25.69
668.756	-3.31
668.788	9.69
668.819	14.69
668.851	-2.31
668.882	-8.31
668.914	-10.31
668.946	-14.31
668.977	-5.31
669.009	-8.31
669.04	-25.31
669.072	-4.31
669.103	-6.31
669.135	-5.31
669.166	9.69
669.198	4.69
669.229	10.69
669.261	-1.31
669.292	-4.31
669.324	13.69
669.355	8.69
669.387	-8.31
669.418	19.69
669.45	7.69
669.481	11.69
669.513	3.69
669.544	7.69
669.576	7.69
669.607	3.69
669.639	6.69
669.67	-10.31
669.701	11.69
669.733	-3.31
669.764	-4.31
669.796	-10.31
669.827	-28.31
669.859	-1.31
669.89	-0.31
669.922	15.69
669.953	4.69
669.985	-12.31
670.016	5.69
670.047	2.69
670.079	6.69
670.11	-9.31
670.142	-2.31
670.173	8.69
670.204	-3.31
670.236	-2.31
670.267	-6.31
670.299	-10.31
670.33	8.69
670.362	3.69
670.393	-3.31
670.424	16.69
670.456	-15.31
670.487	-1.31
670.518	-1.31
670.55	12.69
670.581	-7.31
670.613	-15.31
670.644	-22.31
670.675	0.69
670.707	2.69
670.738	9.69
670.769	-0.31
670.801	-2.31
670.832	1.69
670.864	1.69
670.895	-0.31
670.926	-4.31
670.958	-11.31
670.989	-10.31
671.02	-14.31
671.052	1.69
671.083	2.69
671.114	-11.31
671.146	5.69
671.177	-10.31
671.208	-10.31
671.24	-4.31
671.271	7.69
671.302	10.69
671.333	-0.31
671.365	-5.31
671.396	9.69
671.427	15.69
671.459	5.69
671.49	11.69
671.521	6.69
671.553	-7.31
671.584	-3.31
671.615	1.69
671.646	7.69
671.678	3.69
671.709	-6.31
671.74	-24.31
671.771	-12.31
671.803	-20.31
671.834	-2.31
671.865	-16.31
671.896	5.69
671.928	2.69
671.959	-19.31
671.99	-12.31
672.021	-6.31
672.053	1.69
672.084	10.69
672.115	4.69
672.146	-9.31
672.178	-18.31
672.209	-6.31
672.24	5.69
672.271	25.69
672.303	7.69
672.334	-8.31
672.365	-6.31
672.396	-6.31
672.427	11.69
672.459	13.69
672.49	14.69
672.521	4.69
672.552	12.69
672.583	8.69
672.615	-11.31
672.646	8.69
672.677	-11.31
672.708	7.69
672.739	7.69
672.77	7.69
672.802	15.69
672.833	3.69
672.864	-9.31
672.895	-26.31
672.926	1.69
672.957	-12.31
672.989	-0.31
673.02	9.69
673.051	2.69
673.082	11.69
673.113	-6.31
673.144	-6.31
673.175	-9.31
673.206	0.69
673.238	-8.31
673.269	6.69
673.3	-7.31
673.331	5.69
673.362	17.69
673.393	8.69
673.424	15.69
673.455	8.69
673.487	13.69
673.518	6.69
673.549	-9.31
673.58	-7.31
673.611	-6.31
673.642	-10.31
673.673	-11.31
673.704	3.69
673.735	-10.31
673.766	-23.31
673.797	3.69
673.828	6.69
673.86	0.69
673.891	-2.31
673.922	-26.31
673.953	-15.31
673.984	-4.31
674.015	11.69
674.046	-0.31
674.077	17.69
674.108	-14.31
674.139	-11.31
674.17	-7.31
674.201	-10.31
674.232	-5.31
674.263	2.69
674.294	-20.31
674.325	-16.31
674.356	2.69
674.387	20.69
674.418	7.69
674.449	-3.31
674.48	-6.31
674.511	-3.31
674.542	-2.31
674.573	-20.31
674.604	1.69
674.635	-7.31
674.666	5.69
674.697	2.69
674.728	-8.31
674.759	-5.31
674.79	-15.31
674.821	0.69
674.852	-12.31
674.883	-7.31
674.914	-4.31
674.945	1.69
674.976	-16.31
675.007	-15.31
675.038	-10.31
675.069	-17.31
675.1	6.69
675.131	8.69
675.162	-8.31
675.193	-0.31
675.224	-6.31
675.254	0.69
675.285	13.69
675.316	20.69
675.347	8.69
675.378	-9.31
675.409	0.69
675.44	20.69
675.471	-3.31
675.502	-18.31
675.533	6.69
675.564	14.69
675.595	11.69
675.625	15.69
675.656	6.69
675.687	-11.31
675.718	-8.31
675.749	1.69
675.78	-0.31
675.811	-1.31
675.842	6.69
675.873	5.69
675.903	-9.31
675.934	-3.31
675.965	-16.31
675.996	-24.31
676.027	9.69
676.058	18.69
676.089	-5.31
676.119	5.69
676.15	-5.31
676.181	6.69
676.212	-6.31
676.243	5.69
676.274	2.69
676.304	9.69
676.335	0.69
676.366	-5.31
676.397	-7.31
676.428	-1.31
676.459	1.69
676.489	10.69
676.52	9.69
676.551	-9.31
676.582	-9.31
676.613	0.69
676.643	-6.31
676.674	-4.31
676.705	-1.31
676.736	-0.31
676.767	11.69
676.797	1.69
676.828	-8.31
676.859	3.69
676.89	2.69
676.92	-5.31
676.951	3.69
676.982	4.69
677.013	9.69
677.044	34.69
677.074	31.69
677.105	-6.31
677.136	3.69
677.167	2.69
677.197	11.69
677.228	8.69
677.259	6.69
677.289	8.69
677.32	-1.31
677.351	-10.31
677.382	1.69
677.412	6.69
677.443	5.69
677.474	0.69
677.505	-10.31
677.535	1.69
677.566	-5.31
677.597	-13.31
677.627	-2.31
677.658	5.69
677.689	16.69
677.72	4.69
677.75	-1.31
677.781	7.69
677.812	8.69
677.842	-1.31
677.873	5.69
677.904	-0.31
677.934	-12.31
677.965	-5.31
677.996	-23.31
678.026	-9.31
678.057	-8.31
678.088	-14.31
678.118	-2.31
678.149	-13.31
678.18	-20.31
678.21	-3.31
678.241	1.69
678.272	2.69
678.302	6.69
678.333	2.69
678.363	14.69
678.394	8.69
678.425	2.69
678.455	-3.31
678.486	8.69
678.517	-5.31
678.547	-1.31
678.578	0.69
678.608	6.69
678.639	-0.31
678.67	-8.31
678.7	-19.31
678.731	0.69
678.761	11.69
678.792	2.69
678.823	-11.31
678.853	3.69
678.884	-3.31
678.914	13.69
678.945	-5.31
678.975	-7.31
679.006	3.69
679.037	-7.31
679.067	20.69
679.098	-1.31
679.128	0.69
679.159	-5.31
679.189	16.69
679.22	-15.31
679.25	19.69
679.281	0.69
679.312	-11.31
679.342	2.69
679.373	31.69
679.403	10.69
679.434	-2.31
679.464	-6.31
679.495	6.69
679.525	7.69
679.556	-10.31
679.586	8.69
679.617	6.69
679.647	15.69
679.678	-9.31
679.708	-10.31
679.739	-0.31
679.769	-2.31
679.8	-10.31
679.83	-8.31
679.861	9.69
679.891	-10.31
679.922	-1.31
679.952	-10.31
679.983	0.69
680.013	15.69
680.044	-2.31
680.074	4.69
680.105	4.69
680.135	-3.31
680.165	7.69
680.196	17.69
680.226	-4.31
680.257	7.69
680.287	0.69
680.318	-3.31
680.348	-7.31
680.379	3.69
680.409	8.69
680.439	9.69
680.47	9.69
680.5	-15.31
680.531	-8.31
680.561	6.69
680.592	1.69
680.622	17.69
680.652	6.69
680.683	10.69
680.713	-2.31
680.744	-9.31
680.774	0.69
680.804	16.69
680.835	12.69
680.865	-17.31
680.896	5.69
680.926	10.69
680.956	21.69
680.987	14.69
681.017	-12.31
681.047	4.69
681.078	2.69
681.108	5.69
681.139	15.69
681.169	0.69
681.199	-0.31
681.23	-8.31
681.26	-8.31
681.29	-5.31
681.321	-11.31
681.351	3.69
681.381	3.69
681.412	3.69
681.442	3.69
681.472	18.69
681.503	14.69
681.533	-2.31
681.563	-9.31
681.594	-8.31
681.624	4.69
681.654	-17.31
681.685	0.69
681.715	-0.31
681.745	-9.31
681.775	-7.31
681.806	10.69
681.836	-4.31
681.866	-3.31
681.897	3.69
681.927	-6.31
681.957	-25.31
681.987	14.69
682.018	2.69
682.048	-2.31
682.078	-7.31
682.109	20.69
682.139	0.69
682.169	0.69
682.199	3.69
682.23	-11.31
682.26	-6.31
682.29	-2.31
682.32	5.69
682.351	0.69
682.381	12.69
682.411	-9.31
682.441	-3.31
682.472	-0.31
682.502	8.69
682.532	-8.31
682.562	2.69
682.592	5.69
682.623	-1.31
682.653	-12.31
682.683	-10.31
682.713	-1.31
682.743	11.69
682.774	4.69
682.804	-13.31
682.834	14.69
682.864	1.69
682.894	10.69
682.925	-3.31
682.955	-5.31
682.985	-0.31
683.015	9.69
683.045	3.69
683.076	-4.31
683.106	-1.31
683.136	3.69
683.166	12.69
683.196	-2.31
683.226	6.69
683.257	1.69
683.287	-8.31
683.317	-28.31
683.347	-9.31
683.377	-4.31
683.407	10.69
683.437	-5.31
683.468	9.69
683.498	-19.31
683.528	13.69
683.558	10.69
683.588	1.69
683.618	-10.31
683.648	5.69
683.678	-10.31
683.708	-1.31
683.739	-5.31
683.769	2.69
683.799	7.69
683.829	12.69
683.859	3.69
683.889	20.69
683.919	7.69
683.949	-0.31
683.979	-11.31
684.009	4.69
684.039	12.69
684.07	3.69
684.1	17.69
684.13	14.69
684.16	6.69
684.19	-13.31
684.22	0.69
684.25	14.69
684.28	-5.31
684.31	11.69
684.34	11.69
684.37	0.69
684.4	-14.31
684.43	2.69
684.46	14.69
684.49	3.69
684.52	16.69
684.55	11.69
684.58	7.69
684.61	20.69
684.64	6.69
684.67	11.69
684.7	18.69
684.73	19.69
684.76	6.69
684.79	18.69
684.82	-6.31
684.85	-12.31
684.88	14.69
684.91	3.69
684.94	-9.31
684.97	-8.31
685	2.69
685.03	-10.31
685.06	0.69
685.09	4.69
685.12	12.69
685.15	-8.31
685.18	0.69
685.21	14.69
685.24	16.69
685.27	20.69
685.3	5.69
685.33	16.69
685.36	-8.31
685.39	9.69
685.42	-2.31
685.45	4.69
685.48	-3.31
685.51	-19.31
685.54	0.69
685.569	9.69
685.599	3.69
685.629	14.69
685.659	-4.31
685.689	5.69
685.719	-3.31
685.749	-5.31
685.779	-0.31
685.809	20.69
685.839	4.69
685.869	-9.31
685.898	12.69
685.928	-2.31
685.958	4.69
685.988	7.69
686.018	-8.31
686.048	7.69
686.078	11.69
686.108	24.69
686.137	8.69
686.167	23.69
686.197	-2.31
686.227	13.69
686.257	33.69
686.287	15.69
686.317	5.69
686.346	-1.31
686.376	-8.31
686.406	-4.31
686.436	-3.31
686.466	-2.31
686.496	9.69
686.525	9.69
686.555	0.69
686.585	19.69
686.615	24.69
686.645	-14.31
686.675	-11.31
686.704	2.69
686.734	4.69
686.764	-2.31
686.794	17.69
686.824	4.69
686.853	10.69
686.883	20.69
686.913	5.69
686.943	3.69
686.973	11.69
687.002	6.69
687.032	3.69
687.062	-17.31
687.092	22.69
687.121	-8.31
687.151	-4.31
687.181	0.69
687.211	14.69
687.24	-1.31
687.27	5.69
687.3	12.69
687.33	-2.31
687.359	-3.31
687.389	-2.31
687.419	-4.31
687.449	13.69
687.478	16.69
687.508	6.69
687.538	3.69
687.568	14.69
687.597	1.69
687.627	7.69
687.657	0.69
687.686	0.69
687.716	26.69
687.746	-2.31
687.776	-4.31
687.805	16.69
687.835	-4.31
687.865	9.69
687.894	5.69
687.924	-1.31
687.954	12.69
687.983	-2.31
688.013	-0.31
688.043	5.69
688.072	1.69
688.102	4.69
688.132	-13.31
688.161	7.69
688.191	3.69
688.221	13.69
688.25	-3.31
688.28	3.69
688.31	1.69
688.339	-2.31
688.369	-18.31
688.399	-7.31
688.428	-0.31
688.458	-1.31
688.488	-10.31
688.517	-0.31
688.547	0.69
688.576	31.69
688.606	6.69
688.636	-5.31
688.665	7.69
688.695	13.69
688.725	20.69
688.754	9.69
688.784	4.69
688.813	19.69
688.843	0.69
688.873	-11.31
688.902	-5.31
688.932	-8.31
688.961	5.69
688.991	3.69
689.02	18.69
689.05	-4.31
689.08	4.69
689.109	16.69
689.139	-2.31
689.168	-8.31
689.198	-14.31
689.227	-0.31
689.257	12.69
689.287	6.69
689.316	-2.31
689.346	-8.31
689.375	-7.31
689.405	10.69
689.434	-2.31
689.464	-3.31
689.493	-13.31
689.523	-1.31
689.552	-2.31
689.582	-5.31
689.611	16.69
689.641	10.69
689.67	-6.31
689.7	25.69
689.73	15.69
689.759	3.69
689.789	26.69
689.818	-5.31
689.848	6.69
689.877	14.69
689.906	-9.31
689.936	-4.31
689.965	1.69
689.995	16.69
690.024	17.69
690.054	-6.31
690.083	-1.31
690.113	-7.31
690.142	2.69
690.172	-2.31
690.201	-1.31
690.231	-2.31
690.26	4.69
690.29	10.69
690.319	18.69
690.348	-6.31
690.378	9.69
690.407	10.69
690.437	1.69
690.466	-3.31
690.496	7.69
690.525	18.69
690.555	-9.31
690.584	-7.31
690.613	1.69
690.643	1.69
690.672	-0.31
690.702	15.69
690.731	0.69
690.76	16.69
690.79	50.69
690.819	52.69
690.849	46.69
690.878	22.69
690.907	20.69
690.937	20.69
690.966	24.69
690.996	11.69
691.025	-10.31
691.054	-3.31
691.084	9.69
691.113	16.69
691.142	29.69
691.172	20.69
691.201	1.69
691.23	1.69
691.26	22.69
691.289	12.69
691.319	5.69
691.348	7.69
691.377	18.69
691.407	-7.31
691.436	10.69
691.465	11.69
691.495	-8.31
691.524	-6.31
691.553	7.69
691.583	5.69
691.612	23.69
691.641	0.69
691.67	4.69
691.7	3.69
691.729	1.69
691.758	-10.31
691.788	2.69
691.817	0.69
691.846	-4.31
691.876	0.69
691.905	9.69
691.934	-6.31
691.963	8.69
691.993	4.69
692.022	9.69
692.051	-5.31
692.081	10.69
692.11	18.69
692.139	9.69
692.168	11.69
692.198	4.69
692.227	6.69
692.256	9.69
692.285	4.69
692.315	1.69
692.344	8.69
692.373	4.69
692.402	-10.31
692.432	3.69
692.461	15.69
692.49	6.69
692.519	-9.31
692.548	8.69
692.578	13.69
692.607	-3.31
692.636	-17.31
692.665	7.69
692.694	-2.31
692.724	-1.31
692.753	1.69
692.782	4.69
692.811	2.69
692.84	-3.31
692.87	-0.31
692.899	10.69
692.928	-1.31
692.957	2.69
692.986	6.69
693.016	7.69
693.045	10.69
693.074	13.69
693.103	-1.31
693.132	9.69
693.161	11.69
693.191	10.69
693.22	-3.31
693.249	10.69
693.278	-2.31
693.307	10.69
693.336	-9.31
693.365	-3.31
693.395	21.69
693.424	14.69
693.453	18.69
693.482	1.69
693.511	-3.31
693.54	9.69
693.569	9.69
693.598	4.69
693.628	6.69
693.657	23.69
693.686	21.69
693.715	14.69
693.744	17.69
693.773	20.69
693.802	15.69
693.831	-7.31
693.86	19.69
693.889	-12.31
693.919	2.69
693.948	-1.31
693.977	10.69
694.006	8.69
694.035	3.69
694.064	-8.31
694.093	3.69
694.122	1.69
694.151	2.69
694.18	5.69
694.209	25.69
694.238	21.69
694.267	16.69
694.296	10.69
694.325	4.69
694.354	17.69
694.383	5.69
694.412	8.69
694.441	3.69
694.471	6.69
694.5	-3.31
694.529	10.69
694.558	36.69
694.587	11.69
694.616	6.69
694.645	10.69
694.674	24.69
694.703	15.69
694.732	4.69
694.761	9.69
694.79	13.69
694.819	-0.31
694.848	3.69
694.877	26.69
694.906	20.69
694.935	17.69
694.963	31.69
694.992	-1.31
695.021	1.69
695.05	14.69
695.079	15.69
695.108	-8.31
695.137	10.69
695.166	24.69
695.195	-1.31
695.224	-1.31
695.253	10.69
695.282	16.69
695.311	7.69
695.34	-6.31
695.369	20.69
695.398	11.69
695.427	21.69
695.456	4.69
695.485	-4.31
695.513	1.69
695.542	-9.31
695.571	-0.31
695.6	12.69
695.629	0.69
695.658	15.69
695.687	-4.31
695.716	-0.31
695.745	8.69
695.774	5.69
695.802	-5.31
695.831	9.69
695.86	12.69
695.889	30.69
695.918	5.69
695.947	-2.31
695.976	1.69
696.005	8.69
696.033	7.69
696.062	7.69
696.091	4.69
696.12	2.69
696.149	30.69
696.178	8.69
696.207	12.69
696.235	-6.31
696.264	1.69
696.293	0.69
696.322	3.69
696.351	24.69
696.38	-4.31
696.408	1.69
696.437	-2.31
696.466	10.69
696.495	6.69
696.524	13.69
696.553	16.69
696.581	15.69
696.61	-0.31
696.639	-9.31
696.668	0.69
696.697	-1.31
696.725	11.69
696.754	11.69
696.783	-1.31
696.812	3.69
696.84	33.69
696.869	0.69
696.898	-6.31
696.927	7.69
696.956	16.69
696.984	4.69
697.013	1.69
697.042	0.69
697.071	1.69
697.099	26.69
697.128	13.69
697.157	5.69
697.186	-12.31
697.214	1.69
697.243	15.69
697.272	5.69
697.301	-3.31
697.329	3.69
697.358	6.69
697.387	9.69
697.415	-0.31
697.444	8.69
697.473	-0.31
697.502	-0.31
697.53	33.69
697.559	5.69
697.588	9.69
697.616	1.69
697.645	4.69
697.674	11.69
697.703	5.69
697.731	9.69
697.76	-0.31
697.789	12.69
697.817	7.69
697.846	21.69
697.875	15.69
697.903	20.69
697.932	24.69
697.961	0.69
697.989	-6.31
698.018	0.69
698.047	6.69
698.075	20.69
698.104	7.69
698.133	4.69
698.161	8.69
698.19	3.69
698.218	3.69
698.247	4.69
698.276	3.69
698.304	29.69
698.333	10.69
698.362	11.69
698.39	0.69
698.419	21.69
698.447	5.69
698.476	13.69
698.505	6.69
698.533	-2.31
698.562	9.69
698.591	1.69
698.619	0.69
698.648	1.69
698.676	13.69
698.705	1.69
698.733	-8.31
698.762	6.69
698.791	14.69
698.819	-9.31
698.848	-8.31
698.876	12.69
698.905	13.69
698.933	19.69
698.962	5.69
698.991	-2.31
699.019	9.69
699.048	0.69
699.076	4.69
699.105	-4.31
699.133	-1.31
699.162	15.69
699.19	21.69
699.219	5.69
699.248	0.69
699.276	0.69
699.305	-2.31
699.333	25.69
699.362	4.69
699.39	0.69
699.419	-1.31
699.447	4.69
699.476	15.69
699.504	-0.31
699.533	14.69
699.561	-7.31
699.59	-8.31
699.618	-1.31
699.647	-6.31
699.675	-9.31
699.704	16.69
699.732	0.69
699.761	19.69
699.789	-7.31
699.818	9.69
699.846	-10.31
699.874	0.69
699.903	5.69
699.931	22.69
699.96	17.69
699.988	15.69
700.017	7.69
700.045	-3.31
700.074	3.69
700.102	-2.31
700.13	-1.31
700.159	-5.31
700.187	2.69
700.216	15.69
700.244	-1.31
700.273	14.69
700.301	-6.31
700.329	0.69
700.358	10.69
700.386	7.69
700.415	-2.31
700.443	-10.31
700.472	-15.31
700.5	0.69
700.528	2.69
700.557	18.69
700.585	-4.31
700.614	-2.31
700.642	12.69
700.67	25.69
700.699	24.69
700.727	16.69
700.755	13.69
700.784	-5.31
700.812	-5.31
700.841	17.69
700.869	11.69
700.897	-12.31
700.926	-0.31
700.954	27.69
700.982	17.69
701.011	-0.31
701.039	22.69
701.067	9.69
701.096	6.69
701.124	-7.31
701.152	-5.31
701.181	10.69
701.209	-2.31
701.237	-8.31
701.266	-12.31
701.294	-5.31
701.322	18.69
701.351	8.69
701.379	5.69
701.407	1.69
701.435	13.69
701.464	19.69
701.492	20.69
701.52	5.69
701.549	-6.31
701.577	3.69
701.605	-1.31
701.634	-11.31
701.662	4.69
701.69	-10.31
701.718	-2.31
701.747	12.69
701.775	-6.31
701.803	-12.31
701.831	7.69
701.86	-7.31
701.888	-5.31
701.916	0.69
701.944	11.69
701.973	-0.31
702.001	-14.31
702.029	-6.31
702.057	-4.31
702.086	-10.31
702.114	-12.31
702.142	6.69
702.17	0.69
702.199	-10.31
702.227	-5.31
702.255	-0.31
702.283	-9.31
702.311	4.69
702.34	-1.31
702.368	-11.31
702.396	5.69
702.424	7.69
702.452	1.69
702.481	-3.31
702.509	-1.31
702.537	-3.31
702.565	13.69
702.593	-14.31
702.621	-4.31
702.65	7.69
702.678	0.69
702.706	1.69
702.734	-10.31
702.762	16.69
702.79	15.69
702.819	5.69
702.847	-5.31
702.875	9.69
702.903	0.69
702.931	-7.31
702.959	3.69
702.988	-6.31
703.016	-5.31
703.044	1.69
703.072	-6.31
703.1	-0.31
703.128	-0.31
703.156	13.69
703.184	-8.31
703.212	0.69
703.241	-2.31
703.269	1.69
703.297	10.69
703.325	0.69
703.353	-7.31
703.381	-4.31
703.409	12.69
703.437	-6.31
703.465	-16.31
703.493	-10.31
703.522	-3.31
703.55	8.69
703.578	10.69
703.606	-8.31
703.634	-4.31
703.662	-5.31
703.69	-10.31
703.718	5.69
703.746	24.69
703.774	5.69
703.802	25.69
703.83	-10.31
703.858	1.69
703.886	3.69
703.914	-9.31
703.942	-4.31
703.97	-10.31
703.998	-13.31
704.027	19.69
704.055	-1.31
704.083	4.69
704.111	-5.31
704.139	-3.31
704.167	7.69
704.195	23.69
704.223	2.69
704.251	0.69
704.279	5.69
704.307	10.69
704.335	-11.31
704.363	-0.31
704.391	1.69
704.419	8.69
704.447	4.69
704.475	-1.31
704.503	-13.31
704.531	0.69
704.558	-5.31
704.586	-10.31
704.614	1.69
704.642	3.69
704.67	-15.31
704.698	0.69
704.726	-5.31
704.754	8.69
704.782	-2.31
704.81	-1.31
704.838	20.69
704.866	3.69
704.894	-7.31
704.922	3.69
704.95	6.69
704.978	8.69
705.006	5.69
705.034	1.69
705.061	-9.31
705.089	-2.31
705.117	-18.31
705.145	2.69
705.173	6.69
705.201	-7.31
705.229	4.69
705.257	3.69
705.285	22.69
705.313	1.69
705.34	-7.31
705.368	-1.31
705.396	-0.31
705.424	10.69
705.452	10.69
705.48	-2.31
705.508	-3.31
705.536	-7.31
705.563	-13.31
705.591	2.69
705.619	2.69
705.647	-7.31
705.675	8.69
705.703	12.69
705.731	-1.31
705.758	1.69
705.786	1.69
705.814	20.69
705.842	13.69
705.87	-5.31
705.898	7.69
705.925	-10.31
705.953	17.69
705.981	-7.31
706.009	0.69
706.037	-2.31
706.065	-1.31
706.092	0.69
706.12	-4.31
706.148	-1.31
706.176	4.69
706.204	1.69
706.231	3.69
706.259	1.69
706.287	-6.31
706.315	2.69
706.342	-12.31
706.37	10.69
706.398	8.69
706.426	3.69
706.454	-3.31
706.481	-1.31
706.509	-1.31
706.537	6.69
706.565	-2.31
706.592	6.69
706.62	6.69
706.648	4.69
706.676	-3.31
706.703	4.69
706.731	4.69
706.759	1.69
706.787	7.69
706.814	10.69
706.842	-8.31
706.87	-5.31
706.897	-10.31
706.925	-17.31
706.953	17.69
706.981	24.69
707.008	7.69
707.036	-21.31
707.064	-8.31
707.091	2.69
707.119	20.69
707.147	6.69
707.174	-6.31
707.202	-7.31
707.23	-22.31
707.258	6.69
707.285	-18.31
707.313	-10.31
707.341	-10.31
707.368	-2.31
707.396	8.69
707.424	22.69
707.451	-2.31
707.479	-11.31
707.507	9.69
707.534	-0.31
707.562	-1.31
707.59	-17.31
707.617	-10.31
707.645	-7.31
707.672	-1.31
707.7	-6.31
707.728	12.69
707.755	9.69
707.783	-3.31
707.811	6.69
707.838	-4.31
707.866	-2.31
707.893	-1.31
707.921	-21.31
707.949	-8.31
707.976	-5.31
708.004	5.69
708.031	-5.31
708.059	-5.31
708.087	-6.31
708.114	-11.31
708.142	3.69
708.169	8.69
708.197	-25.31
708.225	-2.31
708.252	2.69
708.28	8.69
708.307	0.69
708.335	11.69
708.362	17.69
708.39	-5.31
708.418	10.69
708.445	-3.31
708.473	-4.31
708.5	-8.31
708.528	1.69
708.555	-1.31
708.583	9.69
708.61	-2.31
708.638	8.69
708.665	-13.31
708.693	3.69
708.72	-12.31
708.748	-13.31
708.776	-5.31
708.803	19.69
708.831	5.69
708.858	4.69
708.886	9.69
708.913	-1.31
708.941	-0.31
708.968	19.69
708.996	-3.31
709.023	27.69
709.051	-6.31
709.078	-10.31
709.105	-2.31
709.133	4.69
709.16	-2.31
709.188	-10.31
709.215	-1.31
709.243	1.69
709.27	-13.31
709.298	2.69
709.325	-6.31
709.353	1.69
709.38	-11.31
709.408	9.69
709.435	2.69
709.462	-10.31
709.49	7.69
709.517	-2.31
709.545	1.69
709.572	-7.31
709.6	-28.31
709.627	-2.31
709.655	-13.31
709.682	-8.31
709.709	13.69
709.737	14.69
709.764	1.69
709.792	21.69
709.819	3.69
709.846	-3.31
709.874	1.69
709.901	9.69
709.929	6.69
709.956	6.69
709.983	-8.31
710.011	-8.31
710.038	5.69
710.066	-1.31
710.093	17.69
710.12	13.69
710.148	-8.31
710.175	-11.31
710.202	-22.31
710.23	5.69
710.257	2.69
710.284	7.69
710.312	2.69
710.339	-9.31
710.366	-2.31
710.394	-4.31
710.421	0.69
710.448	0.69
710.476	-6.31
710.503	2.69
710.53	2.69
710.558	-0.31
710.585	4.69
710.612	-12.31
710.64	-1.31
710.667	-2.31
710.694	-0.31
710.722	2.69
710.749	-4.31
710.776	-0.31
710.804	35.69
710.831	6.69
710.858	6.69
710.885	-6.31
710.913	-0.31
710.94	7.69
710.967	-5.31
710.995	10.69
711.022	1.69
711.049	-0.31
711.076	-26.31
711.104	-6.31
711.131	-17.31
711.158	-2.31
711.185	3.69
711.213	0.69
711.24	-9.31
711.267	-7.31
711.294	-3.31
711.322	10.69
711.349	-7.31
711.376	0.69
711.403	12.69
711.431	-2.31
711.458	9.69
711.485	-9.31
711.512	3.69
711.54	0.69
711.567	-0.31
711.594	-4.31
711.621	4.69
711.648	2.69
711.676	2.69
711.703	0.69
711.73	-11.31
711.757	22.69
711.784	3.69
711.812	-10.31
711.839	-8.31
711.866	-17.31
711.893	-22.31
711.92	-2.31
711.947	8.69
711.975	14.69
712.002	-6.31
712.029	11.69
712.056	-1.31
712.083	20.69
712.11	-15.31
712.138	1.69
712.165	13.69
712.192	10.69
712.219	-12.31
712.246	-9.31
712.273	-8.31
712.3	-12.31
712.328	-6.31
712.355	-8.31
712.382	-1.31
712.409	12.69
712.436	-3.31
712.463	3.69
712.49	11.69
712.517	10.69
712.544	1.69
712.572	-1.31
712.599	15.69
712.626	-0.31
712.653	-2.31
712.68	-3.31
712.707	12.69
712.734	0.69
712.761	5.69
712.788	12.69
712.815	-5.31
712.842	15.69
712.87	-5.31
712.897	-11.31
712.924	-5.31
712.951	-3.31
712.978	-1.31
713.005	8.69
713.032	12.69
713.059	8.69
713.086	0.69
713.113	3.69
713.14	-5.31
713.167	1.69
713.194	6.69
713.221	-9.31
713.248	1.69
713.275	5.69
713.302	-14.31
713.329	14.69
713.356	8.69
713.383	9.69
713.41	6.69
713.437	4.69
713.464	-2.31
713.491	-3.31
713.518	10.69
713.545	3.69
713.572	-2.31
713.599	16.69
713.626	2.69
713.653	1.69
713.68	-6.31
713.707	-3.31
713.734	2.69
713.761	6.69
713.788	1.69
713.815	-8.31
713.842	8.69
713.869	1.69
713.896	-0.31
713.923	0.69
713.95	-11.31
713.977	-10.31
714.004	5.69
714.031	0.69
714.058	-14.31
714.085	0.69
714.112	14.69
714.139	10.69
714.165	-3.31
714.192	3.69
714.219	8.69
714.246	0.69
714.273	2.69
714.3	-1.31
714.327	-1.31
714.354	8.69
714.381	1.69
714.408	3.69
714.435	4.69
714.461	-6.31
714.488	6.69
714.515	-3.31
714.542	1.69
714.569	-6.31
714.596	-5.31
714.623	-1.31
714.65	-3.31
714.677	0.69
714.703	3.69
714.73	-10.31
714.757	0.69
714.784	7.69
714.811	-3.31
714.838	0.69
714.865	-26.31
714.891	9.69
714.918	-10.31
714.945	-3.31
714.972	-9.31
714.999	9.69
715.026	-7.31
715.052	15.69
715.079	7.69
715.106	5.69
715.133	4.69
715.16	-3.31
715.187	-6.31
715.213	-7.31
715.24	-6.31
715.267	-1.31
715.294	0.69
715.321	-15.31
715.347	-9.31
715.374	-4.31
715.401	-3.31
715.428	-3.31
715.455	-10.31
715.481	-14.31
715.508	19.69
715.535	3.69
715.562	20.69
715.588	-1.31
715.615	2.69
715.642	-2.31
715.669	2.69
715.695	-2.31
715.722	-5.31
715.749	-0.31
715.776	5.69
715.802	-4.31
715.829	-6.31
715.856	-24.31
715.883	13.69
715.909	0.69
715.936	-11.31
715.963	1.69
715.99	7.69
716.016	5.69
716.043	-2.31
716.07	-14.31
716.096	-18.31
716.123	-3.31
716.15	7.69
716.177	3.69
716.203	10.69
716.23	31.69
716.257	1.69
716.283	4.69
716.31	-12.31
716.337	-3.31
716.363	-9.31
716.39	-0.31
716.417	1.69
716.443	3.69
716.47	5.69
716.497	0.69
716.523	20.69
716.55	10.69
716.577	5.69
716.603	1.69
716.63	8.69
716.657	3.69
716.683	-6.31
716.71	-5.31
716.737	-16.31
716.763	12.69
716.79	-5.31
716.817	14.69
716.843	3.69
716.87	-2.31
716.897	13.69
716.923	21.69
716.95	-4.31
716.976	-16.31
717.003	-13.31
717.03	17.69
717.056	14.69
717.083	-3.31
717.109	16.69
717.136	-4.31
717.163	-13.31
717.189	8.69
717.216	4.69
717.242	-4.31
717.269	-3.31
717.296	10.69
717.322	7.69
717.349	13.69
717.375	11.69
717.402	-0.31
717.428	-8.31
717.455	6.69
717.481	4.69
717.508	10.69
717.535	3.69
717.561	4.69
717.588	-0.31
717.614	-6.31
717.641	11.69
717.667	-0.31
717.694	2.69
717.72	1.69
717.747	14.69
717.773	-0.31
717.8	2.69
717.826	6.69
717.853	-7.31
717.88	9.69
717.906	3.69
717.933	6.69
717.959	7.69
717.986	9.69
718.012	5.69
718.039	6.69
718.065	0.69
718.092	14.69
718.118	-6.31
718.144	-9.31
718.171	25.69
718.197	20.69
718.224	8.69
718.25	3.69
718.277	1.69
718.303	-1.31
718.33	-0.31
718.356	3.69
718.383	4.69
718.409	-2.31
718.436	-5.31
718.462	-5.31
718.489	-7.31
718.515	7.69
718.541	8.69
718.568	5.69
718.594	12.69
718.621	2.69
718.647	0.69
718.674	18.69
718.7	18.69
718.726	0.69
718.753	23.69
718.779	3.69
718.806	3.69
718.832	12.69
718.858	9.69
718.885	-15.31
718.911	-5.31
718.938	8.69
718.964	-6.31
718.99	13.69
719.017	1.69
719.043	10.69
719.07	20.69
719.096	3.69
719.122	31.69
719.149	8.69
719.175	-10.31
719.201	-1.31
719.228	2.69
719.254	-0.31
719.281	2.69
719.307	1.69
719.333	-1.31
719.36	9.69
719.386	12.69
719.412	12.69
719.439	-14.31
719.465	0.69
719.491	-8.31
719.518	-0.31
719.544	-4.31
719.57	5.69
719.597	4.69
719.623	-8.31
719.649	-7.31
719.675	11.69
719.702	-1.31
719.728	-6.31
719.754	-7.31
719.781	-7.31
719.807	-0.31
719.833	2.69
719.86	6.69
719.886	4.69
719.912	-4.31
719.938	-10.31
719.965	-7.31
719.991	9.69
720.017	21.69
720.044	10.69
720.07	3.69
720.096	3.69
720.122	13.69
720.149	7.69
720.175	6.69
720.201	-3.31
720.227	-4.31
720.254	4.69
720.28	-3.31
720.306	-7.31
720.332	16.69
720.359	14.69
720.385	-1.31
720.411	8.69
720.437	13.69
720.463	7.69
720.49	6.69
720.516	-9.31
720.542	-14.31
720.568	7.69
720.595	26.69
720.621	2.69
720.647	13.69
720.673	13.69
720.699	1.69
720.725	-11.31
720.752	0.69
720.778	13.69
720.804	9.69
720.83	6.69
720.856	-2.31
720.883	1.69
720.909	2.69
720.935	5.69
720.961	0.69
720.987	-9.31
721.013	11.69
721.04	2.69
721.066	-9.31
721.092	-0.31
721.118	-5.31
721.144	0.69
721.17	4.69
721.196	6.69
721.223	5.69
721.249	-5.31
721.275	11.69
721.301	-3.31
721.327	3.69
721.353	9.69
721.379	18.69
721.405	20.69
721.432	20.69
721.458	-10.31
721.484	-7.31
721.51	-9.31
721.536	20.69
721.562	0.69
721.588	5.69
721.614	7.69
721.64	-0.31
721.666	5.69
721.693	-6.31
721.719	8.69
721.745	-3.31
721.771	0.69
721.797	-3.31
721.823	-7.31
721.849	-0.31
721.875	25.69
721.901	-6.31
721.927	7.69
721.953	15.69
721.979	17.69
722.005	8.69
722.031	-6.31
722.057	6.69
722.083	4.69
722.109	-0.31
722.135	-6.31
722.161	0.69
722.187	-5.31
722.214	-6.31
722.24	-1.31
722.266	2.69
722.292	2.69
722.318	16.69
722.344	-1.31
722.37	5.69
722.396	20.69
722.422	2.69
722.448	-1.31
722.474	-18.31
722.5	6.69
722.526	6.69
722.552	-3.31
722.578	2.69
722.603	5.69
722.629	-8.31
722.655	0.69
722.681	-9.31
722.707	-11.31
722.733	-7.31
722.759	5.69
722.785	3.69
722.811	4.69
722.837	7.69
722.863	12.69
722.889	-3.31
722.915	5.69
722.941	14.69
722.967	2.69
722.993	8.69
723.019	7.69
723.045	5.69
723.071	-7.31
723.097	-5.31
723.122	-6.31
723.148	-28.31
723.174	-10.31
723.2	0.69
723.226	-3.31
723.252	4.69
723.278	13.69
723.304	3.69
723.33	17.69
723.356	-10.31
723.381	-14.31
723.407	-9.31
723.433	12.69
723.459	5.69
723.485	-0.31
723.511	7.69
723.537	-26.31
723.563	-1.31
723.588	7.69
723.614	7.69
723.64	2.69
723.666	2.69
723.692	10.69
723.718	12.69
723.744	10.69
723.769	4.69
723.795	-1.31
723.821	11.69
723.847	-1.31
723.873	17.69
723.899	9.69
723.924	-6.31
723.95	1.69
723.976	-9.31
724.002	-4.31
724.028	5.69
724.053	0.69
724.079	-2.31
724.105	2.69
724.131	19.69
724.157	-3.31
724.182	0.69
724.208	10.69
724.234	14.69
724.26	8.69
724.286	11.69
724.311	4.69
724.337	-2.31
724.363	-8.31
724.389	-7.31
724.415	-9.31
724.44	12.69
724.466	1.69
724.492	3.69
724.518	0.69
724.543	-2.31
724.569	-1.31
724.595	20.69
724.621	-1.31
724.646	-8.31
724.672	10.69
724.698	0.69
724.723	-5.31
724.749	9.69
724.775	18.69
724.801	0.69
724.826	-4.31
724.852	7.69
724.878	-3.31
724.904	-3.31
724.929	6.69
724.955	-9.31
724.981	-2.31
725.006	3.69
725.032	-6.31
725.058	6.69
725.083	-3.31
725.109	-6.31
725.135	2.69
725.161	9.69
725.186	8.69
725.212	6.69
725.238	8.69
725.263	1.69
725.289	-10.31
725.315	-3.31
725.34	-13.31
725.366	7.69
725.392	-13.31
725.417	-6.31
725.443	0.69
725.468	2.69
725.494	4.69
725.52	3.69
725.545	-3.31
725.571	-10.31
725.597	-5.31
725.622	0.69
725.648	-1.31
725.674	24.69
725.699	10.69
725.725	4.69
725.75	20.69
725.776	-8.31
725.802	-0.31
725.827	8.69
725.853	-3.31
725.878	2.69
725.904	-2.31
725.93	-8.31
725.955	-3.31
725.981	5.69
726.006	0.69
726.032	11.69
726.057	-3.31
726.083	-11.31
726.109	4.69
726.134	-0.31
726.16	-5.31
726.185	1.69
726.211	-8.31
726.236	-3.31
726.262	5.69
726.288	12.69
726.313	21.69
726.339	-0.31
726.364	13.69
726.39	7.69
726.415	0.69
726.441	2.69
726.466	-10.31
726.492	-9.31
726.517	-4.31
726.543	4.69
726.568	-0.31
726.594	2.69
726.619	4.69
726.645	13.69
726.67	-1.31
726.696	0.69
726.721	3.69
726.747	-2.31
726.772	9.69
726.798	9.69
726.823	18.69
726.849	13.69
726.874	4.69
726.9	24.69
726.925	8.69
726.951	-1.31
726.976	3.69
727.002	-0.31
727.027	5.69
727.053	18.69
727.078	7.69
727.104	11.69
727.129	-22.31
727.155	-8.31
727.18	-2.31
727.205	8.69
727.231	7.69
727.256	13.69
727.282	12.69
727.307	-8.31
727.333	-3.31
727.358	-6.31
727.383	8.69
727.409	-17.31
727.434	11.69
727.46	16.69
727.485	-2.31
727.511	10.69
727.536	-6.31
727.561	-3.31
727.587	-16.31
727.612	-13.31
727.637	-8.31
727.663	-13.31
727.688	17.69
727.714	-5.31
727.739	-8.31
727.764	-1.31
727.79	23.69
727.815	13.69
727.841	10.69
727.866	8.69
727.891	4.69
727.917	-10.31
727.942	-14.31
727.967	-6.31
727.993	-31.31
728.018	-1.31
728.043	7.69
728.069	12.69
728.094	7.69
728.119	-6.31
728.145	-4.31
728.17	1.69
728.195	3.69
728.221	9.69
728.246	-8.31
728.271	-15.31
728.297	7.69
728.322	1.69
728.347	0.69
728.373	21.69
728.398	-5.31
728.423	-6.31
728.448	8.69
728.474	-1.31
728.499	11.69
728.524	-7.31
728.55	-6.31
728.575	2.69
728.6	6.69
728.625	-3.31
728.651	6.69
728.676	19.69
728.701	1.69
728.727	6.69
728.752	-2.31
728.777	4.69
728.802	9.69
728.828	4.69
728.853	-8.31
728.878	-11.31
728.903	6.69
728.929	-6.31
728.954	-16.31
728.979	2.69
729.004	4.69
729.03	-5.31
729.055	14.69
729.08	-2.31
729.105	-1.31
729.13	3.69
729.156	-3.31
729.181	3.69
729.206	1.69
729.231	-1.31
729.256	12.69
729.282	6.69
729.307	-5.31
729.332	-3.31
729.357	-5.31
729.382	-6.31
729.408	6.69
729.433	5.69
729.458	5.69
729.483	-4.31
729.508	9.69
729.533	10.69
729.559	7.69
729.584	-2.31
729.609	9.69
729.634	7.69
729.659	-9.31
729.684	-2.31
729.71	6.69
729.735	6.69
729.76	9.69
729.785	3.69
729.81	2.69
729.835	-4.31
729.86	12.69
729.886	12.69
729.911	-8.31
729.936	11.69
729.961	32.69
729.986	20.69
730.011	57.69
730.036	183.69
730.061	975.69
730.086	2626.69
730.112	3308.69
730.137	2732.69
730.162	2040.69
730.187	1611.69
730.212	1206.69
730.237	761.69
730.262	452.69
730.287	233.69
730.312	152.69
730.337	59.69
730.362	74.69
730.387	40.69
730.413	26.69
730.438	-2.31
730.463	24.69
730.488	19.69
730.513	13.69
730.538	22.69
730.563	19.69
730.588	23.69
730.613	19.69
730.638	-7.31
730.663	6.69
730.688	20.69
730.713	14.69
730.738	6.69
730.763	5.69
730.788	6.69
730.813	8.69
730.838	-6.31
730.863	13.69
730.888	-6.31
730.913	-9.31
730.938	-18.31
730.963	32.69
730.988	116.69
731.013	398.69
731.038	584.69
731.063	606.69
731.088	475.69
731.113	348.69
731.138	244.69
731.163	176.69
731.188	110.69
731.213	50.69
731.238	32.69
731.263	23.69
731.288	13.69
731.313	4.69
731.338	13.69
731.363	14.69
731.388	-3.31
731.413	6.69
731.438	8.69
731.463	0.69
731.487	10.69
731.512	-3.31
731.537	-12.31
731.562	-6.31
731.587	6.69
731.612	3.69
731.637	10.69
731.662	0.69
731.687	-4.31
731.712	-9.31
731.737	9.69
731.762	-2.31
731.786	17.69
731.811	-6.31
731.836	9.69
731.861	4.69
731.886	4.69
731.911	-3.31
731.936	6.69
731.961	-1.31
731.986	0.69
732.01	2.69
732.035	4.69
732.06	13.69
732.085	-12.31
732.11	-8.31
732.135	-0.31
732.16	1.69
732.184	-1.31
732.209	0.69
732.234	10.69
732.259	-3.31
732.284	14.69
732.309	-6.31
732.334	3.69
732.358	-5.31
732.383	-16.31
732.408	-0.31
732.433	6.69
732.458	1.69
732.482	2.69
732.507	-10.31
732.532	0.69
732.557	4.69
732.582	7.69
732.607	18.69
732.631	41.69
732.656	78.69
732.681	147.69
732.706	322.69
732.73	437.69
732.755	389.69
732.78	278.69
732.805	201.69
732.83	162.69
732.854	117.69
732.879	84.69
732.904	27.69
732.929	19.69
732.953	23.69
732.978	17.69
733.003	-13.31
733.028	4.69
733.052	1.69
733.077	-3.31
733.102	11.69
733.127	4.69
733.151	-6.31
733.176	8.69
733.201	4.69
733.226	-3.31
733.25	-10.31
733.275	9.69
733.3	-8.31
733.324	1.69
733.349	-7.31
733.374	19.69
733.399	6.69
733.423	-9.31
733.448	-3.31
733.473	-6.31
733.497	2.69
733.522	-15.31
733.547	15.69
733.571	6.69
733.596	5.69
733.621	12.69
733.646	-7.31
733.67	-3.31
733.695	-6.31
733.72	5.69
733.744	-0.31
733.769	-3.31
733.794	10.69
733.818	0.69
733.843	-8.31
733.867	-18.31
733.892	0.69
733.917	-10.31
733.941	10.69
733.966	1.69
733.991	-2.31
734.015	9.69
734.04	-1.31
734.065	13.69
734.089	10.69
734.114	-5.31
734.138	-3.31
734.163	-3.31
734.188	6.69
734.212	1.69
734.237	5.69
734.261	11.69
734.286	-10.31
734.311	-9.31
734.335	-6.31
734.36	-2.31
734.384	0.69
734.409	7.69
734.434	-10.31
734.458	7.69
734.483	1.69
734.507	-5.31
734.532	-12.31
734.556	-1.31
734.581	-17.31
734.606	8.69
734.63	-18.31
734.655	14.69
734.679	9.69
734.704	7.69
734.728	-9.31
734.753	0.69
734.777	10.69
734.802	-16.31
734.826	16.69
734.851	18.69
734.876	20.69
734.9	-1.31
734.925	9.69
734.949	2.69
734.974	-3.31
734.998	11.69
735.023	-9.31
735.047	-30.31
735.072	10.69
735.096	-3.31
735.121	-5.31
735.145	-6.31
735.17	6.69
735.194	14.69
735.219	-7.31
735.243	-8.31
735.268	-1.31
735.292	-2.31
735.317	6.69
735.341	0.69
735.365	-11.31
735.39	11.69
735.414	-1.31
735.439	11.69
735.463	3.69
735.488	14.69
735.512	-10.31
735.537	-5.31
735.561	-1.31
735.586	1.69
735.61	7.69
735.634	-3.31
735.659	1.69
735.683	18.69
735.708	1.69
735.732	-3.31
735.757	-6.31
735.781	-2.31
735.805	4.69
735.83	-11.31
735.854	10.69
735.879	4.69
735.903	19.69
735.927	11.69
735.952	-16.31
735.976	-4.31
736.001	15.69
736.025	5.69
736.049	5.69
736.074	-2.31
736.098	9.69
736.123	9.69
736.147	0.69
736.171	-8.31
736.196	6.69
736.22	-9.31
736.244	0.69
736.269	-6.31
736.293	5.69
736.317	-4.31
736.342	-2.31
736.366	14.69
736.39	5.69
736.415	-0.31
736.439	-0.31
736.463	7.69
736.488	0.69
736.512	3.69
736.536	11.69
736.561	14.69
736.585	3.69
736.609	24.69
736.634	-7.31
736.658	-5.31
736.682	-15.31
736.707	-15.31
736.731	-5.31
736.755	5.69
736.78	29.69
736.804	13.69
736.828	5.69
736.852	3.69
736.877	-0.31
736.901	15.69
736.925	-8.31
736.949	3.69
736.974	-0.31
736.998	-8.31
737.022	-10.31
737.047	-5.31
737.071	-10.31
737.095	4.69
737.119	32.69
737.144	19.69
737.168	-5.31
737.192	-0.31
737.216	5.69
737.241	-3.31
737.265	8.69
737.289	-9.31
737.313	-3.31
737.337	2.69
737.362	15.69
737.386	2.69
737.41	-0.31
737.434	2.69
737.459	-10.31
737.483	2.69
737.507	9.69
737.531	19.69
737.555	15.69
737.58	12.69
737.604	9.69
737.628	-11.31
737.652	-3.31
737.676	3.69
737.701	-2.31
737.725	0.69
737.749	-0.31
737.773	14.69
737.797	-2.31
737.821	-2.31
737.846	11.69
737.87	29.69
737.894	-2.31
737.918	6.69
737.942	-3.31
737.966	1.69
737.99	11.69
738.015	4.69
738.039	11.69
738.063	-3.31
738.087	7.69
738.111	-5.31
738.135	3.69
738.159	-1.31
738.184	7.69
738.208	11.69
738.232	14.69
738.256	26.69
738.28	10.69
738.304	6.69
738.328	4.69
738.352	-4.31
738.376	7.69
738.4	2.69
738.425	31.69
738.449	-0.31
738.473	12.69
738.497	-9.31
738.521	26.69
738.545	-5.31
738.569	-1.31
738.593	4.69
738.617	4.69
738.641	1.69
738.665	0.69
738.689	14.69
738.713	-6.31
738.737	-7.31
738.762	16.69
738.786	-2.31
738.81	6.69
738.834	16.69
738.858	-1.31
738.882	6.69
738.906	-13.31
738.93	12.69
738.954	0.69
738.978	5.69
739.002	-9.31
739.026	11.69
739.05	-1.31
739.074	12.69
739.098	30.69
739.122	15.69
739.146	25.69
739.17	16.69
739.194	3.69
739.218	-5.31
739.242	0.69
739.266	-2.31
739.29	17.69
739.314	12.69
739.338	10.69
739.362	22.69
739.386	8.69
739.41	9.69
739.434	-1.31
739.458	-2.31
739.482	-4.31
739.506	16.69
739.53	3.69
739.554	24.69
739.577	4.69
739.601	4.69
739.625	-12.31
739.649	-6.31
739.673	-13.31
739.697	2.69
739.721	-0.31
739.745	8.69
739.769	8.69
739.793	1.69
739.817	12.69
739.841	-5.31
739.865	-5.31
739.889	-14.31
739.912	-9.31
739.936	-0.31
739.96	-5.31
739.984	7.69
740.008	-11.31
740.032	-5.31
740.056	3.69
740.08	-7.31
740.104	-6.31
740.127	-14.31
740.151	16.69
740.175	14.69
740.199	18.69
740.223	41.69
740.247	16.69
740.271	10.69
740.295	6.69
740.318	-6.31
740.342	0.69
740.366	-16.31
740.39	13.69
740.414	-0.31
740.438	-5.31
740.461	17.69
740.485	11.69
740.509	-6.31
740.533	11.69
740.557	9.69
740.581	10.69
740.604	1.69
740.628	20.69
740.652	7.69
740.676	8.69
740.7	10.69
740.723	11.69
740.747	-3.31
740.771	-13.31
740.795	-13.31
740.819	9.69
740.842	5.69
740.866	10.69
740.89	7.69
740.914	12.69
740.938	-3.31
740.961	13.69
740.985	0.69
741.009	-2.31
741.033	5.69
741.056	-5.31
741.08	-6.31
741.104	-11.31
741.128	-7.31
741.151	9.69
741.175	4.69
741.199	6.69
741.223	8.69
741.246	-0.31
741.27	1.69
741.294	14.69
741.318	-4.31
741.341	3.69
741.365	-0.31
741.389	3.69
741.413	8.69
741.436	17.69
741.46	10.69
741.484	16.69
741.507	17.69
741.531	9.69
741.555	2.69
741.579	2.69
741.602	4.69
741.626	-0.31
741.65	-1.31
741.673	8.69
741.697	9.69
741.721	0.69
741.744	-16.31
741.768	-5.31
741.792	10.69
741.815	3.69
741.839	2.69
741.863	9.69
741.886	28.69
741.91	12.69
741.934	-4.31
741.957	0.69
741.981	20.69
742.005	7.69
742.028	-1.31
742.052	2.69
742.075	17.69
742.099	7.69
742.123	-4.31
742.146	2.69
742.17	14.69
742.194	-6.31
742.217	-3.31
742.241	-0.31
742.264	-0.31
742.288	17.69
742.312	4.69
742.335	-17.31
742.359	0.69
742.382	13.69
742.406	7.69
742.43	-4.31
742.453	5.69
742.477	-9.31
742.5	-7.31
742.524	-7.31
742.548	-5.31
742.571	-2.31
742.595	9.69
742.618	2.69
742.642	2.69
742.665	17.69
742.689	5.69
742.712	16.69
742.736	8.69
742.76	2.69
742.783	-0.31
742.807	8.69
742.83	21.69
742.854	1.69
742.877	5.69
742.901	2.69
742.924	3.69
742.948	5.69
742.971	11.69
742.995	8.69
743.018	-11.31
743.042	-18.31
743.065	-6.31
743.089	-7.31
743.112	-11.31
743.136	9.69
743.159	8.69
743.183	-2.31
743.206	3.69
743.23	-5.31
743.253	-9.31
743.277	5.69
743.3	-10.31
743.324	10.69
743.347	3.69
743.371	21.69
743.394	3.69
743.418	13.69
743.441	8.69
743.465	0.69
743.488	12.69
743.512	-15.31
743.535	6.69
743.558	0.69
743.582	6.69
743.605	-1.31
743.629	18.69
743.652	5.69
743.676	-1.31
743.699	23.69
743.723	5.69
743.746	6.69
743.769	-3.31
743.793	14.69
743.816	-0.31
743.84	10.69
743.863	-2.31
743.886	6.69
743.91	11.69
743.933	-1.31
743.957	15.69
743.98	-2.31
744.003	5.69
744.027	3.69
744.05	4.69
744.074	-4.31
744.097	-8.31
744.12	6.69
744.144	-2.31
744.167	2.69
744.19	-5.31
744.214	-12.31
744.237	-23.31
744.26	17.69
744.284	5.69
744.307	-3.31
744.331	-2.31
744.354	-11.31
744.377	-3.31
744.401	-1.31
744.424	-6.31
744.447	-21.31
744.471	-0.31
