Data from HighRes_mercury_15_13_11_07_2024_HR4C61891__98__15-14-32-985.txt Node

Date: Thu Nov 07 15:14:32 EST 2024
User: crc00042
Spectrometer: HR4C6189
Trigger mode: 4
Integration Time (sec): 1.000000E-1
Scans to average: 1
Electric dark correction enabled: true
Nonlinearity correction enabled: false
Boxcar width: 0
XAxis mode: Wavelengths
Number of Pixels in Spectrum: 3648
>>>>>Begin Spectral Data<<<<<
639.567	-40.92
639.602	-40.92
639.636	-40.92
639.67	-29.92
639.704	-29.92
639.738	-8.92
639.773	2.08
639.807	-8.92
639.841	-1.92
639.875	1.08
639.909	3.08
639.943	-11.92
639.978	-13.92
640.012	3.08
640.046	18.08
640.08	1.08
640.114	15.08
640.148	2.08
640.182	8.08
640.217	-13.92
640.251	3.08
640.285	12.08
640.319	2.08
640.353	5.08
640.387	-10.92
640.421	6.08
640.455	-0.92
640.49	-7.92
640.524	-3.92
640.558	4.08
640.592	-4.92
640.626	-0.92
640.66	4.08
640.694	-15.92
640.728	8.08
640.762	-1.92
640.796	14.08
640.83	13.08
640.865	-13.92
640.899	-14.92
640.933	-15.92
640.967	-5.92
641.001	-2.92
641.035	-6.92
641.069	1.08
641.103	-8.92
641.137	6.08
641.171	-5.92
641.205	2.08
641.239	-6.92
641.273	9.08
641.307	3.08
641.341	-14.92
641.375	-7.92
641.409	-0.92
641.443	-7.92
641.477	1.08
641.511	11.08
641.545	4.08
641.579	6.08
641.614	18.08
641.648	11.08
641.682	-4.92
641.716	1.08
641.75	11.08
641.784	3.08
641.818	8.08
641.852	-7.92
641.886	-1.92
641.919	9.08
641.953	1.08
641.987	-19.92
642.021	-3.92
642.055	9.08
642.089	6.08
642.123	-14.92
642.157	1.08
642.191	-18.92
642.225	22.08
642.259	0.08
642.293	-5.92
642.327	5.08
642.361	-2.92
642.395	2.08
642.429	11.08
642.463	11.08
642.497	14.08
642.531	-7.92
642.565	11.08
642.599	10.08
642.633	-2.92
642.666	-7.92
642.7	10.08
642.734	11.08
642.768	-5.92
642.802	-21.92
642.836	10.08
642.87	-14.92
642.904	4.08
642.938	11.08
642.972	-3.92
643.005	0.08
643.039	24.08
643.073	4.08
643.107	-0.92
643.141	4.08
643.175	11.08
643.209	15.08
643.243	12.08
643.276	3.08
643.31	-2.92
643.344	8.08
643.378	-5.92
643.412	6.08
643.446	9.08
643.48	-3.92
643.513	4.08
643.547	-4.92
643.581	-4.92
643.615	9.08
643.649	6.08
643.683	-0.92
643.716	-6.92
643.75	6.08
643.784	-5.92
643.818	6.08
643.852	-2.92
643.886	-5.92
643.919	3.08
643.953	-9.92
643.987	3.08
644.021	-6.92
644.055	22.08
644.088	3.08
644.122	-13.92
644.156	-8.92
644.19	-3.92
644.224	3.08
644.257	-5.92
644.291	12.08
644.325	-5.92
644.359	4.08
644.392	8.08
644.426	5.08
644.46	-8.92
644.494	11.08
644.527	4.08
644.561	5.08
644.595	0.08
644.629	4.08
644.662	4.08
644.696	8.08
644.73	15.08
644.764	4.08
644.797	-6.92
644.831	4.08
644.865	17.08
644.899	-2.92
644.932	40.08
644.966	-5.92
645	17.08
645.033	29.08
645.067	1.08
645.101	8.08
645.135	12.08
645.168	-1.92
645.202	-1.92
645.236	18.08
645.269	18.08
645.303	26.08
645.337	0.08
645.37	0.08
645.404	-0.92
645.438	10.08
645.471	-14.92
645.505	14.08
645.539	8.08
645.572	-9.92
645.606	-0.92
645.64	2.08
645.673	0.08
645.707	17.08
645.741	1.08
645.774	-2.92
645.808	7.08
645.842	4.08
645.875	-1.92
645.909	-21.92
645.943	-14.92
645.976	0.08
646.01	15.08
646.043	5.08
646.077	6.08
646.111	8.08
646.144	12.08
646.178	6.08
646.212	-14.92
646.245	-4.92
646.279	-8.92
646.312	3.08
646.346	6.08
646.38	7.08
646.413	13.08
646.447	-0.92
646.48	0.08
646.514	12.08
646.547	-4.92
646.581	-14.92
646.615	-6.92
646.648	-0.92
646.682	6.08
646.715	2.08
646.749	2.08
646.782	-2.92
646.816	-2.92
646.85	8.08
646.883	-1.92
646.917	-5.92
646.95	-0.92
646.984	0.08
647.017	7.08
647.051	-3.92
647.084	1.08
647.118	-8.92
647.151	0.08
647.185	8.08
647.218	15.08
647.252	6.08
647.285	-5.92
647.319	-16.92
647.353	3.08
647.386	24.08
647.42	2.08
647.453	9.08
647.487	12.08
647.52	10.08
647.553	9.08
647.587	-17.92
647.62	-3.92
647.654	8.08
647.687	2.08
647.721	4.08
647.754	6.08
647.788	9.08
647.821	-0.92
647.855	5.08
647.888	3.08
647.922	-11.92
647.955	13.08
647.989	4.08
648.022	-5.92
648.055	19.08
648.089	16.08
648.122	21.08
648.156	3.08
648.189	3.08
648.223	-4.92
648.256	21.08
648.29	16.08
648.323	4.08
648.356	5.08
648.39	13.08
648.423	8.08
648.457	10.08
648.49	11.08
648.523	8.08
648.557	22.08
648.59	18.08
648.624	12.08
648.657	-7.92
648.69	9.08
648.724	8.08
648.757	21.08
648.791	15.08
648.824	6.08
648.857	25.08
648.891	6.08
648.924	6.08
648.957	21.08
648.991	-0.92
649.024	17.08
649.057	1.08
649.091	-1.92
649.124	-3.92
649.158	24.08
649.191	21.08
649.224	1.08
649.258	10.08
649.291	4.08
649.324	11.08
649.358	7.08
649.391	10.08
649.424	2.08
649.458	8.08
649.491	14.08
649.524	-4.92
649.557	-7.92
649.591	-24.92
649.624	15.08
649.657	-12.92
649.691	4.08
649.724	9.08
649.757	3.08
649.791	-0.92
649.824	16.08
649.857	9.08
649.89	2.08
649.924	-10.92
649.957	-0.92
649.99	2.08
650.023	-3.92
650.057	-1.92
650.09	12.08
650.123	10.08
650.157	10.08
650.19	19.08
650.223	-0.92
650.256	-8.92
650.29	-7.92
650.323	-0.92
650.356	5.08
650.389	7.08
650.423	-4.92
650.456	9.08
650.489	15.08
650.522	2.08
650.555	13.08
650.589	1.08
650.622	3.08
650.655	14.08
650.688	5.08
650.721	-11.92
650.755	6.08
650.788	9.08
650.821	14.08
650.854	3.08
650.887	11.08
650.921	7.08
650.954	-6.92
650.987	2.08
651.02	-4.92
651.053	-6.92
651.087	-15.92
651.12	26.08
651.153	22.08
651.186	10.08
651.219	-1.92
651.252	14.08
651.286	20.08
651.319	7.08
651.352	4.08
651.385	11.08
651.418	-4.92
651.451	7.08
651.484	20.08
651.518	6.08
651.551	27.08
651.584	1.08
651.617	16.08
651.65	14.08
651.683	18.08
651.716	21.08
651.749	-10.92
651.783	17.08
651.816	1.08
651.849	11.08
651.882	-5.92
651.915	-3.92
651.948	6.08
651.981	-10.92
652.014	-0.92
652.047	-6.92
652.08	9.08
652.114	6.08
652.147	-7.92
652.18	22.08
652.213	25.08
652.246	-14.92
652.279	-0.92
652.312	10.08
652.345	3.08
652.378	9.08
652.411	13.08
652.444	4.08
652.477	1.08
652.51	7.08
652.543	-5.92
652.576	13.08
652.609	11.08
652.642	-1.92
652.675	1.08
652.709	7.08
652.742	20.08
652.775	-6.92
652.808	11.08
652.841	16.08
652.874	1.08
652.907	2.08
652.94	6.08
652.973	-0.92
653.006	8.08
653.039	5.08
653.072	5.08
653.105	-4.92
653.138	-8.92
653.171	5.08
653.204	9.08
653.237	9.08
653.27	-1.92
653.303	11.08
653.336	20.08
653.368	2.08
653.401	-11.92
653.434	-17.92
653.467	14.08
653.5	5.08
653.533	-8.92
653.566	7.08
653.599	1.08
653.632	11.08
653.665	10.08
653.698	2.08
653.731	-8.92
653.764	12.08
653.797	3.08
653.83	8.08
653.863	8.08
653.896	-3.92
653.929	-4.92
653.961	3.08
653.994	-3.92
654.027	7.08
654.06	9.08
654.093	5.08
654.126	11.08
654.159	5.08
654.192	8.08
654.225	-2.92
654.258	0.08
654.29	5.08
654.323	15.08
654.356	-7.92
654.389	8.08
654.422	2.08
654.455	3.08
654.488	9.08
654.521	0.08
654.553	-20.92
654.586	3.08
654.619	10.08
654.652	-0.92
654.685	12.08
654.718	28.08
654.751	6.08
654.783	-0.92
654.816	16.08
654.849	14.08
654.882	2.08
654.915	-20.92
654.948	-11.92
654.98	-7.92
655.013	-9.92
655.046	1.08
655.079	-0.92
655.112	1.08
655.144	-3.92
655.177	22.08
655.21	21.08
655.243	13.08
655.276	5.08
655.308	-5.92
655.341	2.08
655.374	10.08
655.407	-11.92
655.44	-6.92
655.472	12.08
655.505	20.08
655.538	3.08
655.571	4.08
655.603	-8.92
655.636	9.08
655.669	15.08
655.702	-18.92
655.734	-21.92
655.767	-8.92
655.8	-1.92
655.833	-0.92
655.865	3.08
655.898	-5.92
655.931	-1.92
655.964	-4.92
655.996	9.08
656.029	25.08
656.062	3.08
656.095	-3.92
656.127	9.08
656.16	-3.92
656.193	-9.92
656.225	4.08
656.258	13.08
656.291	0.08
656.324	10.08
656.356	-0.92
656.389	4.08
656.422	10.08
656.454	-10.92
656.487	2.08
656.52	2.08
656.552	-1.92
656.585	11.08
656.618	15.08
656.65	13.08
656.683	3.08
656.716	-0.92
656.748	-8.92
656.781	-6.92
656.814	-22.92
656.846	-4.92
656.879	2.08
656.912	5.08
656.944	-11.92
656.977	-2.92
657.01	-7.92
657.042	10.08
657.075	26.08
657.108	-3.92
657.14	12.08
657.173	18.08
657.205	34.08
657.238	16.08
657.271	-4.92
657.303	-16.92
657.336	-1.92
657.369	13.08
657.401	3.08
657.434	3.08
657.466	6.08
657.499	1.08
657.532	4.08
657.564	17.08
657.597	-6.92
657.629	14.08
657.662	4.08
657.694	14.08
657.727	-7.92
657.76	3.08
657.792	-1.92
657.825	-21.92
657.857	-14.92
657.89	-13.92
657.922	13.08
657.955	-10.92
657.987	-1.92
658.02	6.08
658.053	14.08
658.085	-3.92
658.118	-6.92
658.15	-7.92
658.183	12.08
658.215	9.08
658.248	6.08
658.28	6.08
658.313	15.08
658.345	12.08
658.378	10.08
658.41	6.08
658.443	9.08
658.475	8.08
658.508	6.08
658.54	-1.92
658.573	-10.92
658.605	-11.92
658.638	-18.92
658.67	-3.92
658.703	8.08
658.735	-0.92
658.768	24.08
658.8	-1.92
658.833	8.08
658.865	12.08
658.898	2.08
658.93	8.08
658.963	-0.92
658.995	-11.92
659.028	12.08
659.06	8.08
659.092	-4.92
659.125	-10.92
659.157	3.08
659.19	-4.92
659.222	7.08
659.255	1.08
659.287	-0.92
659.32	-5.92
659.352	0.08
659.384	20.08
659.417	-1.92
659.449	0.08
659.482	25.08
659.514	-4.92
659.546	-6.92
659.579	-5.92
659.611	-12.92
659.644	-1.92
659.676	-26.92
659.708	-8.92
659.741	-0.92
659.773	1.08
659.806	6.08
659.838	9.08
659.87	-1.92
659.903	-0.92
659.935	5.08
659.967	1.08
660	11.08
660.032	-25.92
660.065	1.08
660.097	2.08
660.129	8.08
660.162	-6.92
660.194	7.08
660.226	2.08
660.259	2.08
660.291	-0.92
660.323	-1.92
660.356	7.08
660.388	-8.92
660.42	-10.92
660.453	15.08
660.485	11.08
660.517	8.08
660.55	5.08
660.582	1.08
660.614	25.08
660.647	-2.92
660.679	-4.92
660.711	8.08
660.743	5.08
660.776	-0.92
660.808	-13.92
660.84	-5.92
660.873	1.08
660.905	-13.92
660.937	0.08
660.969	-15.92
661.002	-7.92
661.034	20.08
661.066	-1.92
661.099	6.08
661.131	21.08
661.163	-2.92
661.195	5.08
661.228	11.08
661.26	3.08
661.292	3.08
661.324	-3.92
661.357	8.08
661.389	3.08
661.421	1.08
661.453	6.08
661.485	9.08
661.518	1.08
661.55	-8.92
661.582	-18.92
661.614	-6.92
661.647	4.08
661.679	0.08
661.711	-5.92
661.743	-7.92
661.775	7.08
661.808	31.08
661.84	-2.92
661.872	0.08
661.904	-7.92
661.936	-6.92
661.969	-0.92
662.001	-13.92
662.033	-14.92
662.065	-1.92
662.097	3.08
662.129	20.08
662.162	2.08
662.194	3.08
662.226	15.08
662.258	20.08
662.29	23.08
662.322	-4.92
662.355	-4.92
662.387	20.08
662.419	17.08
662.451	-6.92
662.483	-1.92
662.515	0.08
662.547	15.08
662.58	6.08
662.612	-4.92
662.644	-9.92
662.676	-7.92
662.708	0.08
662.74	5.08
662.772	1.08
662.804	-2.92
662.836	5.08
662.869	-7.92
662.901	5.08
662.933	3.08
662.965	8.08
662.997	23.08
663.029	1.08
663.061	-16.92
663.093	-1.92
663.125	5.08
663.157	1.08
663.189	-5.92
663.221	10.08
663.254	-4.92
663.286	6.08
663.318	-7.92
663.35	-6.92
663.382	-11.92
663.414	-1.92
663.446	-13.92
663.478	-7.92
663.51	24.08
663.542	-8.92
663.574	-9.92
663.606	10.08
663.638	-4.92
663.67	6.08
663.702	-2.92
663.734	6.08
663.766	5.08
663.798	4.08
663.83	32.08
663.862	8.08
663.894	14.08
663.926	-13.92
663.958	-3.92
663.99	1.08
664.022	5.08
664.054	16.08
664.086	-17.92
664.118	-11.92
664.15	-18.92
664.182	6.08
664.214	-3.92
664.246	-0.92
664.278	-12.92
664.31	14.08
664.342	11.08
664.374	2.08
664.406	-6.92
664.438	-4.92
664.47	15.08
664.502	16.08
664.534	-6.92
664.566	-13.92
664.598	3.08
664.63	-6.92
664.662	10.08
664.693	-0.92
664.725	-11.92
664.757	-11.92
664.789	-12.92
664.821	0.08
664.853	12.08
664.885	20.08
664.917	-2.92
664.949	15.08
664.981	17.08
665.013	3.08
665.045	-11.92
665.076	-5.92
665.108	6.08
665.14	3.08
665.172	9.08
665.204	6.08
665.236	-2.92
665.268	3.08
665.3	-17.92
665.331	-19.92
665.363	5.08
665.395	12.08
665.427	-5.92
665.459	17.08
665.491	-2.92
665.523	-12.92
665.555	2.08
665.586	-1.92
665.618	1.08
665.65	-7.92
665.682	18.08
665.714	5.08
665.746	2.08
665.777	1.08
665.809	2.08
665.841	-1.92
665.873	-1.92
665.905	11.08
665.937	-7.92
665.968	10.08
666	0.08
666.032	13.08
666.064	-11.92
666.096	5.08
666.127	4.08
666.159	12.08
666.191	18.08
666.223	1.08
666.255	-4.92
666.286	-8.92
666.318	5.08
666.35	15.08
666.382	8.08
666.413	-1.92
666.445	-11.92
666.477	-4.92
666.509	4.08
666.54	-5.92
666.572	-9.92
666.604	5.08
666.636	-1.92
666.667	18.08
666.699	14.08
666.731	-0.92
666.763	-2.92
666.794	9.08
666.826	-1.92
666.858	-8.92
666.89	9.08
666.921	23.08
666.953	6.08
666.985	10.08
667.017	21.08
667.048	6.08
667.08	10.08
667.112	-3.92
667.143	-6.92
667.175	6.08
667.207	13.08
667.238	9.08
667.27	-0.92
667.302	1.08
667.334	4.08
667.365	12.08
667.397	5.08
667.429	-0.92
667.46	6.08
667.492	10.08
667.524	8.08
667.555	3.08
667.587	2.08
667.619	-0.92
667.65	8.08
667.682	3.08
667.714	5.08
667.745	18.08
667.777	7.08
667.808	13.08
667.84	15.08
667.872	4.08
667.903	13.08
667.935	-0.92
667.967	18.08
667.998	7.08
668.03	-4.92
668.061	8.08
668.093	12.08
668.125	1.08
668.156	0.08
668.188	-3.92
668.22	6.08
668.251	5.08
668.283	20.08
668.314	18.08
668.346	12.08
668.377	7.08
668.409	24.08
668.441	24.08
668.472	13.08
668.504	36.08
668.535	12.08
668.567	15.08
668.599	12.08
668.63	-7.92
668.662	0.08
668.693	17.08
668.725	18.08
668.756	19.08
668.788	2.08
668.819	4.08
668.851	11.08
668.882	-2.92
668.914	-3.92
668.946	-14.92
668.977	-7.92
669.009	-8.92
669.04	-4.92
669.072	1.08
669.103	1.08
669.135	8.08
669.166	-21.92
669.198	0.08
669.229	16.08
669.261	5.08
669.292	4.08
669.324	10.08
669.355	-0.92
669.387	-10.92
669.418	8.08
669.45	-5.92
669.481	1.08
669.513	15.08
669.544	6.08
669.576	0.08
669.607	27.08
669.639	3.08
669.67	5.08
669.701	-1.92
669.733	-16.92
669.764	8.08
669.796	-4.92
669.827	-6.92
669.859	-20.92
669.89	-8.92
669.922	-0.92
669.953	17.08
669.985	8.08
670.016	7.08
670.047	8.08
670.079	-5.92
670.11	-8.92
670.142	7.08
670.173	-1.92
670.204	-7.92
670.236	1.08
670.267	-13.92
670.299	3.08
670.33	-1.92
670.362	13.08
670.393	-25.92
670.424	10.08
670.456	-19.92
670.487	2.08
670.518	13.08
670.55	-0.92
670.581	-3.92
670.613	-17.92
670.644	-13.92
670.675	-12.92
670.707	-9.92
670.738	-17.92
670.769	-6.92
670.801	-11.92
670.832	-2.92
670.864	-3.92
670.895	-7.92
670.926	0.08
670.958	-10.92
670.989	-4.92
671.02	2.08
671.052	-0.92
671.083	-0.92
671.114	-2.92
671.146	7.08
671.177	7.08
671.208	0.08
671.24	-9.92
671.271	2.08
671.302	12.08
671.333	-11.92
671.365	-10.92
671.396	-2.92
671.427	-4.92
671.459	-2.92
671.49	-10.92
671.521	-4.92
671.553	16.08
671.584	6.08
671.615	-3.92
671.646	-1.92
671.678	3.08
671.709	-16.92
671.74	-26.92
671.771	-3.92
671.803	-7.92
671.834	-12.92
671.865	6.08
671.896	20.08
671.928	-6.92
671.959	-12.92
671.99	2.08
672.021	2.08
672.053	-10.92
672.084	-6.92
672.115	2.08
672.146	-19.92
672.178	-13.92
672.209	9.08
672.24	-13.92
672.271	22.08
672.303	0.08
672.334	-13.92
672.365	-1.92
672.396	8.08
672.427	9.08
672.459	13.08
672.49	6.08
672.521	-8.92
672.552	12.08
672.583	-1.92
672.615	3.08
672.646	6.08
672.677	2.08
672.708	-0.92
672.739	7.08
672.77	8.08
672.802	2.08
672.833	2.08
672.864	0.08
672.895	-2.92
672.926	2.08
672.957	-16.92
672.989	3.08
673.02	12.08
673.051	-2.92
673.082	1.08
673.113	-6.92
673.144	-18.92
673.175	-9.92
673.206	-24.92
673.238	-12.92
673.269	-5.92
673.3	-14.92
673.331	5.08
673.362	5.08
673.393	-6.92
673.424	-0.92
673.455	8.08
673.487	-2.92
673.518	3.08
673.549	-5.92
673.58	3.08
673.611	7.08
673.642	-0.92
673.673	-28.92
673.704	0.08
673.735	-13.92
673.766	-1.92
673.797	-8.92
673.828	-3.92
673.86	1.08
673.891	-19.92
673.922	-9.92
673.953	2.08
673.984	3.08
674.015	26.08
674.046	16.08
674.077	7.08
674.108	-8.92
674.139	-2.92
674.17	-9.92
674.201	4.08
674.232	5.08
674.263	-0.92
674.294	19.08
674.325	-0.92
674.356	1.08
674.387	10.08
674.418	2.08
674.449	-13.92
674.48	-11.92
674.511	2.08
674.542	2.08
674.573	-6.92
674.604	0.08
674.635	4.08
674.666	10.08
674.697	8.08
674.728	6.08
674.759	-6.92
674.79	-40.92
674.821	-3.92
674.852	-3.92
674.883	-16.92
674.914	-5.92
674.945	0.08
674.976	12.08
675.007	10.08
675.038	-6.92
675.069	-13.92
675.1	-9.92
675.131	-0.92
675.162	-1.92
675.193	-2.92
675.224	0.08
675.254	9.08
675.285	-8.92
675.316	3.08
675.347	-10.92
675.378	-29.92
675.409	-5.92
675.44	-0.92
675.471	-8.92
675.502	-8.92
675.533	5.08
675.564	14.08
675.595	2.08
675.625	6.08
675.656	-2.92
675.687	10.08
675.718	-11.92
675.749	5.08
675.78	-0.92
675.811	0.08
675.842	5.08
675.873	-3.92
675.903	-3.92
675.934	-7.92
675.965	-12.92
675.996	-11.92
676.027	7.08
676.058	1.08
676.089	-21.92
676.119	-3.92
676.15	0.08
676.181	1.08
676.212	3.08
676.243	3.08
676.274	-15.92
676.304	23.08
676.335	-4.92
676.366	-0.92
676.397	-6.92
676.428	3.08
676.459	4.08
676.489	3.08
676.52	11.08
676.551	7.08
676.582	-15.92
676.613	4.08
676.643	-5.92
676.674	10.08
676.705	6.08
676.736	2.08
676.767	5.08
676.797	11.08
676.828	-0.92
676.859	-15.92
676.89	-5.92
676.92	-0.92
676.951	4.08
676.982	7.08
677.013	1.08
677.044	18.08
677.074	24.08
677.105	-3.92
677.136	22.08
677.167	3.08
677.197	7.08
677.228	-3.92
677.259	2.08
677.289	-2.92
677.32	-1.92
677.351	0.08
677.382	-4.92
677.412	-8.92
677.443	3.08
677.474	2.08
677.505	-21.92
677.535	2.08
677.566	4.08
677.597	-1.92
677.627	-5.92
677.658	1.08
677.689	-0.92
677.72	5.08
677.75	1.08
677.781	3.08
677.812	9.08
677.842	14.08
677.873	-3.92
677.904	-2.92
677.934	1.08
677.965	-10.92
677.996	-11.92
678.026	2.08
678.057	7.08
678.088	-8.92
678.118	19.08
678.149	-3.92
678.18	-22.92
678.21	1.08
678.241	2.08
678.272	-3.92
678.302	4.08
678.333	7.08
678.363	14.08
678.394	16.08
678.425	-5.92
678.455	-3.92
678.486	5.08
678.517	-3.92
678.547	3.08
678.578	9.08
678.608	-10.92
678.639	8.08
678.67	23.08
678.7	-1.92
678.731	-5.92
678.761	13.08
678.792	1.08
678.823	4.08
678.853	10.08
678.884	-9.92
678.914	16.08
678.945	-2.92
678.975	-5.92
679.006	-1.92
679.037	-2.92
679.067	28.08
679.098	-2.92
679.128	-2.92
679.159	-10.92
679.189	-1.92
679.22	-12.92
679.25	2.08
679.281	-0.92
679.312	-10.92
679.342	5.08
679.373	22.08
679.403	2.08
679.434	-7.92
679.464	-3.92
679.495	-11.92
679.525	0.08
679.556	5.08
679.586	-6.92
679.617	10.08
679.647	-4.92
679.678	0.08
679.708	-15.92
679.739	5.08
679.769	1.08
679.8	-9.92
679.83	-3.92
679.861	14.08
679.891	0.08
679.922	0.08
679.952	-4.92
679.983	12.08
680.013	-4.92
680.044	-9.92
680.074	3.08
680.105	5.08
680.135	-5.92
680.165	-1.92
680.196	18.08
680.226	19.08
680.257	13.08
680.287	21.08
680.318	1.08
680.348	-4.92
680.379	10.08
680.409	0.08
680.439	-9.92
680.47	8.08
680.5	16.08
680.531	-0.92
680.561	7.08
680.592	6.08
680.622	21.08
680.652	-5.92
680.683	14.08
680.713	-0.92
680.744	9.08
680.774	-2.92
680.804	19.08
680.835	4.08
680.865	-6.92
680.896	21.08
680.926	12.08
680.956	-1.92
680.987	-0.92
681.017	-16.92
681.047	-4.92
681.078	-10.92
681.108	-14.92
681.139	2.08
681.169	17.08
681.199	8.08
681.23	-1.92
681.26	8.08
681.29	-9.92
681.321	-9.92
681.351	-5.92
681.381	-12.92
681.412	-3.92
681.442	4.08
681.472	7.08
681.503	6.08
681.533	0.08
681.563	-10.92
681.594	8.08
681.624	13.08
681.654	0.08
681.685	4.08
681.715	-9.92
681.745	-7.92
681.775	-18.92
681.806	10.08
681.836	17.08
681.866	-0.92
681.897	9.08
681.927	-8.92
681.957	-17.92
681.987	-5.92
682.018	-3.92
682.048	2.08
682.078	-11.92
682.109	23.08
682.139	11.08
682.169	1.08
682.199	-8.92
682.23	-7.92
682.26	9.08
682.29	4.08
682.32	9.08
682.351	6.08
682.381	0.08
682.411	-12.92
682.441	-2.92
682.472	-19.92
682.502	-6.92
682.532	-2.92
682.562	0.08
682.592	7.08
682.623	2.08
682.653	-3.92
682.683	-3.92
682.713	9.08
682.743	-7.92
682.774	-5.92
682.804	0.08
682.834	14.08
682.864	-3.92
682.894	-6.92
682.925	-12.92
682.955	2.08
682.985	-5.92
683.015	5.08
683.045	12.08
683.076	6.08
683.106	-2.92
683.136	-6.92
683.166	0.08
683.196	-2.92
683.226	1.08
683.257	-3.92
683.287	1.08
683.317	-1.92
683.347	4.08
683.377	5.08
683.407	-1.92
683.437	2.08
683.468	21.08
683.498	2.08
683.528	-0.92
683.558	-1.92
683.588	-9.92
683.618	-9.92
683.648	-14.92
683.678	9.08
683.708	2.08
683.739	1.08
683.769	6.08
683.799	-5.92
683.829	0.08
683.859	2.08
683.889	4.08
683.919	4.08
683.949	3.08
683.979	-5.92
684.009	-7.92
684.039	10.08
684.07	-7.92
684.1	11.08
684.13	9.08
684.16	8.08
684.19	-0.92
684.22	-23.92
684.25	-1.92
684.28	-18.92
684.31	17.08
684.34	2.08
684.37	-3.92
684.4	-11.92
684.43	-3.92
684.46	-5.92
684.49	10.08
684.52	18.08
684.55	13.08
684.58	-0.92
684.61	3.08
684.64	7.08
684.67	4.08
684.7	2.08
684.73	-1.92
684.76	-16.92
684.79	11.08
684.82	18.08
684.85	5.08
684.88	8.08
684.91	8.08
684.94	-13.92
684.97	-5.92
685	-2.92
685.03	-13.92
685.06	-3.92
685.09	-0.92
685.12	11.08
685.15	-12.92
685.18	13.08
685.21	0.08
685.24	23.08
685.27	26.08
685.3	3.08
685.33	6.08
685.36	-2.92
685.39	8.08
685.42	1.08
685.45	2.08
685.48	-6.92
685.51	9.08
685.54	23.08
685.569	10.08
685.599	16.08
685.629	-5.92
685.659	3.08
685.689	-5.92
685.719	-0.92
685.749	-3.92
685.779	8.08
685.809	5.08
685.839	0.08
685.869	-0.92
685.898	18.08
685.928	12.08
685.958	-0.92
685.988	18.08
686.018	-2.92
686.048	10.08
686.078	15.08
686.108	17.08
686.137	8.08
686.167	18.08
686.197	1.08
686.227	7.08
686.257	25.08
686.287	9.08
686.317	10.08
686.346	13.08
686.376	5.08
686.406	-13.92
686.436	7.08
686.466	10.08
686.496	12.08
686.525	6.08
686.555	3.08
686.585	14.08
686.615	33.08
686.645	22.08
686.675	-6.92
686.704	3.08
686.734	10.08
686.764	4.08
686.794	-5.92
686.824	4.08
686.853	5.08
686.883	25.08
686.913	17.08
686.943	3.08
686.973	4.08
687.002	2.08
687.032	-0.92
687.062	-1.92
687.092	0.08
687.121	-7.92
687.151	12.08
687.181	1.08
687.211	19.08
687.24	-2.92
687.27	-7.92
687.3	-11.92
687.33	-3.92
687.359	-24.92
687.389	-0.92
687.419	-9.92
687.449	-10.92
687.478	10.08
687.508	2.08
687.538	8.08
687.568	3.08
687.597	-7.92
687.627	1.08
687.657	6.08
687.686	15.08
687.716	15.08
687.746	-12.92
687.776	-13.92
687.805	10.08
687.835	19.08
687.865	12.08
687.894	14.08
687.924	11.08
687.954	-1.92
687.983	1.08
688.013	17.08
688.043	7.08
688.072	-1.92
688.102	7.08
688.132	-1.92
688.161	-5.92
688.191	0.08
688.221	17.08
688.25	-0.92
688.28	-6.92
688.31	-6.92
688.339	-10.92
688.369	-4.92
688.399	-4.92
688.428	-11.92
688.458	7.08
688.488	-7.92
688.517	13.08
688.547	4.08
688.576	39.08
688.606	5.08
688.636	-4.92
688.665	6.08
688.695	3.08
688.725	4.08
688.754	11.08
688.784	7.08
688.813	3.08
688.843	5.08
688.873	-4.92
688.902	-12.92
688.932	3.08
688.961	-5.92
688.991	-2.92
689.02	12.08
689.05	1.08
689.08	0.08
689.109	3.08
689.139	1.08
689.168	19.08
689.198	-3.92
689.227	-6.92
689.257	1.08
689.287	15.08
689.316	-0.92
689.346	-4.92
689.375	-4.92
689.405	11.08
689.434	-1.92
689.464	-4.92
689.493	2.08
689.523	-7.92
689.552	-2.92
689.582	3.08
689.611	-2.92
689.641	12.08
689.67	14.08
689.7	2.08
689.73	3.08
689.759	-1.92
689.789	19.08
689.818	9.08
689.848	-7.92
689.877	10.08
689.906	-4.92
689.936	0.08
689.965	5.08
689.995	24.08
690.024	11.08
690.054	3.08
690.083	-8.92
690.113	-9.92
690.142	5.08
690.172	-1.92
690.201	14.08
690.231	1.08
690.26	9.08
690.29	14.08
690.319	10.08
690.348	-2.92
690.378	-4.92
690.407	5.08
690.437	7.08
690.466	12.08
690.496	-3.92
690.525	12.08
690.555	2.08
690.584	-4.92
690.613	-2.92
690.643	5.08
690.672	5.08
690.702	2.08
690.731	0.08
690.76	18.08
690.79	68.08
690.819	47.08
690.849	36.08
690.878	31.08
690.907	22.08
690.937	30.08
690.966	9.08
690.996	15.08
691.025	0.08
691.054	2.08
691.084	11.08
691.113	18.08
691.142	12.08
691.172	22.08
691.201	10.08
691.23	1.08
691.26	2.08
691.289	10.08
691.319	5.08
691.348	8.08
691.377	6.08
691.407	-2.92
691.436	3.08
691.465	0.08
691.495	-23.92
691.524	-4.92
691.553	1.08
691.583	8.08
691.612	21.08
691.641	10.08
691.67	9.08
691.7	19.08
691.729	-8.92
691.758	6.08
691.788	2.08
691.817	0.08
691.846	5.08
691.876	2.08
691.905	-3.92
691.934	2.08
691.963	22.08
691.993	11.08
692.022	-3.92
692.051	-0.92
692.081	17.08
692.11	20.08
692.139	15.08
692.168	7.08
692.198	30.08
692.227	7.08
692.256	6.08
692.285	-2.92
692.315	-3.92
692.344	-2.92
692.373	-5.92
692.402	-0.92
692.432	3.08
692.461	0.08
692.49	3.08
692.519	-10.92
692.548	5.08
692.578	19.08
692.607	-9.92
692.636	-12.92
692.665	1.08
692.694	2.08
692.724	1.08
692.753	6.08
692.782	11.08
692.811	-9.92
692.84	2.08
692.87	0.08
692.899	0.08
692.928	1.08
692.957	-7.92
692.986	-0.92
693.016	12.08
693.045	9.08
693.074	-0.92
693.103	-8.92
693.132	9.08
693.161	-3.92
693.191	1.08
693.22	-2.92
693.249	4.08
693.278	-6.92
693.307	18.08
693.336	-4.92
693.365	-13.92
693.395	3.08
693.424	-1.92
693.453	10.08
693.482	-5.92
693.511	-1.92
693.54	-1.92
693.569	10.08
693.598	8.08
693.628	16.08
693.657	17.08
693.686	15.08
693.715	30.08
693.744	15.08
693.773	16.08
693.802	12.08
693.831	4.08
693.86	12.08
693.889	1.08
693.919	2.08
693.948	6.08
693.977	15.08
694.006	-2.92
694.035	2.08
694.064	-1.92
694.093	4.08
694.122	8.08
694.151	1.08
694.18	4.08
694.209	17.08
694.238	9.08
694.267	38.08
694.296	18.08
694.325	4.08
694.354	16.08
694.383	-5.92
694.412	0.08
694.441	0.08
694.471	7.08
694.5	-7.92
694.529	5.08
694.558	19.08
694.587	27.08
694.616	17.08
694.645	16.08
694.674	10.08
694.703	16.08
694.732	2.08
694.761	19.08
694.79	28.08
694.819	5.08
694.848	21.08
694.877	13.08
694.906	27.08
694.935	13.08
694.963	9.08
694.992	5.08
695.021	4.08
695.05	9.08
695.079	-7.92
695.108	-5.92
695.137	15.08
695.166	-0.92
695.195	-2.92
695.224	9.08
695.253	6.08
695.282	-1.92
695.311	8.08
695.34	-0.92
695.369	9.08
695.398	2.08
695.427	12.08
695.456	8.08
695.485	1.08
695.513	-0.92
695.542	-10.92
695.571	-6.92
695.6	32.08
695.629	11.08
695.658	13.08
695.687	-0.92
695.716	1.08
695.745	19.08
695.774	0.08
695.802	5.08
695.831	4.08
695.86	20.08
695.889	23.08
695.918	25.08
695.947	0.08
695.976	11.08
696.005	14.08
696.033	-7.92
696.062	18.08
696.091	-5.92
696.12	-1.92
696.149	22.08
696.178	-6.92
696.207	11.08
696.235	-10.92
696.264	12.08
696.293	4.08
696.322	8.08
696.351	14.08
696.38	2.08
696.408	4.08
696.437	-6.92
696.466	7.08
696.495	12.08
696.524	22.08
696.553	17.08
696.581	17.08
696.61	3.08
696.639	11.08
696.668	12.08
696.697	-2.92
696.725	3.08
696.754	8.08
696.783	6.08
696.812	-1.92
696.84	12.08
696.869	4.08
696.898	2.08
696.927	4.08
696.956	22.08
696.984	-10.92
697.013	-0.92
697.042	7.08
697.071	23.08
697.099	18.08
697.128	16.08
697.157	5.08
697.186	-6.92
697.214	-10.92
697.243	5.08
697.272	-10.92
697.301	5.08
697.329	6.08
697.358	17.08
697.387	29.08
697.415	20.08
697.444	11.08
697.473	9.08
697.502	1.08
697.53	14.08
697.559	14.08
697.588	1.08
697.616	1.08
697.645	6.08
697.674	5.08
697.703	-8.92
697.731	20.08
697.76	27.08
697.789	0.08
697.817	7.08
697.846	17.08
697.875	16.08
697.903	29.08
697.932	8.08
697.961	9.08
697.989	0.08
698.018	7.08
698.047	6.08
698.075	14.08
698.104	3.08
698.133	-6.92
698.161	-0.92
698.19	-2.92
698.218	-5.92
698.247	16.08
698.276	11.08
698.304	14.08
698.333	22.08
698.362	6.08
698.39	11.08
698.419	12.08
698.447	-0.92
698.476	3.08
698.505	17.08
698.533	-2.92
698.562	3.08
698.591	-17.92
698.619	-11.92
698.648	7.08
698.676	13.08
698.705	2.08
698.733	-1.92
698.762	16.08
698.791	15.08
698.819	22.08
698.848	5.08
698.876	19.08
698.905	11.08
698.933	17.08
698.962	4.08
698.991	12.08
699.019	17.08
699.048	-5.92
699.076	21.08
699.105	1.08
699.133	-6.92
699.162	18.08
699.19	11.08
699.219	7.08
699.248	4.08
699.276	15.08
699.305	11.08
699.333	12.08
699.362	11.08
699.39	3.08
699.419	8.08
699.447	25.08
699.476	19.08
699.504	5.08
699.533	9.08
699.561	-2.92
699.59	-3.92
699.618	11.08
699.647	9.08
699.675	3.08
699.704	27.08
699.732	-1.92
699.761	12.08
699.789	1.08
699.818	17.08
699.846	-4.92
699.874	-6.92
699.903	-5.92
699.931	5.08
699.96	17.08
699.988	-0.92
700.017	-0.92
700.045	-0.92
700.074	-6.92
700.102	9.08
700.13	1.08
700.159	10.08
700.187	6.08
700.216	0.08
700.244	-5.92
700.273	-9.92
700.301	-0.92
700.329	10.08
700.358	2.08
700.386	5.08
700.415	2.08
700.443	-0.92
700.472	-0.92
700.5	3.08
700.528	-0.92
700.557	6.08
700.585	8.08
700.614	-0.92
700.642	3.08
700.67	27.08
700.699	9.08
700.727	-0.92
700.755	22.08
700.784	5.08
700.812	1.08
700.841	6.08
700.869	11.08
700.897	-12.92
700.926	12.08
700.954	18.08
700.982	15.08
701.011	2.08
701.039	-3.92
701.067	9.08
701.096	16.08
701.124	-0.92
701.152	8.08
701.181	12.08
701.209	-1.92
701.237	2.08
701.266	-2.92
701.294	-14.92
701.322	1.08
701.351	4.08
701.379	7.08
701.407	5.08
701.435	-6.92
701.464	16.08
701.492	34.08
701.52	9.08
701.549	18.08
701.577	-13.92
701.605	7.08
701.634	12.08
701.662	24.08
701.69	-5.92
701.718	-0.92
701.747	6.08
701.775	18.08
701.803	-1.92
701.831	13.08
701.86	11.08
701.888	21.08
701.916	6.08
701.944	6.08
701.973	1.08
702.001	-6.92
702.029	-2.92
702.057	-3.92
702.086	-15.92
702.114	-6.92
702.142	5.08
702.17	-5.92
702.199	15.08
702.227	-9.92
702.255	11.08
702.283	-1.92
702.311	3.08
702.34	5.08
702.368	0.08
702.396	1.08
702.424	0.08
702.452	-7.92
702.481	4.08
702.509	0.08
702.537	12.08
702.565	0.08
702.593	-14.92
702.621	17.08
702.65	5.08
702.678	12.08
702.706	18.08
702.734	-4.92
702.762	9.08
702.79	3.08
702.819	12.08
702.847	15.08
702.875	12.08
702.903	9.08
702.931	-8.92
702.959	1.08
702.988	5.08
703.016	-21.92
703.044	-4.92
703.072	0.08
703.1	-8.92
703.128	0.08
703.156	7.08
703.184	2.08
703.212	3.08
703.241	2.08
703.269	3.08
703.297	12.08
703.325	2.08
703.353	1.08
703.381	-10.92
703.409	-2.92
703.437	-8.92
703.465	-4.92
703.493	-9.92
703.522	7.08
703.55	17.08
703.578	14.08
703.606	-1.92
703.634	7.08
703.662	-7.92
703.69	15.08
703.718	8.08
703.746	18.08
703.774	-5.92
703.802	19.08
703.83	-3.92
703.858	6.08
703.886	5.08
703.914	-8.92
703.942	14.08
703.97	-0.92
703.998	-0.92
704.027	2.08
704.055	-4.92
704.083	11.08
704.111	1.08
704.139	12.08
704.167	3.08
704.195	4.08
704.223	-7.92
704.251	6.08
704.279	12.08
704.307	-2.92
704.335	-1.92
704.363	1.08
704.391	-2.92
704.419	-5.92
704.447	-6.92
704.475	3.08
704.503	-8.92
704.531	16.08
704.558	20.08
704.586	3.08
704.614	-6.92
704.642	-3.92
704.67	-21.92
704.698	-6.92
704.726	-14.92
704.754	-7.92
704.782	-2.92
704.81	3.08
704.838	20.08
704.866	21.08
704.894	-8.92
704.922	-6.92
704.95	4.08
704.978	21.08
705.006	-2.92
705.034	7.08
705.061	-5.92
705.089	-5.92
705.117	-1.92
705.145	-3.92
705.173	-1.92
705.201	8.08
705.229	3.08
705.257	-0.92
705.285	7.08
705.313	2.08
705.34	-6.92
705.368	-12.92
705.396	15.08
705.424	0.08
705.452	-0.92
705.48	3.08
705.508	-5.92
705.536	6.08
705.563	1.08
705.591	10.08
705.619	3.08
705.647	4.08
705.675	-10.92
705.703	-1.92
705.731	-12.92
705.758	-8.92
705.786	-13.92
705.814	14.08
705.842	6.08
705.87	4.08
705.898	16.08
705.925	-3.92
705.953	7.08
705.981	-9.92
706.009	13.08
706.037	6.08
706.065	1.08
706.092	4.08
706.12	5.08
706.148	-13.92
706.176	4.08
706.204	-1.92
706.231	7.08
706.259	-1.92
706.287	10.08
706.315	2.08
706.342	-6.92
706.37	21.08
706.398	1.08
706.426	15.08
706.454	6.08
706.481	14.08
706.509	9.08
706.537	10.08
706.565	-7.92
706.592	15.08
706.62	5.08
706.648	3.08
706.676	-16.92
706.703	6.08
706.731	-7.92
706.759	-7.92
706.787	-5.92
706.814	-4.92
706.842	-4.92
706.87	3.08
706.897	14.08
706.925	0.08
706.953	2.08
706.981	21.08
707.008	5.08
707.036	2.08
707.064	-12.92
707.091	-7.92
707.119	3.08
707.147	1.08
707.174	5.08
707.202	0.08
707.23	-12.92
707.258	15.08
707.285	-3.92
707.313	-16.92
707.341	-10.92
707.368	4.08
707.396	11.08
707.424	9.08
707.451	6.08
707.479	10.08
707.507	-1.92
707.534	-9.92
707.562	-2.92
707.59	-4.92
707.617	-15.92
707.645	0.08
707.672	7.08
707.7	-7.92
707.728	4.08
707.755	7.08
707.783	8.08
707.811	17.08
707.838	-3.92
707.866	-12.92
707.893	-13.92
707.921	-9.92
707.949	-1.92
707.976	-7.92
708.004	0.08
708.031	1.08
708.059	0.08
708.087	2.08
708.114	1.08
708.142	-6.92
708.169	-10.92
708.197	-2.92
708.225	-20.92
708.252	-18.92
708.28	15.08
708.307	-2.92
708.335	1.08
708.362	14.08
708.39	-3.92
708.418	0.08
708.445	-2.92
708.473	-6.92
708.5	-6.92
708.528	4.08
708.555	0.08
708.583	10.08
708.61	2.08
708.638	7.08
708.665	-6.92
708.693	8.08
708.72	-8.92
708.748	-18.92
708.776	4.08
708.803	22.08
708.831	15.08
708.858	11.08
708.886	-1.92
708.913	7.08
708.941	-2.92
708.968	4.08
708.996	-10.92
709.023	18.08
709.051	0.08
709.078	-11.92
709.105	15.08
709.133	3.08
709.16	-7.92
709.188	9.08
709.215	11.08
709.243	3.08
709.27	-9.92
709.298	-1.92
709.325	10.08
709.353	3.08
709.38	12.08
709.408	23.08
709.435	20.08
709.462	-8.92
709.49	4.08
709.517	-6.92
709.545	-1.92
709.572	-8.92
709.6	7.08
709.627	-6.92
709.655	-7.92
709.682	-1.92
709.709	0.08
709.737	1.08
709.764	-1.92
709.792	4.08
709.819	-9.92
709.846	3.08
709.874	4.08
709.901	9.08
709.929	29.08
709.956	5.08
709.983	-5.92
710.011	-1.92
710.038	-0.92
710.066	15.08
710.093	25.08
710.12	7.08
710.148	6.08
710.175	-7.92
710.202	-25.92
710.23	9.08
710.257	9.08
710.284	13.08
710.312	8.08
710.339	0.08
710.366	-10.92
710.394	-5.92
710.421	-3.92
710.448	-2.92
710.476	-8.92
710.503	3.08
710.53	13.08
710.558	14.08
710.585	22.08
710.612	1.08
710.64	-17.92
710.667	-5.92
710.694	0.08
710.722	2.08
710.749	10.08
710.776	-2.92
710.804	4.08
710.831	9.08
710.858	0.08
710.885	-6.92
710.913	-4.92
710.94	31.08
710.967	14.08
710.995	6.08
711.022	-13.92
711.049	-1.92
711.076	-1.92
711.104	-8.92
711.131	-2.92
711.158	-5.92
711.185	7.08
711.213	-7.92
711.24	-18.92
711.267	-13.92
711.294	10.08
711.322	-0.92
711.349	14.08
711.376	0.08
711.403	-0.92
711.431	-9.92
711.458	5.08
711.485	-4.92
711.512	6.08
711.54	-9.92
711.567	3.08
711.594	1.08
711.621	2.08
711.648	7.08
711.676	14.08
711.703	9.08
711.73	-13.92
711.757	19.08
711.784	26.08
711.812	-0.92
711.839	9.08
711.866	-9.92
711.893	-10.92
711.92	-3.92
711.947	-5.92
711.975	22.08
712.002	16.08
712.029	10.08
712.056	-0.92
712.083	0.08
712.11	-21.92
712.138	2.08
712.165	4.08
712.192	-14.92
712.219	-2.92
712.246	-7.92
712.273	1.08
712.3	-15.92
712.328	-1.92
712.355	-17.92
712.382	-2.92
712.409	18.08
712.436	1.08
712.463	18.08
712.49	1.08
712.517	17.08
712.544	2.08
712.572	4.08
712.599	4.08
712.626	-1.92
712.653	-12.92
712.68	-6.92
712.707	-1.92
712.734	6.08
712.761	-8.92
712.788	6.08
712.815	2.08
712.842	-1.92
712.87	12.08
712.897	-21.92
712.924	-7.92
712.951	3.08
712.978	-1.92
713.005	5.08
713.032	-3.92
713.059	-9.92
713.086	0.08
713.113	-5.92
713.14	-9.92
713.167	-18.92
713.194	-7.92
713.221	-12.92
713.248	3.08
713.275	-10.92
713.302	-10.92
713.329	3.08
713.356	6.08
713.383	3.08
713.41	0.08
713.437	-13.92
713.464	0.08
713.491	17.08
713.518	-2.92
713.545	7.08
713.572	10.08
713.599	19.08
713.626	3.08
713.653	3.08
713.68	-2.92
713.707	13.08
713.734	15.08
713.761	2.08
713.788	-5.92
713.815	14.08
713.842	6.08
713.869	-9.92
713.896	11.08
713.923	13.08
713.95	9.08
713.977	9.08
714.004	4.08
714.031	-15.92
714.058	-1.92
714.085	-7.92
714.112	18.08
714.139	4.08
714.165	4.08
714.192	-4.92
714.219	7.08
714.246	6.08
714.273	2.08
714.3	5.08
714.327	10.08
714.354	2.08
714.381	9.08
714.408	19.08
714.435	15.08
714.461	2.08
714.488	3.08
714.515	-4.92
714.542	-0.92
714.569	-0.92
714.596	-12.92
714.623	3.08
714.65	5.08
714.677	13.08
714.703	12.08
714.73	9.08
714.757	10.08
714.784	0.08
714.811	-8.92
714.838	6.08
714.865	7.08
714.891	1.08
714.918	5.08
714.945	-9.92
714.972	4.08
714.999	29.08
715.026	-0.92
715.052	5.08
715.079	-3.92
715.106	-11.92
715.133	2.08
715.16	-9.92
715.187	3.08
715.213	10.08
715.24	-5.92
715.267	1.08
715.294	16.08
715.321	2.08
715.347	-6.92
715.374	-5.92
715.401	3.08
715.428	-11.92
715.455	6.08
715.481	-12.92
715.508	17.08
715.535	-12.92
715.562	23.08
715.588	-0.92
715.615	-7.92
715.642	-6.92
715.669	6.08
715.695	-11.92
715.722	-13.92
715.749	7.08
715.776	10.08
715.802	-1.92
715.829	2.08
715.856	-9.92
715.883	9.08
715.909	-6.92
715.936	-0.92
715.963	-2.92
715.99	-24.92
716.016	3.08
716.043	12.08
716.07	10.08
716.096	-21.92
716.123	-11.92
716.15	-3.92
716.177	-14.92
716.203	13.08
716.23	9.08
716.257	1.08
716.283	3.08
716.31	9.08
716.337	4.08
716.363	6.08
716.39	6.08
716.417	6.08
716.443	9.08
716.47	11.08
716.497	8.08
716.523	25.08
716.55	3.08
716.577	17.08
716.603	-9.92
716.63	1.08
716.657	24.08
716.683	-15.92
716.71	1.08
716.737	-10.92
716.763	3.08
716.79	2.08
716.817	11.08
716.843	13.08
716.87	1.08
716.897	12.08
716.923	12.08
716.95	10.08
716.976	3.08
717.003	-3.92
717.03	7.08
717.056	-7.92
717.083	-8.92
717.109	13.08
717.136	-8.92
717.163	-7.92
717.189	12.08
717.216	3.08
717.242	1.08
717.269	2.08
717.296	16.08
717.322	21.08
717.349	9.08
717.375	22.08
717.402	3.08
717.428	0.08
717.455	2.08
717.481	-9.92
717.508	0.08
717.535	7.08
717.561	25.08
717.588	-6.92
717.614	2.08
717.641	-7.92
717.667	9.08
717.694	18.08
717.72	-0.92
717.747	7.08
717.773	-8.92
717.8	10.08
717.826	0.08
717.853	16.08
717.88	17.08
717.906	6.08
717.933	-2.92
717.959	2.08
717.986	2.08
718.012	-5.92
718.039	19.08
718.065	10.08
718.092	11.08
718.118	1.08
718.144	14.08
718.171	22.08
718.197	12.08
718.224	-9.92
718.25	17.08
718.277	15.08
718.303	-21.92
718.33	-3.92
718.356	-0.92
718.383	-0.92
718.409	9.08
718.436	-2.92
718.462	-12.92
718.489	-13.92
718.515	9.08
718.541	22.08
718.568	10.08
718.594	4.08
718.621	8.08
718.647	-1.92
718.674	21.08
718.7	2.08
718.726	-6.92
718.753	4.08
718.779	1.08
718.806	4.08
718.832	10.08
718.858	11.08
718.885	-1.92
718.911	6.08
718.938	17.08
718.964	-3.92
718.99	15.08
719.017	11.08
719.043	8.08
719.07	29.08
719.096	12.08
719.122	7.08
719.149	8.08
719.175	10.08
719.201	14.08
719.228	-3.92
719.254	5.08
719.281	-6.92
719.307	7.08
719.333	9.08
719.36	23.08
719.386	-2.92
719.412	5.08
719.439	8.08
719.465	-2.92
719.491	-0.92
719.518	7.08
719.544	-1.92
719.57	3.08
719.597	6.08
719.623	-7.92
719.649	-1.92
719.675	-0.92
719.702	-0.92
719.728	-0.92
719.754	-2.92
719.781	0.08
719.807	-10.92
719.833	-1.92
719.86	9.08
719.886	-11.92
719.912	4.08
719.938	3.08
719.965	9.08
719.991	13.08
720.017	-5.92
720.044	4.08
720.07	-0.92
720.096	-5.92
720.122	-2.92
720.149	14.08
720.175	11.08
720.201	-5.92
720.227	1.08
720.254	-11.92
720.28	-0.92
720.306	-8.92
720.332	-5.92
720.359	1.08
720.385	15.08
720.411	-4.92
720.437	5.08
720.463	8.08
720.49	15.08
720.516	-17.92
720.542	-9.92
720.568	-9.92
720.595	29.08
720.621	7.08
720.647	-5.92
720.673	14.08
720.699	3.08
720.725	5.08
720.752	4.08
720.778	18.08
720.804	14.08
720.83	3.08
720.856	-18.92
720.883	-18.92
720.909	9.08
720.935	-0.92
720.961	10.08
720.987	8.08
721.013	13.08
721.04	-2.92
721.066	12.08
721.092	14.08
721.118	-0.92
721.144	-3.92
721.17	-2.92
721.196	-3.92
721.223	-7.92
721.249	7.08
721.275	23.08
721.301	-11.92
721.327	-0.92
721.353	9.08
721.379	9.08
721.405	15.08
721.432	11.08
721.458	-7.92
721.484	5.08
721.51	-0.92
721.536	7.08
721.562	-4.92
721.588	0.08
721.614	7.08
721.64	1.08
721.666	-7.92
721.693	1.08
721.719	-0.92
721.745	-9.92
721.771	-13.92
721.797	2.08
721.823	0.08
721.849	12.08
721.875	-2.92
721.901	6.08
721.927	8.08
721.953	-4.92
721.979	-2.92
722.005	14.08
722.031	-4.92
722.057	10.08
722.083	-5.92
722.109	17.08
722.135	4.08
722.161	11.08
722.187	17.08
722.214	-5.92
722.24	15.08
722.266	8.08
722.292	9.08
722.318	32.08
722.344	14.08
722.37	3.08
722.396	30.08
722.422	3.08
722.448	8.08
722.474	-7.92
722.5	24.08
722.526	10.08
722.552	-0.92
722.578	1.08
722.603	15.08
722.629	4.08
722.655	9.08
722.681	-3.92
722.707	-9.92
722.733	-10.92
722.759	-14.92
722.785	7.08
722.811	4.08
722.837	-4.92
722.863	6.08
722.889	7.08
722.915	4.08
722.941	2.08
722.967	-8.92
722.993	8.08
723.019	-2.92
723.045	17.08
723.071	12.08
723.097	12.08
723.122	16.08
723.148	5.08
723.174	-13.92
723.2	13.08
723.226	11.08
723.252	4.08
723.278	-10.92
723.304	-1.92
723.33	-4.92
723.356	2.08
723.381	-13.92
723.407	-14.92
723.433	-2.92
723.459	-2.92
723.485	6.08
723.511	9.08
723.537	-1.92
723.563	-5.92
723.588	6.08
723.614	15.08
723.64	12.08
723.666	14.08
723.692	19.08
723.718	25.08
723.744	6.08
723.769	-0.92
723.795	-5.92
723.821	2.08
723.847	4.08
723.873	-1.92
723.899	7.08
723.924	-2.92
723.95	-2.92
723.976	-7.92
724.002	-1.92
724.028	5.08
724.053	-9.92
724.079	-2.92
724.105	-5.92
724.131	2.08
724.157	1.08
724.182	20.08
724.208	-2.92
724.234	0.08
724.26	8.08
724.286	13.08
724.311	-6.92
724.337	1.08
724.363	5.08
724.389	-2.92
724.415	-5.92
724.44	15.08
724.466	-1.92
724.492	-4.92
724.518	-16.92
724.543	-4.92
724.569	-0.92
724.595	16.08
724.621	-12.92
724.646	10.08
724.672	7.08
724.698	3.08
724.723	-3.92
724.749	-1.92
724.775	13.08
724.801	7.08
724.826	-8.92
724.852	-13.92
724.878	-2.92
724.904	-6.92
724.929	9.08
724.955	2.08
724.981	18.08
725.006	-0.92
725.032	6.08
725.058	2.08
725.083	-7.92
725.109	-4.92
725.135	-6.92
725.161	13.08
725.186	-4.92
725.212	-6.92
725.238	5.08
725.263	1.08
725.289	-6.92
725.315	-2.92
725.34	3.08
725.366	16.08
725.392	-3.92
725.417	3.08
725.443	1.08
725.468	6.08
725.494	-5.92
725.52	-5.92
725.545	1.08
725.571	-4.92
725.597	7.08
725.622	1.08
725.648	-6.92
725.674	5.08
725.699	-4.92
725.725	7.08
725.75	26.08
725.776	-2.92
725.802	5.08
725.827	15.08
725.853	2.08
725.878	13.08
725.904	6.08
725.93	10.08
725.955	3.08
725.981	-13.92
726.006	1.08
726.032	8.08
726.057	-9.92
726.083	-14.92
726.109	12.08
726.134	6.08
726.16	16.08
726.185	1.08
726.211	-13.92
726.236	4.08
726.262	4.08
726.288	3.08
726.313	11.08
726.339	12.08
726.364	-9.92
726.39	20.08
726.415	-2.92
726.441	-16.92
726.466	-5.92
726.492	-10.92
726.517	8.08
726.543	-0.92
726.568	-2.92
726.594	3.08
726.619	13.08
726.645	-14.92
726.67	8.08
726.696	7.08
726.721	-0.92
726.747	2.08
726.772	3.08
726.798	-9.92
726.823	7.08
726.849	-0.92
726.874	12.08
726.9	19.08
726.925	10.08
726.951	4.08
726.976	10.08
727.002	13.08
727.027	10.08
727.053	7.08
727.078	-5.92
727.104	10.08
727.129	-17.92
727.155	-0.92
727.18	-2.92
727.205	-6.92
727.231	-16.92
727.256	2.08
727.282	6.08
727.307	5.08
727.333	-8.92
727.358	-13.92
727.383	-8.92
727.409	-9.92
727.434	-4.92
727.46	-6.92
727.485	-3.92
727.511	23.08
727.536	-6.92
727.561	-5.92
727.587	1.08
727.612	11.08
727.637	-2.92
727.663	-10.92
727.688	3.08
727.714	1.08
727.739	-16.92
727.764	5.08
727.79	8.08
727.815	0.08
727.841	3.08
727.866	-2.92
727.891	6.08
727.917	-2.92
727.942	-17.92
727.967	-2.92
727.993	-8.92
728.018	-3.92
728.043	9.08
728.069	11.08
728.094	4.08
728.119	13.08
728.145	22.08
728.17	3.08
728.195	-2.92
728.221	7.08
728.246	5.08
728.271	-2.92
728.297	7.08
728.322	8.08
728.347	-3.92
728.373	6.08
728.398	1.08
728.423	-4.92
728.448	21.08
728.474	-1.92
728.499	1.08
728.524	0.08
728.55	-0.92
728.575	-5.92
728.6	-9.92
728.625	-8.92
728.651	9.08
728.676	3.08
728.701	5.08
728.727	0.08
728.752	-3.92
728.777	-2.92
728.802	-4.92
728.828	9.08
728.853	-9.92
728.878	-0.92
728.903	-12.92
728.929	-0.92
728.954	12.08
728.979	3.08
729.004	-6.92
729.03	0.08
729.055	5.08
729.08	-10.92
729.105	-16.92
729.13	11.08
729.156	7.08
729.181	4.08
729.206	-25.92
729.231	-4.92
729.256	9.08
729.282	14.08
729.307	-5.92
729.332	-11.92
729.357	-9.92
729.382	7.08
729.408	14.08
729.433	14.08
729.458	9.08
729.483	11.08
729.508	31.08
729.533	7.08
729.559	10.08
729.584	-18.92
729.609	6.08
729.634	19.08
729.659	10.08
729.684	6.08
729.71	12.08
729.735	-7.92
729.76	-5.92
729.785	2.08
729.81	18.08
729.835	6.08
729.86	-6.92
729.886	14.08
729.911	6.08
729.936	2.08
729.961	20.08
729.986	30.08
730.011	62.08
730.036	209.08
730.061	1019.08
730.086	2717.08
730.112	3411.08
730.137	2835.08
730.162	2130.08
730.187	1676.08
730.212	1289.08
730.237	810.08
730.262	477.08
730.287	236.08
730.312	144.08
730.337	82.08
730.362	64.08
730.387	52.08
730.413	17.08
730.438	22.08
730.463	18.08
730.488	15.08
730.513	14.08
730.538	4.08
730.563	25.08
730.588	13.08
730.613	7.08
730.638	11.08
730.663	3.08
730.688	11.08
730.713	10.08
730.738	-2.92
730.763	2.08
730.788	-4.92
730.813	19.08
730.838	9.08
730.863	11.08
730.888	-9.92
730.913	-6.92
730.938	-12.92
730.963	18.08
730.988	106.08
731.013	406.08
731.038	643.08
731.063	621.08
731.088	474.08
731.113	355.08
731.138	277.08
731.163	185.08
731.188	116.08
731.213	65.08
731.238	41.08
731.263	23.08
731.288	-1.92
731.313	13.08
731.338	-0.92
731.363	-1.92
731.388	-6.92
731.413	6.08
731.438	5.08
731.463	-6.92
731.487	-1.92
731.512	-5.92
731.537	5.08
731.562	-6.92
731.587	1.08
731.612	-4.92
731.637	19.08
731.662	12.08
731.687	-8.92
731.712	-13.92
731.737	2.08
731.762	-6.92
731.786	11.08
731.811	8.08
731.836	13.08
731.861	-5.92
731.886	-9.92
731.911	3.08
731.936	16.08
731.961	-6.92
731.986	-4.92
732.01	-2.92
732.035	22.08
732.06	22.08
732.085	8.08
732.11	-5.92
732.135	-5.92
732.16	8.08
732.184	-1.92
732.209	5.08
732.234	-6.92
732.259	-6.92
732.284	8.08
732.309	-6.92
732.334	-8.92
732.358	-21.92
732.383	-15.92
732.408	-9.92
732.433	2.08
732.458	14.08
732.482	3.08
732.507	-6.92
732.532	3.08
732.557	14.08
732.582	14.08
732.607	37.08
732.631	54.08
732.656	94.08
732.681	159.08
732.706	347.08
732.73	449.08
732.755	421.08
732.78	296.08
732.805	228.08
732.83	181.08
732.854	126.08
732.879	87.08
732.904	46.08
732.929	33.08
732.953	30.08
732.978	9.08
733.003	2.08
733.028	-14.92
733.052	11.08
733.077	9.08
733.102	17.08
733.127	7.08
733.151	1.08
733.176	13.08
733.201	0.08
733.226	2.08
733.25	-6.92
733.275	4.08
733.3	0.08
733.324	0.08
733.349	15.08
733.374	13.08
733.399	3.08
733.423	4.08
733.448	-10.92
733.473	-0.92
733.497	1.08
733.522	-0.92
733.547	14.08
733.571	24.08
733.596	2.08
733.621	-3.92
733.646	-5.92
733.67	16.08
733.695	-8.92
733.72	15.08
733.744	10.08
733.769	-15.92
733.794	20.08
733.818	11.08
733.843	6.08
733.867	-5.92
733.892	2.08
733.917	0.08
733.941	7.08
733.966	-8.92
733.991	-8.92
734.015	21.08
734.04	14.08
734.065	8.08
734.089	28.08
734.114	3.08
734.138	6.08
734.163	-1.92
734.188	7.08
734.212	13.08
734.237	17.08
734.261	29.08
734.286	-7.92
734.311	-10.92
734.335	5.08
734.36	-4.92
734.384	6.08
734.409	16.08
734.434	8.08
734.458	14.08
734.483	8.08
734.507	-15.92
734.532	-5.92
734.556	3.08
734.581	-6.92
734.606	8.08
734.63	-12.92
734.655	8.08
734.679	-5.92
734.704	-1.92
734.728	-8.92
734.753	2.08
734.777	13.08
734.802	0.08
734.826	7.08
734.851	5.08
734.876	12.08
734.9	19.08
734.925	-0.92
734.949	14.08
734.974	4.08
734.998	-7.92
735.023	4.08
735.047	-12.92
735.072	32.08
735.096	-10.92
735.121	3.08
735.145	-5.92
735.17	-6.92
735.194	5.08
735.219	3.08
735.243	10.08
735.268	7.08
735.292	2.08
735.317	3.08
735.341	18.08
735.365	-15.92
735.39	8.08
735.414	1.08
735.439	-2.92
735.463	-6.92
735.488	-0.92
735.512	10.08
735.537	5.08
735.561	-0.92
735.586	0.08
735.61	-10.92
735.634	-5.92
735.659	13.08
735.683	21.08
735.708	-2.92
735.732	-13.92
735.757	-8.92
735.781	-8.92
735.805	5.08
735.83	-17.92
735.854	-15.92
735.879	9.08
735.903	5.08
735.927	3.08
735.952	11.08
735.976	3.08
736.001	-2.92
736.025	-10.92
736.049	-5.92
736.074	2.08
736.098	-2.92
736.123	11.08
736.147	16.08
736.171	2.08
736.196	-0.92
736.22	-6.92
736.244	6.08
736.269	-1.92
736.293	-2.92
736.317	-1.92
736.342	0.08
736.366	17.08
736.39	27.08
736.415	13.08
736.439	8.08
736.463	-1.92
736.488	6.08
736.512	9.08
736.536	5.08
736.561	23.08
736.585	-7.92
736.609	-8.92
736.634	-4.92
736.658	-4.92
736.682	-18.92
736.707	-13.92
736.731	-26.92
736.755	-9.92
736.78	22.08
736.804	12.08
736.828	3.08
736.852	-5.92
736.877	9.08
736.901	0.08
736.925	-9.92
736.949	13.08
736.974	-1.92
736.998	-4.92
737.022	-2.92
737.047	2.08
737.071	8.08
737.095	15.08
737.119	11.08
737.144	7.08
737.168	-6.92
737.192	-14.92
737.216	-0.92
737.241	-6.92
737.265	6.08
737.289	0.08
737.313	0.08
737.337	-4.92
737.362	9.08
737.386	0.08
737.41	-6.92
737.434	14.08
737.459	8.08
737.483	12.08
737.507	12.08
737.531	-2.92
737.555	-11.92
737.58	21.08
737.604	3.08
737.628	-11.92
737.652	-17.92
737.676	-15.92
737.701	-13.92
737.725	2.08
737.749	0.08
737.773	12.08
737.797	11.08
737.821	14.08
737.846	0.08
737.87	15.08
737.894	-1.92
737.918	0.08
737.942	-0.92
737.966	9.08
737.99	19.08
738.015	14.08
738.039	11.08
738.063	6.08
738.087	19.08
738.111	9.08
738.135	-0.92
738.159	-4.92
738.184	-7.92
738.208	21.08
738.232	1.08
738.256	5.08
738.28	10.08
738.304	7.08
738.328	1.08
738.352	18.08
738.376	2.08
738.4	4.08
738.425	2.08
738.449	-19.92
738.473	15.08
738.497	11.08
738.521	28.08
738.545	11.08
738.569	1.08
738.593	13.08
738.617	1.08
738.641	-3.92
738.665	10.08
738.689	-3.92
738.713	-5.92
738.737	3.08
738.762	31.08
738.786	13.08
738.81	-8.92
738.834	13.08
738.858	-4.92
738.882	4.08
738.906	1.08
738.93	-1.92
738.954	0.08
738.978	2.08
739.002	3.08
739.026	29.08
739.05	10.08
739.074	-8.92
739.098	11.08
739.122	15.08
739.146	22.08
739.17	9.08
739.194	2.08
739.218	-6.92
739.242	6.08
739.266	8.08
739.29	26.08
739.314	21.08
739.338	19.08
739.362	6.08
739.386	10.08
739.41	0.08
739.434	-1.92
739.458	20.08
739.482	24.08
739.506	9.08
739.53	16.08
739.554	11.08
739.577	1.08
739.601	20.08
739.625	-7.92
739.649	-8.92
739.673	-11.92
739.697	12.08
739.721	1.08
739.745	13.08
739.769	11.08
739.793	20.08
739.817	15.08
739.841	-5.92
739.865	8.08
739.889	-5.92
739.912	-2.92
739.936	-1.92
739.96	-5.92
739.984	14.08
740.008	-14.92
740.032	-15.92
740.056	18.08
740.08	17.08
740.104	3.08
740.127	30.08
740.151	18.08
740.175	8.08
740.199	20.08
740.223	54.08
740.247	-0.92
740.271	-8.92
740.295	-6.92
740.318	-17.92
740.342	-13.92
740.366	-0.92
740.39	18.08
740.414	-7.92
740.438	-18.92
740.461	13.08
740.485	21.08
740.509	18.08
740.533	12.08
740.557	0.08
740.581	-9.92
740.604	-13.92
740.628	8.08
740.652	30.08
740.676	-9.92
740.7	-9.92
740.723	-0.92
740.747	1.08
740.771	17.08
740.795	-7.92
740.819	-4.92
740.842	-8.92
740.866	11.08
740.89	13.08
740.914	12.08
740.938	0.08
740.961	3.08
740.985	2.08
741.009	-8.92
741.033	0.08
741.056	-3.92
741.08	-14.92
741.104	6.08
741.128	10.08
741.151	13.08
741.175	2.08
741.199	14.08
741.223	22.08
741.246	1.08
741.27	18.08
741.294	6.08
741.318	-2.92
741.341	-8.92
741.365	0.08
741.389	6.08
741.413	17.08
741.436	18.08
741.46	26.08
741.484	12.08
741.507	9.08
741.531	21.08
741.555	4.08
741.579	15.08
741.602	0.08
741.626	13.08
741.65	20.08
741.673	13.08
741.697	15.08
741.721	6.08
741.744	-12.92
741.768	-12.92
741.792	12.08
741.815	1.08
741.839	14.08
741.863	22.08
741.886	10.08
741.91	11.08
741.934	6.08
741.957	10.08
741.981	25.08
742.005	9.08
742.028	-9.92
742.052	6.08
742.075	20.08
742.099	14.08
742.123	1.08
742.146	8.08
742.17	12.08
742.194	-2.92
742.217	-3.92
742.241	1.08
742.264	6.08
742.288	9.08
742.312	3.08
742.335	-4.92
742.359	-0.92
742.382	11.08
742.406	19.08
742.43	-9.92
742.453	-2.92
742.477	-4.92
742.5	-11.92
742.524	0.08
742.548	1.08
742.571	-2.92
742.595	-2.92
742.618	-9.92
742.642	6.08
742.665	10.08
742.689	-2.92
742.712	10.08
742.736	2.08
742.76	10.08
742.783	-2.92
742.807	17.08
742.83	6.08
742.854	-16.92
742.877	-0.92
742.901	2.08
742.924	-2.92
742.948	8.08
742.971	-0.92
742.995	7.08
743.018	-6.92
743.042	-15.92
743.065	-7.92
743.089	10.08
743.112	-2.92
743.136	-11.92
743.159	7.08
743.183	-0.92
743.206	-1.92
743.23	-11.92
743.253	7.08
743.277	11.08
743.3	5.08
743.324	2.08
743.347	-4.92
743.371	12.08
743.394	7.08
743.418	7.08
743.441	4.08
743.465	14.08
743.488	7.08
743.512	-10.92
743.535	-1.92
743.558	-6.92
743.582	7.08
743.605	10.08
743.629	-3.92
743.652	-2.92
743.676	8.08
743.699	15.08
743.723	-3.92
743.746	21.08
743.769	5.08
743.793	4.08
743.816	7.08
743.84	21.08
743.863	-6.92
743.886	5.08
743.91	24.08
743.933	5.08
743.957	8.08
743.98	5.08
744.003	15.08
744.027	7.08
744.05	11.08
744.074	13.08
744.097	-18.92
744.12	-0.92
744.144	7.08
744.167	6.08
744.19	-4.92
744.214	-5.92
744.237	-5.92
744.26	11.08
744.284	0.08
744.307	-17.92
744.331	-9.92
744.354	-2.92
744.377	8.08
744.401	7.08
744.424	-4.92
744.447	-11.92
744.471	-7.92
