Data from HighRes_mercury_15_13_11_07_2024_HR4C61891__77__15-14-30-886.txt Node

Date: Thu Nov 07 15:14:30 EST 2024
User: crc00042
Spectrometer: HR4C6189
Trigger mode: 4
Integration Time (sec): 1.000000E-1
Scans to average: 1
Electric dark correction enabled: true
Nonlinearity correction enabled: false
Boxcar width: 0
XAxis mode: Wavelengths
Number of Pixels in Spectrum: 3648
>>>>>Begin Spectral Data<<<<<
639.567	-82.69
639.602	-82.69
639.636	-82.69
639.67	-41.69
639.704	-32.69
639.738	0.31
639.773	8.31
639.807	-8.69
639.841	-3.69
639.875	24.31
639.909	13.31
639.943	-5.69
639.978	-8.69
640.012	-6.69
640.046	-15.69
640.08	12.31
640.114	-0.69
640.148	-8.69
640.182	-14.69
640.217	-17.69
640.251	3.31
640.285	14.31
640.319	-18.69
640.353	3.31
640.387	-1.69
640.421	-6.69
640.455	-3.69
640.49	1.31
640.524	-7.69
640.558	10.31
640.592	-0.69
640.626	13.31
640.66	11.31
640.694	-4.69
640.728	-0.69
640.762	21.31
640.796	10.31
640.83	16.31
640.865	1.31
640.899	-6.69
640.933	-8.69
640.967	-5.69
641.001	0.31
641.035	-8.69
641.069	-1.69
641.103	-10.69
641.137	4.31
641.171	-11.69
641.205	8.31
641.239	-2.69
641.273	12.31
641.307	18.31
641.341	-3.69
641.375	-12.69
641.409	-1.69
641.443	-0.69
641.477	8.31
641.511	3.31
641.545	6.31
641.579	-5.69
641.614	-0.69
641.648	-2.69
641.682	-8.69
641.716	19.31
641.75	11.31
641.784	-0.69
641.818	-12.69
641.852	-4.69
641.886	-5.69
641.919	14.31
641.953	-8.69
641.987	-8.69
642.021	-0.69
642.055	-10.69
642.089	-3.69
642.123	-2.69
642.157	-12.69
642.191	-10.69
642.225	-6.69
642.259	-3.69
642.293	5.31
642.327	-3.69
642.361	15.31
642.395	6.31
642.429	13.31
642.463	1.31
642.497	1.31
642.531	3.31
642.565	-21.69
642.599	3.31
642.633	-17.69
642.666	12.31
642.7	14.31
642.734	9.31
642.768	-12.69
642.802	11.31
642.836	6.31
642.87	-0.69
642.904	16.31
642.938	3.31
642.972	-4.69
643.005	-9.69
643.039	18.31
643.073	-9.69
643.107	1.31
643.141	-4.69
643.175	-9.69
643.209	-4.69
643.243	-7.69
643.276	4.31
643.31	0.31
643.344	2.31
643.378	-4.69
643.412	8.31
643.446	9.31
643.48	-21.69
643.513	-7.69
643.547	4.31
643.581	-4.69
643.615	-4.69
643.649	-8.69
643.683	-2.69
643.716	-17.69
643.75	-5.69
643.784	-20.69
643.818	7.31
643.852	-4.69
643.886	-9.69
643.919	-3.69
643.953	2.31
643.987	-1.69
644.021	6.31
644.055	9.31
644.088	-18.69
644.122	-13.69
644.156	-2.69
644.19	-5.69
644.224	11.31
644.257	0.31
644.291	5.31
644.325	4.31
644.359	-7.69
644.392	17.31
644.426	8.31
644.46	-10.69
644.494	0.31
644.527	-14.69
644.561	-14.69
644.595	-17.69
644.629	-16.69
644.662	-25.69
644.696	12.31
644.73	-12.69
644.764	-11.69
644.797	-6.69
644.831	-6.69
644.865	2.31
644.899	-2.69
644.932	10.31
644.966	-2.69
645	14.31
645.033	21.31
645.067	-13.69
645.101	-1.69
645.135	-8.69
645.168	-10.69
645.202	8.31
645.236	-8.69
645.269	8.31
645.303	-3.69
645.337	-2.69
645.37	-1.69
645.404	11.31
645.438	16.31
645.471	-8.69
645.505	4.31
645.539	2.31
645.572	-12.69
645.606	-3.69
645.64	2.31
645.673	-2.69
645.707	6.31
645.741	-10.69
645.774	-13.69
645.808	2.31
645.842	-7.69
645.875	5.31
645.909	-7.69
645.943	-7.69
645.976	1.31
646.01	3.31
646.043	25.31
646.077	9.31
646.111	4.31
646.144	8.31
646.178	7.31
646.212	2.31
646.245	-14.69
646.279	-5.69
646.312	-3.69
646.346	15.31
646.38	-17.69
646.413	6.31
646.447	16.31
646.48	4.31
646.514	18.31
646.547	-15.69
646.581	-11.69
646.615	-15.69
646.648	-5.69
646.682	-3.69
646.715	-5.69
646.749	-0.69
646.782	0.31
646.816	-2.69
646.85	-2.69
646.883	-0.69
646.917	9.31
646.95	-19.69
646.984	-13.69
647.017	-3.69
647.051	2.31
647.084	2.31
647.118	-14.69
647.151	-17.69
647.185	-7.69
647.218	-26.69
647.252	-9.69
647.285	-20.69
647.319	-6.69
647.353	-7.69
647.386	4.31
647.42	13.31
647.453	-16.69
647.487	0.31
647.52	11.31
647.553	10.31
647.587	1.31
647.62	9.31
647.654	-5.69
647.687	6.31
647.721	1.31
647.754	13.31
647.788	-3.69
647.821	-5.69
647.855	-2.69
647.888	5.31
647.922	13.31
647.955	2.31
647.989	5.31
648.022	4.31
648.055	-1.69
648.089	3.31
648.122	22.31
648.156	-8.69
648.189	3.31
648.223	-4.69
648.256	6.31
648.29	-3.69
648.323	-9.69
648.356	21.31
648.39	-8.69
648.423	-7.69
648.457	-15.69
648.49	11.31
648.523	10.31
648.557	-10.69
648.59	3.31
648.624	5.31
648.657	18.31
648.69	8.31
648.724	6.31
648.757	5.31
648.791	10.31
648.824	0.31
648.857	17.31
648.891	7.31
648.924	-0.69
648.957	-0.69
648.991	8.31
649.024	-0.69
649.057	1.31
649.091	2.31
649.124	15.31
649.158	21.31
649.191	13.31
649.224	2.31
649.258	4.31
649.291	3.31
649.324	4.31
649.358	-4.69
649.391	18.31
649.424	12.31
649.458	-8.69
649.491	6.31
649.524	-13.69
649.557	-22.69
649.591	-4.69
649.624	-2.69
649.657	-22.69
649.691	-5.69
649.724	8.31
649.757	-1.69
649.791	-1.69
649.824	14.31
649.857	9.31
649.89	4.31
649.924	-14.69
649.957	-11.69
649.99	-18.69
650.023	-6.69
650.057	-10.69
650.09	5.31
650.123	-1.69
650.157	6.31
650.19	13.31
650.223	-9.69
650.256	-31.69
650.29	-5.69
650.323	4.31
650.356	10.31
650.389	-9.69
650.423	-9.69
650.456	-7.69
650.489	-8.69
650.522	-5.69
650.555	8.31
650.589	1.31
650.622	11.31
650.655	-5.69
650.688	-2.69
650.721	-9.69
650.755	4.31
650.788	-0.69
650.821	-1.69
650.854	-1.69
650.887	6.31
650.921	3.31
650.954	-23.69
650.987	3.31
651.02	-9.69
651.053	-1.69
651.087	-10.69
651.12	6.31
651.153	0.31
651.186	-7.69
651.219	-8.69
651.252	19.31
651.286	8.31
651.319	22.31
651.352	5.31
651.385	-4.69
651.418	-0.69
651.451	-2.69
651.484	1.31
651.518	-0.69
651.551	5.31
651.584	-8.69
651.617	8.31
651.65	-6.69
651.683	18.31
651.716	-1.69
651.749	-13.69
651.783	-25.69
651.816	-19.69
651.849	-3.69
651.882	8.31
651.915	8.31
651.948	-11.69
651.981	-28.69
652.014	-19.69
652.047	-13.69
652.08	-2.69
652.114	5.31
652.147	-1.69
652.18	4.31
652.213	0.31
652.246	3.31
652.279	-7.69
652.312	-4.69
652.345	-2.69
652.378	-6.69
652.411	7.31
652.444	0.31
652.477	-15.69
652.51	-9.69
652.543	-20.69
652.576	6.31
652.609	3.31
652.642	-5.69
652.675	3.31
652.709	6.31
652.742	-14.69
652.775	-9.69
652.808	9.31
652.841	-1.69
652.874	6.31
652.907	-12.69
652.94	-1.69
652.973	-14.69
653.006	-9.69
653.039	-17.69
653.072	-11.69
653.105	-6.69
653.138	-19.69
653.171	-5.69
653.204	-4.69
653.237	0.31
653.27	-24.69
653.303	-7.69
653.336	-14.69
653.368	-15.69
653.401	11.31
653.434	-4.69
653.467	-3.69
653.5	-15.69
653.533	-4.69
653.566	1.31
653.599	2.31
653.632	18.31
653.665	6.31
653.698	-2.69
653.731	-20.69
653.764	12.31
653.797	0.31
653.83	-4.69
653.863	-2.69
653.896	-4.69
653.929	2.31
653.961	-3.69
653.994	-9.69
654.027	-0.69
654.06	10.31
654.093	2.31
654.126	9.31
654.159	-10.69
654.192	-2.69
654.225	-12.69
654.258	-14.69
654.29	-11.69
654.323	2.31
654.356	-15.69
654.389	-1.69
654.422	0.31
654.455	-10.69
654.488	-8.69
654.521	-16.69
654.553	-1.69
654.586	7.31
654.619	8.31
654.652	-10.69
654.685	-0.69
654.718	-3.69
654.751	-1.69
654.783	-9.69
654.816	13.31
654.849	-4.69
654.882	-0.69
654.915	-11.69
654.948	2.31
654.98	-5.69
655.013	-11.69
655.046	-22.69
655.079	-4.69
655.112	5.31
655.144	-1.69
655.177	-5.69
655.21	1.31
655.243	17.31
655.276	-9.69
655.308	-12.69
655.341	-26.69
655.374	1.31
655.407	-6.69
655.44	-3.69
655.472	6.31
655.505	-6.69
655.538	-13.69
655.571	10.31
655.603	2.31
655.636	-4.69
655.669	6.31
655.702	4.31
655.734	-21.69
655.767	4.31
655.8	-0.69
655.833	-7.69
655.865	8.31
655.898	0.31
655.931	-7.69
655.964	4.31
655.996	-8.69
656.029	-5.69
656.062	-7.69
656.095	-7.69
656.127	-20.69
656.16	-3.69
656.193	1.31
656.225	-10.69
656.258	-8.69
656.291	-0.69
656.324	-0.69
656.356	9.31
656.389	-11.69
656.422	-4.69
656.454	-9.69
656.487	9.31
656.52	0.31
656.552	-20.69
656.585	-3.69
656.618	21.31
656.65	14.31
656.683	-5.69
656.716	6.31
656.748	6.31
656.781	-10.69
656.814	-5.69
656.846	20.31
656.879	-11.69
656.912	5.31
656.944	-13.69
656.977	-8.69
657.01	-0.69
657.042	5.31
657.075	12.31
657.108	-4.69
657.14	16.31
657.173	12.31
657.205	23.31
657.238	7.31
657.271	9.31
657.303	-5.69
657.336	-4.69
657.369	7.31
657.401	0.31
657.434	-6.69
657.466	1.31
657.499	2.31
657.532	4.31
657.564	11.31
657.597	0.31
657.629	15.31
657.662	4.31
657.694	-2.69
657.727	-21.69
657.76	2.31
657.792	-5.69
657.825	-10.69
657.857	-3.69
657.89	-0.69
657.922	13.31
657.955	-9.69
657.987	3.31
658.02	5.31
658.053	-4.69
658.085	-3.69
658.118	-2.69
658.15	7.31
658.183	8.31
658.215	4.31
658.248	4.31
658.28	-13.69
658.313	9.31
658.345	2.31
658.378	3.31
658.41	0.31
658.443	-5.69
658.475	-7.69
658.508	-8.69
658.54	-3.69
658.573	-15.69
658.605	-5.69
658.638	-4.69
658.67	-1.69
658.703	7.31
658.735	-12.69
658.768	5.31
658.8	-22.69
658.833	30.31
658.865	6.31
658.898	-0.69
658.93	-8.69
658.963	-5.69
658.995	-20.69
659.028	-4.69
659.06	1.31
659.092	-3.69
659.125	-14.69
659.157	-2.69
659.19	-5.69
659.222	0.31
659.255	-11.69
659.287	-11.69
659.32	-5.69
659.352	3.31
659.384	-18.69
659.417	-18.69
659.449	8.31
659.482	-5.69
659.514	-8.69
659.546	-4.69
659.579	-6.69
659.611	15.31
659.644	-5.69
659.676	-25.69
659.708	-11.69
659.741	-18.69
659.773	7.31
659.806	-8.69
659.838	-4.69
659.87	-2.69
659.903	-17.69
659.935	-16.69
659.967	-9.69
660	3.31
660.032	-32.69
660.065	-1.69
660.097	-7.69
660.129	9.31
660.162	-8.69
660.194	9.31
660.226	-14.69
660.259	0.31
660.291	-12.69
660.323	-9.69
660.356	14.31
660.388	-9.69
660.42	-13.69
660.453	0.31
660.485	9.31
660.517	2.31
660.55	6.31
660.582	4.31
660.614	7.31
660.647	-7.69
660.679	-26.69
660.711	-0.69
660.743	-14.69
660.776	-15.69
660.808	-17.69
660.84	-19.69
660.873	-3.69
660.905	-1.69
660.937	10.31
660.969	-1.69
661.002	-3.69
661.034	15.31
661.066	2.31
661.099	8.31
661.131	19.31
661.163	8.31
661.195	-18.69
661.228	18.31
661.26	-9.69
661.292	5.31
661.324	3.31
661.357	21.31
661.389	15.31
661.421	1.31
661.453	1.31
661.485	15.31
661.518	-6.69
661.55	-11.69
661.582	-3.69
661.614	3.31
661.647	17.31
661.679	-3.69
661.711	-3.69
661.743	-12.69
661.775	-10.69
661.808	0.31
661.84	4.31
661.872	-14.69
661.904	-0.69
661.936	7.31
661.969	8.31
662.001	1.31
662.033	-12.69
662.065	-3.69
662.097	-2.69
662.129	8.31
662.162	-0.69
662.194	-0.69
662.226	11.31
662.258	8.31
662.29	4.31
662.322	-15.69
662.355	-16.69
662.387	12.31
662.419	7.31
662.451	2.31
662.483	8.31
662.515	-8.69
662.547	-14.69
662.58	-17.69
662.612	-13.69
662.644	-3.69
662.676	8.31
662.708	29.31
662.74	-0.69
662.772	-11.69
662.804	-15.69
662.836	-0.69
662.869	-13.69
662.901	3.31
662.933	-2.69
662.965	14.31
662.997	7.31
663.029	4.31
663.061	-5.69
663.093	-2.69
663.125	-1.69
663.157	3.31
663.189	17.31
663.221	-0.69
663.254	7.31
663.286	-0.69
663.318	-18.69
663.35	0.31
663.382	14.31
663.414	4.31
663.446	8.31
663.478	-5.69
663.51	23.31
663.542	-19.69
663.574	-3.69
663.606	-0.69
663.638	-26.69
663.67	-1.69
663.702	-7.69
663.734	-12.69
663.766	-1.69
663.798	-3.69
663.83	-3.69
663.862	-5.69
663.894	5.31
663.926	-1.69
663.958	13.31
663.99	0.31
664.022	-13.69
664.054	2.31
664.086	-23.69
664.118	-9.69
664.15	-16.69
664.182	5.31
664.214	-6.69
664.246	-1.69
664.278	0.31
664.31	13.31
664.342	0.31
664.374	-14.69
664.406	1.31
664.438	-16.69
664.47	14.31
664.502	2.31
664.534	-4.69
664.566	-17.69
664.598	12.31
664.63	-0.69
664.662	18.31
664.693	6.31
664.725	-8.69
664.757	-5.69
664.789	-18.69
664.821	6.31
664.853	18.31
664.885	6.31
664.917	8.31
664.949	9.31
664.981	4.31
665.013	-3.69
665.045	1.31
665.076	-6.69
665.108	-10.69
665.14	-6.69
665.172	-0.69
665.204	-0.69
665.236	-0.69
665.268	12.31
665.3	-15.69
665.331	-2.69
665.363	4.31
665.395	-0.69
665.427	0.31
665.459	0.31
665.491	-2.69
665.523	-2.69
665.555	-12.69
665.586	-11.69
665.618	-19.69
665.65	-20.69
665.682	-0.69
665.714	0.31
665.746	-3.69
665.777	-6.69
665.809	2.31
665.841	6.31
665.873	-6.69
665.905	-3.69
665.937	-10.69
665.968	-0.69
666	1.31
666.032	6.31
666.064	-9.69
666.096	-14.69
666.127	-2.69
666.159	8.31
666.191	9.31
666.223	-8.69
666.255	-13.69
666.286	-3.69
666.318	-1.69
666.35	13.31
666.382	-3.69
666.413	-17.69
666.445	-2.69
666.477	-20.69
666.509	-13.69
666.54	0.31
666.572	-1.69
666.604	-0.69
666.636	1.31
666.667	9.31
666.699	14.31
666.731	-17.69
666.763	0.31
666.794	-14.69
666.826	1.31
666.858	-7.69
666.89	1.31
666.921	4.31
666.953	-5.69
666.985	8.31
667.017	-2.69
667.048	6.31
667.08	-6.69
667.112	-14.69
667.143	-3.69
667.175	10.31
667.207	-1.69
667.238	5.31
667.27	4.31
667.302	-11.69
667.334	-10.69
667.365	12.31
667.397	-2.69
667.429	-1.69
667.46	2.31
667.492	5.31
667.524	-2.69
667.555	-21.69
667.587	1.31
667.619	-5.69
667.65	-18.69
667.682	-2.69
667.714	-22.69
667.745	4.31
667.777	10.31
667.808	-0.69
667.84	-10.69
667.872	-20.69
667.903	6.31
667.935	-13.69
667.967	-1.69
667.998	-2.69
668.03	-2.69
668.061	4.31
668.093	-4.69
668.125	-6.69
668.156	11.31
668.188	-16.69
668.22	-8.69
668.251	3.31
668.283	7.31
668.314	8.31
668.346	-10.69
668.377	28.31
668.409	16.31
668.441	23.31
668.472	22.31
668.504	21.31
668.535	12.31
668.567	18.31
668.599	-6.69
668.63	-1.69
668.662	1.31
668.693	9.31
668.725	4.31
668.756	-4.69
668.788	-17.69
668.819	6.31
668.851	2.31
668.882	-2.69
668.914	0.31
668.946	-3.69
668.977	-7.69
669.009	1.31
669.04	-15.69
669.072	5.31
669.103	5.31
669.135	-12.69
669.166	-2.69
669.198	10.31
669.229	5.31
669.261	0.31
669.292	-3.69
669.324	5.31
669.355	-2.69
669.387	-8.69
669.418	11.31
669.45	-16.69
669.481	-6.69
669.513	-0.69
669.544	2.31
669.576	-4.69
669.607	6.31
669.639	18.31
669.67	-2.69
669.701	7.31
669.733	-8.69
669.764	-5.69
669.796	-26.69
669.827	-8.69
669.859	-5.69
669.89	-8.69
669.922	19.31
669.953	6.31
669.985	-9.69
670.016	14.31
670.047	4.31
670.079	8.31
670.11	-5.69
670.142	-8.69
670.173	-6.69
670.204	-5.69
670.236	8.31
670.267	-14.69
670.299	10.31
670.33	-2.69
670.362	6.31
670.393	-5.69
670.424	7.31
670.456	-8.69
670.487	-5.69
670.518	-15.69
670.55	-2.69
670.581	-4.69
670.613	-4.69
670.644	-11.69
670.675	-7.69
670.707	-0.69
670.738	4.31
670.769	-12.69
670.801	-13.69
670.832	-1.69
670.864	-23.69
670.895	4.31
670.926	7.31
670.958	-16.69
670.989	-12.69
671.02	-14.69
671.052	4.31
671.083	0.31
671.114	-1.69
671.146	13.31
671.177	7.31
671.208	-8.69
671.24	-9.69
671.271	0.31
671.302	6.31
671.333	-10.69
671.365	1.31
671.396	11.31
671.427	8.31
671.459	-2.69
671.49	-8.69
671.521	9.31
671.553	-3.69
671.584	7.31
671.615	-23.69
671.646	0.31
671.678	-3.69
671.709	-19.69
671.74	-27.69
671.771	-9.69
671.803	-22.69
671.834	-12.69
671.865	-24.69
671.896	-0.69
671.928	-2.69
671.959	-11.69
671.99	-5.69
672.021	-9.69
672.053	-8.69
672.084	13.31
672.115	2.31
672.146	-4.69
672.178	-13.69
672.209	1.31
672.24	-1.69
672.271	26.31
672.303	-6.69
672.334	-8.69
672.365	-3.69
672.396	18.31
672.427	13.31
672.459	8.31
672.49	14.31
672.521	-7.69
672.552	5.31
672.583	-2.69
672.615	-10.69
672.646	-1.69
672.677	-11.69
672.708	-9.69
672.739	4.31
672.77	3.31
672.802	-2.69
672.833	-1.69
672.864	-17.69
672.895	-4.69
672.926	-9.69
672.957	-6.69
672.989	-11.69
673.02	9.31
673.051	-16.69
673.082	1.31
673.113	-9.69
673.144	-10.69
673.175	-3.69
673.206	-12.69
673.238	-26.69
673.269	-2.69
673.3	-9.69
673.331	-5.69
673.362	4.31
673.393	2.31
673.424	-3.69
673.455	4.31
673.487	-4.69
673.518	8.31
673.549	7.31
673.58	6.31
673.611	-10.69
673.642	-14.69
673.673	-31.69
673.704	-4.69
673.735	0.31
673.766	-5.69
673.797	-11.69
673.828	-10.69
673.86	-11.69
673.891	-4.69
673.922	-15.69
673.953	2.31
673.984	2.31
674.015	6.31
674.046	-4.69
674.077	5.31
674.108	-5.69
674.139	-11.69
674.17	-1.69
674.201	-11.69
674.232	-17.69
674.263	1.31
674.294	17.31
674.325	-7.69
674.356	6.31
674.387	13.31
674.418	4.31
674.449	-21.69
674.48	-17.69
674.511	-1.69
674.542	-9.69
674.573	-18.69
674.604	10.31
674.635	6.31
674.666	24.31
674.697	0.31
674.728	-8.69
674.759	1.31
674.79	-33.69
674.821	-21.69
674.852	-19.69
674.883	-5.69
674.914	-2.69
674.945	1.31
674.976	10.31
675.007	-9.69
675.038	-0.69
675.069	-10.69
675.1	-2.69
675.131	-3.69
675.162	-17.69
675.193	-34.69
675.224	-10.69
675.254	-8.69
675.285	-1.69
675.316	7.31
675.347	-3.69
675.378	-6.69
675.409	-20.69
675.44	5.31
675.471	-11.69
675.502	-5.69
675.533	-4.69
675.564	0.31
675.595	-10.69
675.625	18.31
675.656	14.31
675.687	14.31
675.718	-8.69
675.749	5.31
675.78	-5.69
675.811	-0.69
675.842	-3.69
675.873	5.31
675.903	-6.69
675.934	-4.69
675.965	-5.69
675.996	-8.69
676.027	-1.69
676.058	-8.69
676.089	-14.69
676.119	-1.69
676.15	-4.69
676.181	-5.69
676.212	-1.69
676.243	1.31
676.274	-11.69
676.304	6.31
676.335	-2.69
676.366	-2.69
676.397	2.31
676.428	3.31
676.459	-15.69
676.489	-7.69
676.52	-6.69
676.551	-18.69
676.582	-14.69
676.613	-17.69
676.643	-21.69
676.674	-1.69
676.705	-4.69
676.736	16.31
676.767	7.31
676.797	8.31
676.828	6.31
676.859	-2.69
676.89	11.31
676.92	4.31
676.951	1.31
676.982	9.31
677.013	-16.69
677.044	12.31
677.074	22.31
677.105	7.31
677.136	2.31
677.167	-2.69
677.197	9.31
677.228	-13.69
677.259	6.31
677.289	15.31
677.32	-4.69
677.351	-17.69
677.382	-11.69
677.412	-11.69
677.443	10.31
677.474	-3.69
677.505	1.31
677.535	3.31
677.566	-6.69
677.597	-10.69
677.627	-15.69
677.658	-12.69
677.689	-16.69
677.72	-4.69
677.75	0.31
677.781	8.31
677.812	-4.69
677.842	-1.69
677.873	10.31
677.904	-6.69
677.934	-14.69
677.965	-0.69
677.996	-5.69
678.026	-3.69
678.057	3.31
678.088	-4.69
678.118	1.31
678.149	-11.69
678.18	-0.69
678.21	-1.69
678.241	3.31
678.272	-9.69
678.302	-6.69
678.333	-8.69
678.363	6.31
678.394	5.31
678.425	-0.69
678.455	-11.69
678.486	7.31
678.517	5.31
678.547	-5.69
678.578	-3.69
678.608	-7.69
678.639	-4.69
678.67	-1.69
678.7	-6.69
678.731	-6.69
678.761	-9.69
678.792	7.31
678.823	3.31
678.853	3.31
678.884	-21.69
678.914	3.31
678.945	-3.69
678.975	-12.69
679.006	10.31
679.037	10.31
679.067	7.31
679.098	-3.69
679.128	-4.69
679.159	-5.69
679.189	-2.69
679.22	1.31
679.25	2.31
679.281	7.31
679.312	-5.69
679.342	-9.69
679.373	19.31
679.403	2.31
679.434	10.31
679.464	-6.69
679.495	-6.69
679.525	2.31
679.556	-3.69
679.586	-0.69
679.617	-8.69
679.647	8.31
679.678	-1.69
679.708	-6.69
679.739	-13.69
679.769	-10.69
679.8	-10.69
679.83	6.31
679.861	10.31
679.891	-8.69
679.922	-12.69
679.952	-7.69
679.983	5.31
680.013	11.31
680.044	-1.69
680.074	-1.69
680.105	7.31
680.135	9.31
680.165	-5.69
680.196	20.31
680.226	9.31
680.257	-7.69
680.287	5.31
680.318	5.31
680.348	-15.69
680.379	8.31
680.409	-9.69
680.439	-14.69
680.47	6.31
680.5	-9.69
680.531	0.31
680.561	16.31
680.592	11.31
680.622	27.31
680.652	-3.69
680.683	11.31
680.713	-22.69
680.744	-17.69
680.774	-13.69
680.804	17.31
680.835	-24.69
680.865	-16.69
680.896	5.31
680.926	9.31
680.956	-5.69
680.987	8.31
681.017	7.31
681.047	0.31
681.078	-14.69
681.108	-9.69
681.139	-3.69
681.169	-3.69
681.199	-1.69
681.23	1.31
681.26	-7.69
681.29	-2.69
681.321	-15.69
681.351	2.31
681.381	-19.69
681.412	1.31
681.442	-6.69
681.472	18.31
681.503	8.31
681.533	2.31
681.563	-2.69
681.594	10.31
681.624	9.31
681.654	-1.69
681.685	-5.69
681.715	5.31
681.745	2.31
681.775	-17.69
681.806	-8.69
681.836	-4.69
681.866	-3.69
681.897	-4.69
681.927	1.31
681.957	-13.69
681.987	-3.69
682.018	-1.69
682.048	6.31
682.078	1.31
682.109	30.31
682.139	17.31
682.169	-8.69
682.199	-15.69
682.23	-4.69
682.26	1.31
682.29	-6.69
682.32	-1.69
682.351	-4.69
682.381	3.31
682.411	-0.69
682.441	-4.69
682.472	-11.69
682.502	10.31
682.532	-14.69
682.562	-2.69
682.592	2.31
682.623	14.31
682.653	6.31
682.683	-13.69
682.713	-9.69
682.743	-3.69
682.774	9.31
682.804	-2.69
682.834	18.31
682.864	-14.69
682.894	-2.69
682.925	-7.69
682.955	-14.69
682.985	-3.69
683.015	-2.69
683.045	15.31
683.076	-2.69
683.106	0.31
683.136	-5.69
683.166	-0.69
683.196	-0.69
683.226	-8.69
683.257	-25.69
683.287	-16.69
683.317	-12.69
683.347	-4.69
683.377	-3.69
683.407	-6.69
683.437	-6.69
683.468	-3.69
683.498	-7.69
683.528	-4.69
683.558	-0.69
683.588	-6.69
683.618	-16.69
683.648	-19.69
683.678	-13.69
683.708	13.31
683.739	2.31
683.769	-12.69
683.799	-15.69
683.829	1.31
683.859	-1.69
683.889	1.31
683.919	-17.69
683.949	-4.69
683.979	-11.69
684.009	-9.69
684.039	-2.69
684.07	-10.69
684.1	7.31
684.13	-3.69
684.16	-5.69
684.19	-6.69
684.22	-17.69
684.25	2.31
684.28	-16.69
684.31	13.31
684.34	2.31
684.37	-0.69
684.4	-9.69
684.43	-5.69
684.46	-3.69
684.49	-5.69
684.52	-4.69
684.55	5.31
684.58	1.31
684.61	21.31
684.64	9.31
684.67	-2.69
684.7	-10.69
684.73	2.31
684.76	-0.69
684.79	10.31
684.82	-1.69
684.85	-10.69
684.88	1.31
684.91	-8.69
684.94	-4.69
684.97	-4.69
685	-6.69
685.03	-15.69
685.06	-18.69
685.09	-4.69
685.12	14.31
685.15	3.31
685.18	7.31
685.21	-9.69
685.24	2.31
685.27	3.31
685.3	5.31
685.33	-2.69
685.36	12.31
685.39	-1.69
685.42	-6.69
685.45	-9.69
685.48	1.31
685.51	-0.69
685.54	19.31
685.569	-2.69
685.599	2.31
685.629	-0.69
685.659	3.31
685.689	-10.69
685.719	-6.69
685.749	-11.69
685.779	21.31
685.809	1.31
685.839	-11.69
685.869	4.31
685.898	11.31
685.928	1.31
685.958	-13.69
685.988	4.31
686.018	-2.69
686.048	5.31
686.078	8.31
686.108	14.31
686.137	2.31
686.167	14.31
686.197	-13.69
686.227	-9.69
686.257	9.31
686.287	12.31
686.317	7.31
686.346	-4.69
686.376	-15.69
686.406	-20.69
686.436	4.31
686.466	-1.69
686.496	13.31
686.525	12.31
686.555	-3.69
686.585	13.31
686.615	21.31
686.645	6.31
686.675	-3.69
686.704	0.31
686.734	-0.69
686.764	-1.69
686.794	0.31
686.824	-7.69
686.853	15.31
686.883	9.31
686.913	10.31
686.943	5.31
686.973	-6.69
687.002	-9.69
687.032	-4.69
687.062	-9.69
687.092	17.31
687.121	-13.69
687.151	-11.69
687.181	-13.69
687.211	19.31
687.24	-1.69
687.27	-0.69
687.3	-21.69
687.33	-22.69
687.359	-12.69
687.389	8.31
687.419	-3.69
687.449	2.31
687.478	2.31
687.508	-11.69
687.538	4.31
687.568	13.31
687.597	-5.69
687.627	10.31
687.657	1.31
687.686	1.31
687.716	8.31
687.746	-28.69
687.776	-10.69
687.805	0.31
687.835	-14.69
687.865	19.31
687.894	5.31
687.924	-8.69
687.954	2.31
687.983	-3.69
688.013	5.31
688.043	19.31
688.072	-9.69
688.102	13.31
688.132	-5.69
688.161	-14.69
688.191	5.31
688.221	14.31
688.25	-19.69
688.28	-4.69
688.31	-6.69
688.339	0.31
688.369	-0.69
688.399	-8.69
688.428	-18.69
688.458	-4.69
688.488	-5.69
688.517	9.31
688.547	-15.69
688.576	38.31
688.606	13.31
688.636	-13.69
688.665	-3.69
688.695	5.31
688.725	5.31
688.754	3.31
688.784	-15.69
688.813	14.31
688.843	-5.69
688.873	-0.69
688.902	-4.69
688.932	7.31
688.961	-3.69
688.991	-1.69
689.02	13.31
689.05	-1.69
689.08	13.31
689.109	18.31
689.139	-7.69
689.168	-1.69
689.198	4.31
689.227	-9.69
689.257	8.31
689.287	10.31
689.316	1.31
689.346	2.31
689.375	5.31
689.405	5.31
689.434	-4.69
689.464	1.31
689.493	8.31
689.523	-1.69
689.552	-2.69
689.582	0.31
689.611	-16.69
689.641	3.31
689.67	-4.69
689.7	0.31
689.73	7.31
689.759	6.31
689.789	-2.69
689.818	-13.69
689.848	-10.69
689.877	12.31
689.906	-9.69
689.936	-15.69
689.965	-1.69
689.995	-5.69
690.024	3.31
690.054	-5.69
690.083	1.31
690.113	2.31
690.142	2.31
690.172	4.31
690.201	6.31
690.231	8.31
690.26	-1.69
690.29	2.31
690.319	7.31
690.348	-5.69
690.378	-2.69
690.407	-2.69
690.437	2.31
690.466	-10.69
690.496	-14.69
690.525	-4.69
690.555	-19.69
690.584	-9.69
690.613	-11.69
690.643	2.31
690.672	12.31
690.702	8.31
690.731	-11.69
690.76	20.31
690.79	49.31
690.819	43.31
690.849	34.31
690.878	28.31
690.907	30.31
690.937	25.31
690.966	19.31
690.996	-4.69
691.025	3.31
691.054	2.31
691.084	7.31
691.113	12.31
691.142	15.31
691.172	15.31
691.201	0.31
691.23	-9.69
691.26	4.31
691.289	6.31
691.319	-7.69
691.348	-5.69
691.377	7.31
691.407	5.31
691.436	9.31
691.465	-5.69
691.495	0.31
691.524	-12.69
691.553	-24.69
691.583	-4.69
691.612	26.31
691.641	0.31
691.67	-1.69
691.7	0.31
691.729	-15.69
691.758	-1.69
691.788	-11.69
691.817	-12.69
691.846	6.31
691.876	7.31
691.905	-1.69
691.934	6.31
691.963	34.31
691.993	-3.69
692.022	-10.69
692.051	-9.69
692.081	-3.69
692.11	17.31
692.139	-9.69
692.168	9.31
692.198	15.31
692.227	-2.69
692.256	-8.69
692.285	-7.69
692.315	2.31
692.344	-2.69
692.373	7.31
692.402	-27.69
692.432	-3.69
692.461	3.31
692.49	6.31
692.519	-2.69
692.548	-8.69
692.578	3.31
692.607	-2.69
692.636	-5.69
692.665	10.31
692.694	-4.69
692.724	12.31
692.753	13.31
692.782	4.31
692.811	-6.69
692.84	-3.69
692.87	15.31
692.899	7.31
692.928	-1.69
692.957	5.31
692.986	-0.69
693.016	4.31
693.045	1.31
693.074	7.31
693.103	-7.69
693.132	-3.69
693.161	6.31
693.191	6.31
693.22	-10.69
693.249	-4.69
693.278	18.31
693.307	14.31
693.336	-11.69
693.365	-1.69
693.395	8.31
693.424	3.31
693.453	17.31
693.482	-1.69
693.511	23.31
693.54	11.31
693.569	6.31
693.598	-3.69
693.628	17.31
693.657	7.31
693.686	29.31
693.715	7.31
693.744	15.31
693.773	5.31
693.802	6.31
693.831	-2.69
693.86	19.31
693.889	-3.69
693.919	2.31
693.948	-10.69
693.977	9.31
694.006	-0.69
694.035	-7.69
694.064	-7.69
694.093	-4.69
694.122	-6.69
694.151	-4.69
694.18	6.31
694.209	27.31
694.238	19.31
694.267	18.31
694.296	2.31
694.325	2.31
694.354	8.31
694.383	16.31
694.412	-5.69
694.441	-3.69
694.471	-6.69
694.5	-19.69
694.529	-5.69
694.558	10.31
694.587	9.31
694.616	-15.69
694.645	-0.69
694.674	7.31
694.703	7.31
694.732	-5.69
694.761	2.31
694.79	-4.69
694.819	-17.69
694.848	10.31
694.877	12.31
694.906	19.31
694.935	11.31
694.963	11.31
694.992	3.31
695.021	3.31
695.05	-9.69
695.079	-7.69
695.108	0.31
695.137	6.31
695.166	-0.69
695.195	-8.69
695.224	13.31
695.253	3.31
695.282	-4.69
695.311	7.31
695.34	0.31
695.369	3.31
695.398	13.31
695.427	15.31
695.456	-14.69
695.485	-17.69
695.513	13.31
695.542	-2.69
695.571	-4.69
695.6	9.31
695.629	3.31
695.658	9.31
695.687	-6.69
695.716	8.31
695.745	18.31
695.774	-6.69
695.802	-7.69
695.831	14.31
695.86	17.31
695.889	7.31
695.918	-10.69
695.947	-17.69
695.976	-8.69
696.005	10.31
696.033	20.31
696.062	10.31
696.091	-4.69
696.12	19.31
696.149	11.31
696.178	10.31
696.207	14.31
696.235	-7.69
696.264	5.31
696.293	8.31
696.322	6.31
696.351	15.31
696.38	-3.69
696.408	-19.69
696.437	6.31
696.466	14.31
696.495	7.31
696.524	3.31
696.553	10.31
696.581	-1.69
696.61	8.31
696.639	-11.69
696.668	-0.69
696.697	-2.69
696.725	12.31
696.754	10.31
696.783	3.31
696.812	-3.69
696.84	-0.69
696.869	0.31
696.898	3.31
696.927	2.31
696.956	22.31
696.984	-6.69
697.013	-0.69
697.042	-14.69
697.071	-3.69
697.099	15.31
697.128	7.31
697.157	3.31
697.186	-10.69
697.214	3.31
697.243	-4.69
697.272	-3.69
697.301	12.31
697.329	0.31
697.358	9.31
697.387	15.31
697.415	2.31
697.444	-4.69
697.473	-1.69
697.502	-1.69
697.53	17.31
697.559	-3.69
697.588	1.31
697.616	6.31
697.645	4.31
697.674	15.31
697.703	5.31
697.731	3.31
697.76	11.31
697.789	-6.69
697.817	-3.69
697.846	13.31
697.875	1.31
697.903	7.31
697.932	-2.69
697.961	7.31
697.989	14.31
698.018	8.31
698.047	2.31
698.075	-3.69
698.104	-22.69
698.133	-11.69
698.161	5.31
698.19	-8.69
698.218	6.31
698.247	-2.69
698.276	3.31
698.304	-4.69
698.333	-2.69
698.362	2.31
698.39	9.31
698.419	12.31
698.447	-9.69
698.476	-1.69
698.505	0.31
698.533	4.31
698.562	6.31
698.591	-11.69
698.619	-13.69
698.648	-9.69
698.676	-5.69
698.705	-7.69
698.733	-16.69
698.762	10.31
698.791	-4.69
698.819	-3.69
698.848	-5.69
698.876	1.31
698.905	-0.69
698.933	2.31
698.962	14.31
698.991	4.31
699.019	10.31
699.048	-8.69
699.076	22.31
699.105	2.31
699.133	1.31
699.162	8.31
699.19	12.31
699.219	5.31
699.248	-0.69
699.276	-8.69
699.305	-4.69
699.333	0.31
699.362	3.31
699.39	15.31
699.419	-18.69
699.447	-2.69
699.476	-8.69
699.504	6.31
699.533	-9.69
699.561	-13.69
699.59	3.31
699.618	-9.69
699.647	-1.69
699.675	13.31
699.704	15.31
699.732	3.31
699.761	11.31
699.789	-0.69
699.818	5.31
699.846	-1.69
699.874	-1.69
699.903	3.31
699.931	0.31
699.96	4.31
699.988	-11.69
700.017	11.31
700.045	-11.69
700.074	-3.69
700.102	0.31
700.13	-5.69
700.159	-2.69
700.187	2.31
700.216	-5.69
700.244	-11.69
700.273	-3.69
700.301	4.31
700.329	6.31
700.358	4.31
700.386	-8.69
700.415	-8.69
700.443	-0.69
700.472	-2.69
700.5	-12.69
700.528	-6.69
700.557	-4.69
700.585	1.31
700.614	-6.69
700.642	19.31
700.67	22.31
700.699	4.31
700.727	-13.69
700.755	-2.69
700.784	-1.69
700.812	-2.69
700.841	5.31
700.869	-3.69
700.897	-11.69
700.926	2.31
700.954	2.31
700.982	1.31
701.011	-18.69
701.039	10.31
701.067	-5.69
701.096	0.31
701.124	-12.69
701.152	-2.69
701.181	7.31
701.209	-17.69
701.237	0.31
701.266	-6.69
701.294	-8.69
701.322	-5.69
701.351	-6.69
701.379	1.31
701.407	-11.69
701.435	0.31
701.464	17.31
701.492	10.31
701.52	-4.69
701.549	-7.69
701.577	-7.69
701.605	-6.69
701.634	7.31
701.662	7.31
701.69	-8.69
701.718	-19.69
701.747	-1.69
701.775	-0.69
701.803	-6.69
701.831	4.31
701.86	-4.69
701.888	2.31
701.916	-2.69
701.944	2.31
701.973	-5.69
702.001	-7.69
702.029	-4.69
702.057	-26.69
702.086	0.31
702.114	-2.69
702.142	-1.69
702.17	-19.69
702.199	8.31
702.227	-8.69
702.255	2.31
702.283	3.31
702.311	-2.69
702.34	5.31
702.368	-5.69
702.396	-8.69
702.424	-6.69
702.452	1.31
702.481	-0.69
702.509	-5.69
702.537	6.31
702.565	12.31
702.593	-21.69
702.621	4.31
702.65	3.31
702.678	5.31
702.706	10.31
702.734	-4.69
702.762	18.31
702.79	-7.69
702.819	-0.69
702.847	-5.69
702.875	6.31
702.903	-1.69
702.931	-7.69
702.959	-19.69
702.988	4.31
703.016	-13.69
703.044	-0.69
703.072	5.31
703.1	4.31
703.128	-19.69
703.156	-11.69
703.184	-13.69
703.212	-9.69
703.241	-9.69
703.269	3.31
703.297	-7.69
703.325	-1.69
703.353	-2.69
703.381	-2.69
703.409	-2.69
703.437	-13.69
703.465	-2.69
703.493	-12.69
703.522	-2.69
703.55	-4.69
703.578	-6.69
703.606	-12.69
703.634	-2.69
703.662	-9.69
703.69	-7.69
703.718	2.31
703.746	26.31
703.774	10.31
703.802	14.31
703.83	13.31
703.858	-7.69
703.886	-26.69
703.914	-18.69
703.942	15.31
703.97	-10.69
703.998	-9.69
704.027	16.31
704.055	6.31
704.083	-5.69
704.111	-9.69
704.139	0.31
704.167	-11.69
704.195	1.31
704.223	-13.69
704.251	-11.69
704.279	5.31
704.307	-6.69
704.335	-11.69
704.363	3.31
704.391	2.31
704.419	-4.69
704.447	-14.69
704.475	-9.69
704.503	-6.69
704.531	5.31
704.558	-5.69
704.586	2.31
704.614	-6.69
704.642	-5.69
704.67	-9.69
704.698	2.31
704.726	1.31
704.754	-2.69
704.782	-3.69
704.81	-2.69
704.838	17.31
704.866	-4.69
704.894	-17.69
704.922	-4.69
704.95	17.31
704.978	-0.69
705.006	-1.69
705.034	13.31
705.061	-0.69
705.089	-1.69
705.117	-8.69
705.145	-6.69
705.173	-4.69
705.201	-0.69
705.229	1.31
705.257	-6.69
705.285	-6.69
705.313	-3.69
705.34	-2.69
705.368	-2.69
705.396	7.31
705.424	-1.69
705.452	-7.69
705.48	-1.69
705.508	-3.69
705.536	12.31
705.563	-14.69
705.591	3.31
705.619	3.31
705.647	-11.69
705.675	17.31
705.703	11.31
705.731	-9.69
705.758	-2.69
705.786	-9.69
705.814	24.31
705.842	-0.69
705.87	15.31
705.898	15.31
705.925	5.31
705.953	-1.69
705.981	-6.69
706.009	-4.69
706.037	9.31
706.065	4.31
706.092	-16.69
706.12	4.31
706.148	-8.69
706.176	-6.69
706.204	11.31
706.231	19.31
706.259	-4.69
706.287	-9.69
706.315	5.31
706.342	-20.69
706.37	15.31
706.398	15.31
706.426	-6.69
706.454	-1.69
706.481	5.31
706.509	-4.69
706.537	-14.69
706.565	-13.69
706.592	5.31
706.62	-12.69
706.648	4.31
706.676	-4.69
706.703	-3.69
706.731	-8.69
706.759	-1.69
706.787	1.31
706.814	-1.69
706.842	-7.69
706.87	0.31
706.897	1.31
706.925	-8.69
706.953	15.31
706.981	7.31
707.008	7.31
707.036	1.31
707.064	-1.69
707.091	-7.69
707.119	10.31
707.147	2.31
707.174	7.31
707.202	15.31
707.23	-15.69
707.258	7.31
707.285	-20.69
707.313	-10.69
707.341	-10.69
707.368	-5.69
707.396	6.31
707.424	16.31
707.451	17.31
707.479	1.31
707.507	-4.69
707.534	-2.69
707.562	7.31
707.59	-8.69
707.617	-26.69
707.645	0.31
707.672	-8.69
707.7	7.31
707.728	11.31
707.755	6.31
707.783	-9.69
707.811	-1.69
707.838	4.31
707.866	10.31
707.893	-1.69
707.921	-6.69
707.949	-9.69
707.976	-3.69
708.004	-2.69
708.031	-3.69
708.059	-6.69
708.087	-8.69
708.114	-10.69
708.142	-7.69
708.169	-13.69
708.197	-14.69
708.225	-5.69
708.252	-0.69
708.28	21.31
708.307	0.31
708.335	2.31
708.362	-8.69
708.39	-10.69
708.418	-13.69
708.445	-17.69
708.473	-22.69
708.5	-14.69
708.528	17.31
708.555	-8.69
708.583	-6.69
708.61	-11.69
708.638	-6.69
708.665	-19.69
708.693	-9.69
708.72	-19.69
708.748	-14.69
708.776	-0.69
708.803	24.31
708.831	13.31
708.858	17.31
708.886	-14.69
708.913	-0.69
708.941	-6.69
708.968	9.31
708.996	-10.69
709.023	27.31
709.051	0.31
709.078	-7.69
709.105	16.31
709.133	5.31
709.16	3.31
709.188	6.31
709.215	1.31
709.243	-8.69
709.27	-13.69
709.298	-11.69
709.325	-15.69
709.353	-2.69
709.38	2.31
709.408	-1.69
709.435	14.31
709.462	4.31
709.49	-6.69
709.517	-13.69
709.545	-6.69
709.572	-8.69
709.6	2.31
709.627	8.31
709.655	19.31
709.682	-0.69
709.709	-17.69
709.737	4.31
709.764	-3.69
709.792	3.31
709.819	2.31
709.846	-8.69
709.874	-4.69
709.901	10.31
709.929	3.31
709.956	5.31
709.983	-11.69
710.011	-7.69
710.038	-5.69
710.066	-5.69
710.093	-1.69
710.12	-5.69
710.148	-10.69
710.175	-13.69
710.202	-10.69
710.23	-5.69
710.257	6.31
710.284	1.31
710.312	-12.69
710.339	-14.69
710.366	7.31
710.394	-8.69
710.421	0.31
710.448	0.31
710.476	-17.69
710.503	4.31
710.53	15.31
710.558	21.31
710.585	5.31
710.612	-16.69
710.64	-20.69
710.667	2.31
710.694	-5.69
710.722	-0.69
710.749	-1.69
710.776	-3.69
710.804	6.31
710.831	-6.69
710.858	-1.69
710.885	-5.69
710.913	-1.69
710.94	2.31
710.967	-6.69
710.995	-17.69
711.022	-10.69
711.049	-13.69
711.076	-8.69
711.104	7.31
711.131	-4.69
711.158	8.31
711.185	1.31
711.213	-6.69
711.24	-5.69
711.267	-3.69
711.294	-8.69
711.322	-2.69
711.349	3.31
711.376	-8.69
711.403	4.31
711.431	-11.69
711.458	-0.69
711.485	-21.69
711.512	0.31
711.54	-0.69
711.567	-4.69
711.594	-1.69
711.621	-12.69
711.648	1.31
711.676	-0.69
711.703	2.31
711.73	-24.69
711.757	-1.69
711.784	-1.69
711.812	-10.69
711.839	-6.69
711.866	-5.69
711.893	-17.69
711.92	-2.69
711.947	-3.69
711.975	-2.69
712.002	9.31
712.029	19.31
712.056	9.31
712.083	19.31
712.11	-18.69
712.138	7.31
712.165	-5.69
712.192	-0.69
712.219	3.31
712.246	-10.69
712.273	3.31
712.3	-5.69
712.328	-8.69
712.355	-1.69
712.382	-10.69
712.409	2.31
712.436	-17.69
712.463	2.31
712.49	3.31
712.517	-2.69
712.544	-4.69
712.572	-5.69
712.599	-15.69
712.626	-0.69
712.653	-4.69
712.68	-28.69
712.707	-1.69
712.734	4.31
712.761	-16.69
712.788	-8.69
712.815	-10.69
712.842	5.31
712.87	-8.69
712.897	-8.69
712.924	-2.69
712.951	7.31
712.978	5.31
713.005	-3.69
713.032	2.31
713.059	-0.69
713.086	-5.69
713.113	-20.69
713.14	-30.69
713.167	-6.69
713.194	3.31
713.221	-10.69
713.248	9.31
713.275	-0.69
713.302	-11.69
713.329	-3.69
713.356	6.31
713.383	-4.69
713.41	5.31
713.437	1.31
713.464	2.31
713.491	14.31
713.518	17.31
713.545	-7.69
713.572	-0.69
713.599	4.31
713.626	-26.69
713.653	-1.69
713.68	-6.69
713.707	-20.69
713.734	4.31
713.761	-11.69
713.788	-3.69
713.815	7.31
713.842	-9.69
713.869	-12.69
713.896	-1.69
713.923	0.31
713.95	-0.69
713.977	0.31
714.004	5.31
714.031	-9.69
714.058	-7.69
714.085	1.31
714.112	10.31
714.139	3.31
714.165	-4.69
714.192	-7.69
714.219	4.31
714.246	-8.69
714.273	1.31
714.3	15.31
714.327	-7.69
714.354	2.31
714.381	3.31
714.408	-7.69
714.435	-8.69
714.461	-2.69
714.488	6.31
714.515	-3.69
714.542	-5.69
714.569	-2.69
714.596	-22.69
714.623	-7.69
714.65	-13.69
714.677	-0.69
714.703	5.31
714.73	2.31
714.757	13.31
714.784	21.31
714.811	-5.69
714.838	5.31
714.865	-13.69
714.891	0.31
714.918	-12.69
714.945	-5.69
714.972	2.31
714.999	3.31
715.026	-1.69
715.052	8.31
715.079	1.31
715.106	-7.69
715.133	-7.69
715.16	-14.69
715.187	7.31
715.213	15.31
715.24	-5.69
715.267	2.31
715.294	-5.69
715.321	-13.69
715.347	-12.69
715.374	-1.69
715.401	-5.69
715.428	-7.69
715.455	0.31
715.481	-2.69
715.508	7.31
715.535	-13.69
715.562	8.31
715.588	-1.69
715.615	-5.69
715.642	-5.69
715.669	5.31
715.695	-11.69
715.722	-26.69
715.749	18.31
715.776	20.31
715.802	-10.69
715.829	1.31
715.856	-12.69
715.883	9.31
715.909	-10.69
715.936	-11.69
715.963	-6.69
715.99	-2.69
716.016	-4.69
716.043	7.31
716.07	-3.69
716.096	-5.69
716.123	-0.69
716.15	5.31
716.177	2.31
716.203	9.31
716.23	7.31
716.257	9.31
716.283	10.31
716.31	2.31
716.337	-9.69
716.363	-9.69
716.39	5.31
716.417	-1.69
716.443	-5.69
716.47	-6.69
716.497	17.31
716.523	8.31
716.55	0.31
716.577	-5.69
716.603	3.31
716.63	11.31
716.657	13.31
716.683	-14.69
716.71	-7.69
716.737	-7.69
716.763	2.31
716.79	4.31
716.817	20.31
716.843	-4.69
716.87	1.31
716.897	-0.69
716.923	12.31
716.95	-3.69
716.976	-16.69
717.003	-2.69
717.03	3.31
717.056	-6.69
717.083	-12.69
717.109	-13.69
717.136	-0.69
717.163	-13.69
717.189	-13.69
717.216	-9.69
717.242	-10.69
717.269	1.31
717.296	6.31
717.322	-0.69
717.349	-4.69
717.375	12.31
717.402	-0.69
717.428	-2.69
717.455	4.31
717.481	-5.69
717.508	11.31
717.535	14.31
717.561	7.31
717.588	13.31
717.614	10.31
717.641	5.31
717.667	7.31
717.694	-2.69
717.72	-5.69
717.747	3.31
717.773	-19.69
717.8	8.31
717.826	-3.69
717.853	-5.69
717.88	-1.69
717.906	18.31
717.933	11.31
717.959	-1.69
717.986	-5.69
718.012	-3.69
718.039	1.31
718.065	18.31
718.092	3.31
718.118	-5.69
718.144	-8.69
718.171	3.31
718.197	6.31
718.224	-2.69
718.25	7.31
718.277	-8.69
718.303	-2.69
718.33	-5.69
718.356	-13.69
718.383	-11.69
718.409	1.31
718.436	12.31
718.462	0.31
718.489	-16.69
718.515	-1.69
718.541	6.31
718.568	13.31
718.594	7.31
718.621	-3.69
718.647	-13.69
718.674	11.31
718.7	-2.69
718.726	6.31
718.753	4.31
718.779	5.31
718.806	-5.69
718.832	-0.69
718.858	-5.69
718.885	-17.69
718.911	-1.69
718.938	20.31
718.964	-8.69
718.99	-12.69
719.017	-3.69
719.043	3.31
719.07	12.31
719.096	-0.69
719.122	10.31
719.149	3.31
719.175	6.31
719.201	-1.69
719.228	-10.69
719.254	9.31
719.281	0.31
719.307	-10.69
719.333	4.31
719.36	6.31
719.386	-11.69
719.412	3.31
719.439	-6.69
719.465	-8.69
719.491	-11.69
719.518	9.31
719.544	1.31
719.57	26.31
719.597	-3.69
719.623	-8.69
719.649	6.31
719.675	5.31
719.702	-5.69
719.728	2.31
719.754	-0.69
719.781	-9.69
719.807	-0.69
719.833	-11.69
719.86	6.31
719.886	-5.69
719.912	-4.69
719.938	-3.69
719.965	0.31
719.991	11.31
720.017	-8.69
720.044	-7.69
720.07	5.31
720.096	-7.69
720.122	-5.69
720.149	-6.69
720.175	13.31
720.201	-8.69
720.227	-11.69
720.254	-3.69
720.28	2.31
720.306	-3.69
720.332	8.31
720.359	21.31
720.385	17.31
720.411	17.31
720.437	17.31
720.463	-18.69
720.49	3.31
720.516	-16.69
720.542	-10.69
720.568	7.31
720.595	19.31
720.621	7.31
720.647	3.31
720.673	4.31
720.699	2.31
720.725	0.31
720.752	22.31
720.778	5.31
720.804	-2.69
720.83	-9.69
720.856	-1.69
720.883	-15.69
720.909	-1.69
720.935	-10.69
720.961	17.31
720.987	-5.69
721.013	22.31
721.04	-5.69
721.066	-8.69
721.092	-9.69
721.118	-1.69
721.144	-11.69
721.17	-13.69
721.196	-11.69
721.223	-6.69
721.249	-5.69
721.275	17.31
721.301	-7.69
721.327	12.31
721.353	13.31
721.379	-9.69
721.405	0.31
721.432	10.31
721.458	6.31
721.484	-1.69
721.51	-4.69
721.536	12.31
721.562	12.31
721.588	5.31
721.614	1.31
721.64	-1.69
721.666	-11.69
721.693	-13.69
721.719	-5.69
721.745	-9.69
721.771	-0.69
721.797	-17.69
721.823	-6.69
721.849	8.31
721.875	-0.69
721.901	-3.69
721.927	-3.69
721.953	-5.69
721.979	7.31
722.005	13.31
722.031	0.31
722.057	14.31
722.083	-0.69
722.109	2.31
722.135	14.31
722.161	3.31
722.187	-2.69
722.214	-9.69
722.24	6.31
722.266	-8.69
722.292	5.31
722.318	18.31
722.344	-6.69
722.37	3.31
722.396	14.31
722.422	-13.69
722.448	-10.69
722.474	-9.69
722.5	1.31
722.526	4.31
722.552	-12.69
722.578	-2.69
722.603	7.31
722.629	-7.69
722.655	2.31
722.681	-8.69
722.707	8.31
722.733	-8.69
722.759	-13.69
722.785	0.31
722.811	-1.69
722.837	-6.69
722.863	-4.69
722.889	7.31
722.915	-19.69
722.941	-9.69
722.967	4.31
722.993	5.31
723.019	5.31
723.045	-1.69
723.071	-4.69
723.097	2.31
723.122	-4.69
723.148	-7.69
723.174	-2.69
723.2	-3.69
723.226	-9.69
723.252	-2.69
723.278	-12.69
723.304	10.31
723.33	2.31
723.356	1.31
723.381	-9.69
723.407	-6.69
723.433	6.31
723.459	-17.69
723.485	-12.69
723.511	-0.69
723.537	-1.69
723.563	2.31
723.588	1.31
723.614	9.31
723.64	5.31
723.666	-1.69
723.692	8.31
723.718	-10.69
723.744	10.31
723.769	-9.69
723.795	1.31
723.821	15.31
723.847	0.31
723.873	-13.69
723.899	-10.69
723.924	-11.69
723.95	3.31
723.976	-9.69
724.002	-4.69
724.028	8.31
724.053	-6.69
724.079	-3.69
724.105	-10.69
724.131	-4.69
724.157	-3.69
724.182	13.31
724.208	-0.69
724.234	-1.69
724.26	-20.69
724.286	9.31
724.311	-6.69
724.337	-14.69
724.363	-16.69
724.389	-5.69
724.415	-13.69
724.44	6.31
724.466	-8.69
724.492	-8.69
724.518	6.31
724.543	-4.69
724.569	2.31
724.595	6.31
724.621	-2.69
724.646	-12.69
724.672	-2.69
724.698	-19.69
724.723	-5.69
724.749	6.31
724.775	13.31
724.801	-2.69
724.826	-18.69
724.852	-12.69
724.878	-6.69
724.904	1.31
724.929	-5.69
724.955	-12.69
724.981	2.31
725.006	-10.69
725.032	7.31
725.058	3.31
725.083	-7.69
725.109	-5.69
725.135	1.31
725.161	2.31
725.186	-12.69
725.212	8.31
725.238	12.31
725.263	6.31
725.289	-8.69
725.315	-22.69
725.34	-9.69
725.366	-1.69
725.392	-9.69
725.417	15.31
725.443	-6.69
725.468	2.31
725.494	0.31
725.52	10.31
725.545	4.31
725.571	-10.69
725.597	-15.69
725.622	-17.69
725.648	-2.69
725.674	-2.69
725.699	-15.69
725.725	-13.69
725.75	22.31
725.776	-5.69
725.802	10.31
725.827	-5.69
725.853	-1.69
725.878	5.31
725.904	-2.69
725.93	3.31
725.955	-7.69
725.981	-0.69
726.006	-12.69
726.032	-1.69
726.057	-8.69
726.083	-6.69
726.109	3.31
726.134	6.31
726.16	2.31
726.185	-3.69
726.211	-7.69
726.236	-2.69
726.262	-8.69
726.288	0.31
726.313	2.31
726.339	3.31
726.364	0.31
726.39	-3.69
726.415	-9.69
726.441	-9.69
726.466	-12.69
726.492	-0.69
726.517	4.31
726.543	-8.69
726.568	-6.69
726.594	5.31
726.619	-5.69
726.645	7.31
726.67	5.31
726.696	-9.69
726.721	-4.69
726.747	-6.69
726.772	-5.69
726.798	7.31
726.823	6.31
726.849	-1.69
726.874	7.31
726.9	31.31
726.925	-2.69
726.951	-13.69
726.976	3.31
727.002	-0.69
727.027	-0.69
727.053	5.31
727.078	-2.69
727.104	-3.69
727.129	-12.69
727.155	-2.69
727.18	-4.69
727.205	-2.69
727.231	-8.69
727.256	-2.69
727.282	-8.69
727.307	5.31
727.333	14.31
727.358	-14.69
727.383	-15.69
727.409	-18.69
727.434	-3.69
727.46	-8.69
727.485	3.31
727.511	-0.69
727.536	-8.69
727.561	-3.69
727.587	-12.69
727.612	-10.69
727.637	-2.69
727.663	-12.69
727.688	-0.69
727.714	-15.69
727.739	-21.69
727.764	-5.69
727.79	0.31
727.815	13.31
727.841	0.31
727.866	1.31
727.891	2.31
727.917	-19.69
727.942	-17.69
727.967	1.31
727.993	-22.69
728.018	-8.69
728.043	0.31
728.069	1.31
728.094	13.31
728.119	1.31
728.145	5.31
728.17	9.31
728.195	12.31
728.221	10.31
728.246	-12.69
728.271	-21.69
728.297	8.31
728.322	-4.69
728.347	-1.69
728.373	-12.69
728.398	-5.69
728.423	-0.69
728.448	8.31
728.474	5.31
728.499	4.31
728.524	-8.69
728.55	-6.69
728.575	-11.69
728.6	-0.69
728.625	-0.69
728.651	3.31
728.676	-4.69
728.701	8.31
728.727	13.31
728.752	0.31
728.777	-1.69
728.802	-12.69
728.828	6.31
728.853	-1.69
728.878	-10.69
728.903	-21.69
728.929	-10.69
728.954	3.31
728.979	3.31
729.004	-3.69
729.03	-4.69
729.055	3.31
729.08	-4.69
729.105	-9.69
729.13	16.31
729.156	4.31
729.181	-4.69
729.206	-15.69
729.231	-13.69
729.256	12.31
729.282	2.31
729.307	-10.69
729.332	-3.69
729.357	-11.69
729.382	-13.69
729.408	-10.69
729.433	6.31
729.458	11.31
729.483	3.31
729.508	15.31
729.533	0.31
729.559	-2.69
729.584	-12.69
729.609	-2.69
729.634	-6.69
729.659	-22.69
729.684	-8.69
729.71	2.31
729.735	15.31
729.76	1.31
729.785	-1.69
729.81	1.31
729.835	-1.69
729.86	1.31
729.886	1.31
729.911	-6.69
729.936	15.31
729.961	19.31
729.986	12.31
730.011	52.31
730.036	178.31
730.061	961.31
730.086	2679.31
730.112	3303.31
730.137	2788.31
730.162	2097.31
730.187	1601.31
730.212	1236.31
730.237	794.31
730.262	459.31
730.287	215.31
730.312	146.31
730.337	69.31
730.362	60.31
730.387	31.31
730.413	14.31
730.438	17.31
730.463	1.31
730.488	10.31
730.513	7.31
730.538	16.31
730.563	9.31
730.588	12.31
730.613	10.31
730.638	-0.69
730.663	1.31
730.688	27.31
730.713	4.31
730.738	14.31
730.763	-2.69
730.788	-12.69
730.813	-2.69
730.838	1.31
730.863	-5.69
730.888	-0.69
730.913	-12.69
730.938	-17.69
730.963	19.31
730.988	105.31
731.013	393.31
731.038	614.31
731.063	564.31
731.088	438.31
731.113	330.31
731.138	260.31
731.163	178.31
731.188	105.31
731.213	63.31
731.238	31.31
731.263	18.31
731.288	2.31
731.313	16.31
731.338	4.31
731.363	10.31
731.388	-5.69
731.413	1.31
731.438	21.31
731.463	-3.69
731.487	0.31
731.512	-10.69
731.537	0.31
731.562	-1.69
731.587	-2.69
731.612	-17.69
731.637	-16.69
731.662	0.31
731.687	2.31
731.712	-13.69
731.737	1.31
731.762	-8.69
731.786	6.31
731.811	3.31
731.836	5.31
731.861	-2.69
731.886	2.31
731.911	-0.69
731.936	1.31
731.961	-14.69
731.986	3.31
732.01	7.31
732.035	2.31
732.06	13.31
732.085	10.31
732.11	7.31
732.135	-28.69
732.16	1.31
732.184	-14.69
732.209	-9.69
732.234	6.31
732.259	9.31
732.284	-2.69
732.309	5.31
732.334	4.31
732.358	-21.69
732.383	-10.69
732.408	-4.69
732.433	-10.69
732.458	6.31
732.482	-0.69
732.507	-14.69
732.532	-8.69
732.557	7.31
732.582	5.31
732.607	16.31
732.631	42.31
732.656	87.31
732.681	139.31
732.706	347.31
732.73	450.31
732.755	382.31
732.78	299.31
732.805	223.31
732.83	167.31
732.854	111.31
732.879	76.31
732.904	40.31
732.929	18.31
732.953	9.31
732.978	3.31
733.003	13.31
733.028	-1.69
733.052	14.31
733.077	-6.69
733.102	9.31
733.127	-5.69
733.151	3.31
733.176	7.31
733.201	-7.69
733.226	-6.69
733.25	2.31
733.275	-6.69
733.3	-13.69
733.324	-0.69
733.349	-9.69
733.374	6.31
733.399	-13.69
733.423	8.31
733.448	-8.69
733.473	-20.69
733.497	-1.69
733.522	-5.69
733.547	5.31
733.571	8.31
733.596	-0.69
733.621	-15.69
733.646	7.31
733.67	7.31
733.695	-4.69
733.72	-2.69
733.744	-0.69
733.769	5.31
733.794	6.31
733.818	-1.69
733.843	-3.69
733.867	-8.69
733.892	-0.69
733.917	13.31
733.941	0.31
733.966	-14.69
733.991	2.31
734.015	7.31
734.04	6.31
734.065	11.31
734.089	7.31
734.114	-4.69
734.138	-7.69
734.163	-22.69
734.188	-1.69
734.212	3.31
734.237	-2.69
734.261	-13.69
734.286	-20.69
734.311	-5.69
734.335	-7.69
734.36	-4.69
734.384	-2.69
734.409	-0.69
734.434	-10.69
734.458	2.31
734.483	-17.69
734.507	-0.69
734.532	-17.69
734.556	-13.69
734.581	-1.69
734.606	-5.69
734.63	-5.69
734.655	6.31
734.679	9.31
734.704	6.31
734.728	6.31
734.753	-14.69
734.777	-2.69
734.802	-21.69
734.826	9.31
734.851	11.31
734.876	17.31
734.9	3.31
734.925	2.31
734.949	-0.69
734.974	-8.69
734.998	-1.69
735.023	-5.69
735.047	-8.69
735.072	22.31
735.096	0.31
735.121	3.31
735.145	13.31
735.17	-0.69
735.194	2.31
735.219	-11.69
735.243	-1.69
735.268	1.31
735.292	-13.69
735.317	-16.69
735.341	0.31
735.365	-16.69
735.39	2.31
735.414	16.31
735.439	-5.69
735.463	4.31
735.488	-10.69
735.512	-3.69
735.537	-2.69
735.561	9.31
735.586	-3.69
735.61	-4.69
735.634	-9.69
735.659	-15.69
735.683	-0.69
735.708	4.31
735.732	-12.69
735.757	-1.69
735.781	10.31
735.805	11.31
735.83	-24.69
735.854	3.31
735.879	8.31
735.903	3.31
735.927	7.31
735.952	1.31
735.976	-0.69
736.001	-1.69
736.025	7.31
736.049	12.31
736.074	11.31
736.098	0.31
736.123	1.31
736.147	2.31
736.171	2.31
736.196	11.31
736.22	-2.69
736.244	6.31
736.269	8.31
736.293	-19.69
736.317	4.31
736.342	-10.69
736.366	1.31
736.39	11.31
736.415	-3.69
736.439	-4.69
736.463	-5.69
736.488	0.31
736.512	6.31
736.536	-4.69
736.561	1.31
736.585	10.31
736.609	6.31
736.634	-6.69
736.658	3.31
736.682	-17.69
736.707	-23.69
736.731	-15.69
736.755	10.31
736.78	23.31
736.804	6.31
736.828	13.31
736.852	-10.69
736.877	-8.69
736.901	10.31
736.925	-2.69
736.949	5.31
736.974	1.31
736.998	-8.69
737.022	4.31
737.047	0.31
737.071	-7.69
737.095	2.31
737.119	10.31
737.144	-6.69
737.168	5.31
737.192	4.31
737.216	3.31
737.241	-17.69
737.265	-10.69
737.289	-14.69
737.313	-1.69
737.337	13.31
737.362	-5.69
737.386	3.31
737.41	-8.69
737.434	7.31
737.459	4.31
737.483	0.31
737.507	2.31
737.531	1.31
737.555	0.31
737.58	0.31
737.604	-5.69
737.628	-19.69
737.652	-4.69
737.676	1.31
737.701	0.31
737.725	6.31
737.749	10.31
737.773	-1.69
737.797	-26.69
737.821	-3.69
737.846	11.31
737.87	16.31
737.894	-2.69
737.918	-8.69
737.942	-9.69
737.966	20.31
737.99	18.31
738.015	-8.69
738.039	5.31
738.063	-4.69
738.087	-3.69
738.111	-6.69
738.135	14.31
738.159	-4.69
738.184	7.31
738.208	0.31
738.232	-1.69
738.256	15.31
738.28	3.31
738.304	11.31
738.328	-5.69
738.352	17.31
738.376	-13.69
738.4	4.31
738.425	2.31
738.449	6.31
738.473	22.31
738.497	14.31
738.521	13.31
738.545	20.31
738.569	15.31
738.593	19.31
738.617	-1.69
738.641	-6.69
738.665	-4.69
738.689	7.31
738.713	-12.69
738.737	14.31
738.762	11.31
738.786	18.31
738.81	-10.69
738.834	3.31
738.858	-9.69
738.882	-9.69
738.906	-12.69
738.93	4.31
738.954	7.31
738.978	-11.69
739.002	2.31
739.026	25.31
739.05	9.31
739.074	-4.69
739.098	19.31
739.122	5.31
739.146	3.31
739.17	18.31
739.194	17.31
739.218	-0.69
739.242	2.31
739.266	2.31
739.29	3.31
739.314	2.31
739.338	7.31
739.362	-1.69
739.386	5.31
739.41	3.31
739.434	1.31
739.458	2.31
739.482	1.31
739.506	-3.69
739.53	7.31
739.554	27.31
739.577	3.31
739.601	26.31
739.625	-10.69
739.649	7.31
739.673	-1.69
739.697	6.31
739.721	-17.69
739.745	10.31
739.769	9.31
739.793	6.31
739.817	13.31
739.841	-5.69
739.865	-4.69
739.889	-12.69
739.912	13.31
739.936	-14.69
739.96	5.31
739.984	16.31
740.008	10.31
740.032	-8.69
740.056	-9.69
740.08	-1.69
740.104	-0.69
740.127	5.31
740.151	-2.69
740.175	9.31
740.199	15.31
740.223	29.31
740.247	13.31
740.271	-1.69
740.295	-6.69
740.318	-8.69
740.342	-9.69
740.366	-1.69
740.39	2.31
740.414	-0.69
740.438	2.31
740.461	20.31
740.485	-0.69
740.509	4.31
740.533	11.31
740.557	-1.69
740.581	-13.69
740.604	-22.69
740.628	-2.69
740.652	-3.69
740.676	-3.69
740.7	4.31
740.723	-10.69
740.747	-9.69
740.771	-16.69
740.795	-1.69
740.819	-2.69
740.842	5.31
740.866	-2.69
740.89	-1.69
740.914	-10.69
740.938	0.31
740.961	20.31
740.985	13.31
741.009	12.31
741.033	8.31
741.056	1.31
741.08	1.31
741.104	-4.69
741.128	18.31
741.151	18.31
741.175	-5.69
741.199	7.31
741.223	4.31
741.246	-9.69
741.27	-4.69
741.294	2.31
741.318	-11.69
741.341	-19.69
741.365	-1.69
741.389	18.31
741.413	9.31
741.436	6.31
741.46	-6.69
741.484	11.31
741.507	2.31
741.531	21.31
741.555	19.31
741.579	6.31
741.602	4.31
741.626	4.31
741.65	-4.69
741.673	-0.69
741.697	6.31
741.721	5.31
741.744	-21.69
741.768	-3.69
741.792	-4.69
741.815	-4.69
741.839	16.31
741.863	15.31
741.886	0.31
741.91	5.31
741.934	-6.69
741.957	-19.69
741.981	13.31
742.005	0.31
742.028	-12.69
742.052	-16.69
742.075	-1.69
742.099	9.31
742.123	4.31
742.146	-5.69
742.17	10.31
742.194	4.31
742.217	-7.69
742.241	-5.69
742.264	-6.69
742.288	13.31
742.312	-2.69
742.335	-13.69
742.359	1.31
742.382	8.31
742.406	21.31
742.43	-8.69
742.453	11.31
742.477	-11.69
742.5	2.31
742.524	-14.69
742.548	-0.69
742.571	3.31
742.595	-0.69
742.618	4.31
742.642	-12.69
742.665	7.31
742.689	11.31
742.712	4.31
742.736	-6.69
742.76	6.31
742.783	-10.69
742.807	1.31
742.83	9.31
742.854	-3.69
742.877	-4.69
742.901	7.31
742.924	-5.69
742.948	-2.69
742.971	-0.69
742.995	-7.69
743.018	-14.69
743.042	-18.69
743.065	-14.69
743.089	-2.69
743.112	5.31
743.136	-20.69
743.159	-10.69
743.183	-10.69
743.206	2.31
743.23	-5.69
743.253	2.31
743.277	-6.69
743.3	-17.69
743.324	-20.69
743.347	-2.69
743.371	33.31
743.394	14.31
743.418	5.31
743.441	-6.69
743.465	5.31
743.488	16.31
743.512	0.31
743.535	-4.69
743.558	-4.69
743.582	-11.69
743.605	-5.69
743.629	5.31
743.652	1.31
743.676	-10.69
743.699	0.31
743.723	15.31
743.746	19.31
743.769	-2.69
743.793	-0.69
743.816	-7.69
743.84	15.31
743.863	-2.69
743.886	-8.69
743.91	19.31
743.933	-2.69
743.957	3.31
743.98	8.31
744.003	8.31
744.027	1.31
744.05	2.31
744.074	16.31
744.097	-6.69
744.12	-6.69
744.144	-8.69
744.167	1.31
744.19	3.31
744.214	-9.69
744.237	-11.69
744.26	9.31
744.284	-5.69
744.307	-14.69
744.331	-0.69
744.354	-5.69
744.377	-7.69
744.401	-6.69
744.424	-3.69
744.447	-18.69
744.471	1.31
