Data from HighRes_mercury_15_13_11_07_2024_HR4C61891__51__15-14-28-286.txt Node

Date: Thu Nov 07 15:14:28 EST 2024
User: crc00042
Spectrometer: HR4C6189
Trigger mode: 4
Integration Time (sec): 1.000000E-1
Scans to average: 1
Electric dark correction enabled: true
Nonlinearity correction enabled: false
Boxcar width: 0
XAxis mode: Wavelengths
Number of Pixels in Spectrum: 3648
>>>>>Begin Spectral Data<<<<<
639.567	-37.69
639.602	-37.69
639.636	-37.69
639.67	-35.69
639.704	-4.69
639.738	-10.69
639.773	22.31
639.807	-22.69
639.841	9.31
639.875	15.31
639.909	-3.69
639.943	-12.69
639.978	2.31
640.012	-11.69
640.046	-2.69
640.08	-0.69
640.114	11.31
640.148	4.31
640.182	-4.69
640.217	-8.69
640.251	19.31
640.285	14.31
640.319	1.31
640.353	3.31
640.387	6.31
640.421	-8.69
640.455	-3.69
640.49	-5.69
640.524	1.31
640.558	4.31
640.592	8.31
640.626	12.31
640.66	24.31
640.694	-7.69
640.728	7.31
640.762	25.31
640.796	25.31
640.83	32.31
640.865	2.31
640.899	-2.69
640.933	11.31
640.967	6.31
641.001	16.31
641.035	9.31
641.069	7.31
641.103	-6.69
641.137	10.31
641.171	-2.69
641.205	6.31
641.239	4.31
641.273	8.31
641.307	-0.69
641.341	-2.69
641.375	-10.69
641.409	-7.69
641.443	12.31
641.477	0.31
641.511	3.31
641.545	4.31
641.579	6.31
641.614	11.31
641.648	17.31
641.682	-3.69
641.716	1.31
641.75	13.31
641.784	-6.69
641.818	2.31
641.852	16.31
641.886	-10.69
641.919	20.31
641.953	-16.69
641.987	-6.69
642.021	-4.69
642.055	-6.69
642.089	-5.69
642.123	-4.69
642.157	-5.69
642.191	-1.69
642.225	1.31
642.259	-5.69
642.293	-1.69
642.327	0.31
642.361	8.31
642.395	12.31
642.429	17.31
642.463	10.31
642.497	21.31
642.531	1.31
642.565	-4.69
642.599	22.31
642.633	-11.69
642.666	13.31
642.7	18.31
642.734	13.31
642.768	9.31
642.802	-9.69
642.836	5.31
642.87	3.31
642.904	-1.69
642.938	10.31
642.972	-1.69
643.005	7.31
643.039	10.31
643.073	-2.69
643.107	13.31
643.141	8.31
643.175	13.31
643.209	7.31
643.243	11.31
643.276	7.31
643.31	-16.69
643.344	-3.69
643.378	7.31
643.412	13.31
643.446	15.31
643.48	4.31
643.513	4.31
643.547	11.31
643.581	-0.69
643.615	2.31
643.649	11.31
643.683	-11.69
643.716	-6.69
643.75	8.31
643.784	-8.69
643.818	17.31
643.852	4.31
643.886	-0.69
643.919	8.31
643.953	8.31
643.987	3.31
644.021	5.31
644.055	20.31
644.088	14.31
644.122	-7.69
644.156	3.31
644.19	7.31
644.224	1.31
644.257	4.31
644.291	12.31
644.325	9.31
644.359	-10.69
644.392	21.31
644.426	13.31
644.46	14.31
644.494	1.31
644.527	-5.69
644.561	3.31
644.595	11.31
644.629	9.31
644.662	8.31
644.696	9.31
644.73	3.31
644.764	-1.69
644.797	-1.69
644.831	0.31
644.865	13.31
644.899	-8.69
644.932	11.31
644.966	0.31
645	11.31
645.033	20.31
645.067	-4.69
645.101	-1.69
645.135	9.31
645.168	0.31
645.202	4.31
645.236	11.31
645.269	10.31
645.303	2.31
645.337	-4.69
645.37	-4.69
645.404	4.31
645.438	-3.69
645.471	1.31
645.505	8.31
645.539	7.31
645.572	-12.69
645.606	-3.69
645.64	2.31
645.673	7.31
645.707	23.31
645.741	7.31
645.774	-13.69
645.808	-0.69
645.842	-6.69
645.875	26.31
645.909	-3.69
645.943	13.31
645.976	17.31
646.01	20.31
646.043	11.31
646.077	7.31
646.111	10.31
646.144	16.31
646.178	13.31
646.212	-22.69
646.245	-4.69
646.279	4.31
646.312	19.31
646.346	10.31
646.38	-8.69
646.413	9.31
646.447	5.31
646.48	4.31
646.514	16.31
646.547	-10.69
646.581	-12.69
646.615	-9.69
646.648	-6.69
646.682	2.31
646.715	-6.69
646.749	11.31
646.782	-6.69
646.816	-7.69
646.85	4.31
646.883	2.31
646.917	16.31
646.95	8.31
646.984	6.31
647.017	5.31
647.051	1.31
647.084	3.31
647.118	3.31
647.151	12.31
647.185	8.31
647.218	-5.69
647.252	13.31
647.285	-16.69
647.319	-14.69
647.353	9.31
647.386	6.31
647.42	-8.69
647.453	7.31
647.487	8.31
647.52	11.31
647.553	-0.69
647.587	-0.69
647.62	2.31
647.654	-3.69
647.687	5.31
647.721	4.31
647.754	5.31
647.788	17.31
647.821	4.31
647.855	5.31
647.888	7.31
647.922	2.31
647.955	-6.69
647.989	-3.69
648.022	7.31
648.055	3.31
648.089	11.31
648.122	23.31
648.156	-4.69
648.189	-8.69
648.223	4.31
648.256	9.31
648.29	6.31
648.323	3.31
648.356	15.31
648.39	5.31
648.423	2.31
648.457	2.31
648.49	13.31
648.523	-7.69
648.557	-1.69
648.59	-13.69
648.624	4.31
648.657	9.31
648.69	18.31
648.724	3.31
648.757	7.31
648.791	19.31
648.824	15.31
648.857	31.31
648.891	-0.69
648.924	-7.69
648.957	6.31
648.991	-13.69
649.024	16.31
649.057	10.31
649.091	3.31
649.124	11.31
649.158	30.31
649.191	22.31
649.224	-1.69
649.258	7.31
649.291	4.31
649.324	8.31
649.358	4.31
649.391	9.31
649.424	1.31
649.458	-1.69
649.491	14.31
649.524	-13.69
649.557	-7.69
649.591	-9.69
649.624	10.31
649.657	0.31
649.691	-4.69
649.724	8.31
649.757	10.31
649.791	-0.69
649.824	25.31
649.857	11.31
649.89	8.31
649.924	-14.69
649.957	8.31
649.99	-17.69
650.023	-12.69
650.057	-11.69
650.09	0.31
650.123	-1.69
650.157	12.31
650.19	34.31
650.223	1.31
650.256	-25.69
650.29	-0.69
650.323	3.31
650.356	2.31
650.389	4.31
650.423	11.31
650.456	5.31
650.489	0.31
650.522	15.31
650.555	15.31
650.589	18.31
650.622	-13.69
650.655	12.31
650.688	-5.69
650.721	13.31
650.755	0.31
650.788	16.31
650.821	-7.69
650.854	-12.69
650.887	5.31
650.921	-7.69
650.954	-6.69
650.987	14.31
651.02	7.31
651.053	-6.69
651.087	3.31
651.12	23.31
651.153	7.31
651.186	1.31
651.219	-15.69
651.252	-5.69
651.286	4.31
651.319	2.31
651.352	-8.69
651.385	-6.69
651.418	-0.69
651.451	7.31
651.484	12.31
651.518	-4.69
651.551	33.31
651.584	2.31
651.617	13.31
651.65	-5.69
651.683	22.31
651.716	-6.69
651.749	-4.69
651.783	4.31
651.816	11.31
651.849	12.31
651.882	-12.69
651.915	2.31
651.948	-5.69
651.981	-6.69
652.014	-24.69
652.047	-4.69
652.08	-8.69
652.114	2.31
652.147	-0.69
652.18	15.31
652.213	20.31
652.246	6.31
652.279	-9.69
652.312	5.31
652.345	13.31
652.378	4.31
652.411	19.31
652.444	-0.69
652.477	3.31
652.51	-9.69
652.543	-3.69
652.576	0.31
652.609	-2.69
652.642	3.31
652.675	7.31
652.709	2.31
652.742	1.31
652.775	3.31
652.808	0.31
652.841	-0.69
652.874	-10.69
652.907	15.31
652.94	3.31
652.973	-1.69
653.006	-4.69
653.039	1.31
653.072	0.31
653.105	-0.69
653.138	-16.69
653.171	4.31
653.204	8.31
653.237	5.31
653.27	-5.69
653.303	0.31
653.336	7.31
653.368	-9.69
653.401	-9.69
653.434	-4.69
653.467	5.31
653.5	-3.69
653.533	-4.69
653.566	1.31
653.599	7.31
653.632	6.31
653.665	7.31
653.698	-18.69
653.731	-5.69
653.764	-0.69
653.797	-10.69
653.83	5.31
653.863	-21.69
653.896	-6.69
653.929	-5.69
653.961	17.31
653.994	3.31
654.027	-10.69
654.06	2.31
654.093	16.31
654.126	24.31
654.159	-2.69
654.192	0.31
654.225	-0.69
654.258	-3.69
654.29	-2.69
654.323	-12.69
654.356	-9.69
654.389	22.31
654.422	11.31
654.455	4.31
654.488	-3.69
654.521	-27.69
654.553	-9.69
654.586	27.31
654.619	10.31
654.652	-0.69
654.685	9.31
654.718	9.31
654.751	-2.69
654.783	-15.69
654.816	17.31
654.849	3.31
654.882	-2.69
654.915	-10.69
654.948	-13.69
654.98	5.31
655.013	-0.69
655.046	-0.69
655.079	5.31
655.112	0.31
655.144	1.31
655.177	15.31
655.21	13.31
655.243	-0.69
655.276	-11.69
655.308	-26.69
655.341	-12.69
655.374	11.31
655.407	14.31
655.44	10.31
655.472	11.31
655.505	-5.69
655.538	2.31
655.571	3.31
655.603	1.31
655.636	1.31
655.669	7.31
655.702	3.31
655.734	-29.69
655.767	-18.69
655.8	3.31
655.833	-9.69
655.865	-4.69
655.898	-5.69
655.931	1.31
655.964	2.31
655.996	5.31
656.029	13.31
656.062	-13.69
656.095	1.31
656.127	-11.69
656.16	-3.69
656.193	-6.69
656.225	3.31
656.258	1.31
656.291	5.31
656.324	15.31
656.356	14.31
656.389	4.31
656.422	-4.69
656.454	-15.69
656.487	-1.69
656.52	1.31
656.552	-14.69
656.585	8.31
656.618	16.31
656.65	11.31
656.683	-10.69
656.716	14.31
656.748	4.31
656.781	-0.69
656.814	-1.69
656.846	0.31
656.879	-9.69
656.912	-10.69
656.944	-15.69
656.977	-4.69
657.01	-6.69
657.042	21.31
657.075	13.31
657.108	5.31
657.14	-1.69
657.173	0.31
657.205	30.31
657.238	13.31
657.271	0.31
657.303	-6.69
657.336	-9.69
657.369	-5.69
657.401	-0.69
657.434	8.31
657.466	7.31
657.499	-9.69
657.532	-11.69
657.564	21.31
657.597	-12.69
657.629	11.31
657.662	-0.69
657.694	-1.69
657.727	-11.69
657.76	9.31
657.792	-13.69
657.825	-24.69
657.857	-0.69
657.89	4.31
657.922	9.31
657.955	-7.69
657.987	-5.69
658.02	24.31
658.053	17.31
658.085	11.31
658.118	2.31
658.15	12.31
658.183	6.31
658.215	12.31
658.248	12.31
658.28	7.31
658.313	18.31
658.345	20.31
658.378	-7.69
658.41	-4.69
658.443	20.31
658.475	-1.69
658.508	2.31
658.54	8.31
658.573	-6.69
658.605	9.31
658.638	10.31
658.67	3.31
658.703	-16.69
658.735	-3.69
658.768	16.31
658.8	-14.69
658.833	21.31
658.865	2.31
658.898	-8.69
658.93	-3.69
658.963	1.31
658.995	3.31
659.028	-3.69
659.06	3.31
659.092	13.31
659.125	-19.69
659.157	-3.69
659.19	-12.69
659.222	-7.69
659.255	-7.69
659.287	7.31
659.32	10.31
659.352	11.31
659.384	12.31
659.417	3.31
659.449	8.31
659.482	13.31
659.514	1.31
659.546	10.31
659.579	-10.69
659.611	4.31
659.644	12.31
659.676	-8.69
659.708	1.31
659.741	-19.69
659.773	9.31
659.806	10.31
659.838	-0.69
659.87	-3.69
659.903	-12.69
659.935	19.31
659.967	8.31
660	3.31
660.032	-2.69
660.065	16.31
660.097	0.31
660.129	-17.69
660.162	6.31
660.194	9.31
660.226	1.31
660.259	14.31
660.291	-3.69
660.323	1.31
660.356	6.31
660.388	-7.69
660.42	3.31
660.453	3.31
660.485	2.31
660.517	7.31
660.55	14.31
660.582	-3.69
660.614	6.31
660.647	8.31
660.679	-5.69
660.711	1.31
660.743	3.31
660.776	-13.69
660.808	4.31
660.84	12.31
660.873	8.31
660.905	12.31
660.937	-2.69
660.969	11.31
661.002	-0.69
661.034	19.31
661.066	-3.69
661.099	7.31
661.131	10.31
661.163	6.31
661.195	-3.69
661.228	26.31
661.26	2.31
661.292	6.31
661.324	2.31
661.357	10.31
661.389	8.31
661.421	17.31
661.453	15.31
661.485	4.31
661.518	-3.69
661.55	-16.69
661.582	-10.69
661.614	-6.69
661.647	3.31
661.679	-16.69
661.711	9.31
661.743	4.31
661.775	-2.69
661.808	18.31
661.84	4.31
661.872	-1.69
661.904	-3.69
661.936	-2.69
661.969	-16.69
662.001	1.31
662.033	5.31
662.065	-7.69
662.097	15.31
662.129	26.31
662.162	8.31
662.194	7.31
662.226	0.31
662.258	13.31
662.29	13.31
662.322	-9.69
662.355	-6.69
662.387	30.31
662.419	22.31
662.451	18.31
662.483	20.31
662.515	14.31
662.547	-8.69
662.58	1.31
662.612	-8.69
662.644	-12.69
662.676	12.31
662.708	18.31
662.74	0.31
662.772	-5.69
662.804	-5.69
662.836	13.31
662.869	2.31
662.901	3.31
662.933	-0.69
662.965	18.31
662.997	13.31
663.029	-9.69
663.061	-3.69
663.093	-2.69
663.125	10.31
663.157	-0.69
663.189	0.31
663.221	7.31
663.254	7.31
663.286	13.31
663.318	-5.69
663.35	-16.69
663.382	14.31
663.414	5.31
663.446	7.31
663.478	1.31
663.51	17.31
663.542	-10.69
663.574	-0.69
663.606	8.31
663.638	3.31
663.67	-3.69
663.702	-9.69
663.734	11.31
663.766	10.31
663.798	-4.69
663.83	5.31
663.862	10.31
663.894	16.31
663.926	13.31
663.958	23.31
663.99	2.31
664.022	4.31
664.054	13.31
664.086	-18.69
664.118	-6.69
664.15	-10.69
664.182	6.31
664.214	8.31
664.246	4.31
664.278	12.31
664.31	32.31
664.342	11.31
664.374	25.31
664.406	-16.69
664.438	0.31
664.47	10.31
664.502	5.31
664.534	24.31
664.566	6.31
664.598	4.31
664.63	-1.69
664.662	5.31
664.693	8.31
664.725	-10.69
664.757	3.31
664.789	-1.69
664.821	18.31
664.853	21.31
664.885	8.31
664.917	-13.69
664.949	23.31
664.981	9.31
665.013	12.31
665.045	-12.69
665.076	-10.69
665.108	-1.69
665.14	7.31
665.172	5.31
665.204	5.31
665.236	5.31
665.268	21.31
665.3	3.31
665.331	8.31
665.363	3.31
665.395	-0.69
665.427	-5.69
665.459	6.31
665.491	0.31
665.523	-4.69
665.555	5.31
665.586	3.31
665.618	0.31
665.65	-14.69
665.682	4.31
665.714	6.31
665.746	15.31
665.777	15.31
665.809	4.31
665.841	10.31
665.873	-2.69
665.905	6.31
665.937	-0.69
665.968	16.31
666	2.31
666.032	9.31
666.064	0.31
666.096	-12.69
666.127	-5.69
666.159	10.31
666.191	13.31
666.223	7.31
666.255	13.31
666.286	2.31
666.318	-2.69
666.35	14.31
666.382	-2.69
666.413	-10.69
666.445	-29.69
666.477	-2.69
666.509	-0.69
666.54	5.31
666.572	-2.69
666.604	5.31
666.636	1.31
666.667	11.31
666.699	17.31
666.731	12.31
666.763	-7.69
666.794	3.31
666.826	6.31
666.858	8.31
666.89	17.31
666.921	11.31
666.953	11.31
666.985	14.31
667.017	20.31
667.048	7.31
667.08	0.31
667.112	-10.69
667.143	-6.69
667.175	9.31
667.207	8.31
667.238	-6.69
667.27	8.31
667.302	18.31
667.334	5.31
667.365	12.31
667.397	7.31
667.429	-7.69
667.46	2.31
667.492	-1.69
667.524	2.31
667.555	6.31
667.587	10.31
667.619	-2.69
667.65	7.31
667.682	-11.69
667.714	-6.69
667.745	-2.69
667.777	8.31
667.808	12.31
667.84	2.31
667.872	4.31
667.903	22.31
667.935	-8.69
667.967	-1.69
667.998	-0.69
668.03	-7.69
668.061	2.31
668.093	10.31
668.125	-1.69
668.156	-5.69
668.188	-12.69
668.22	5.31
668.251	2.31
668.283	3.31
668.314	7.31
668.346	11.31
668.377	23.31
668.409	12.31
668.441	20.31
668.472	11.31
668.504	3.31
668.535	7.31
668.567	20.31
668.599	5.31
668.63	3.31
668.662	-2.69
668.693	29.31
668.725	11.31
668.756	-0.69
668.788	-3.69
668.819	2.31
668.851	8.31
668.882	-0.69
668.914	-10.69
668.946	-3.69
668.977	-12.69
669.009	10.31
669.04	4.31
669.072	-0.69
669.103	9.31
669.135	3.31
669.166	4.31
669.198	9.31
669.229	5.31
669.261	1.31
669.292	7.31
669.324	25.31
669.355	13.31
669.387	-4.69
669.418	5.31
669.45	2.31
669.481	9.31
669.513	-2.69
669.544	8.31
669.576	15.31
669.607	11.31
669.639	0.31
669.67	-5.69
669.701	3.31
669.733	-14.69
669.764	3.31
669.796	-0.69
669.827	-0.69
669.859	-9.69
669.89	6.31
669.922	25.31
669.953	12.31
669.985	2.31
670.016	0.31
670.047	13.31
670.079	4.31
670.11	7.31
670.142	0.31
670.173	8.31
670.204	-3.69
670.236	14.31
670.267	-7.69
670.299	-16.69
670.33	1.31
670.362	8.31
670.393	-4.69
670.424	18.31
670.456	-12.69
670.487	6.31
670.518	16.31
670.55	0.31
670.581	6.31
670.613	9.31
670.644	-26.69
670.675	1.31
670.707	4.31
670.738	8.31
670.769	1.31
670.801	-1.69
670.832	5.31
670.864	-6.69
670.895	-3.69
670.926	-4.69
670.958	13.31
670.989	4.31
671.02	-17.69
671.052	-2.69
671.083	3.31
671.114	3.31
671.146	12.31
671.177	5.31
671.208	-4.69
671.24	-4.69
671.271	-16.69
671.302	-1.69
671.333	-11.69
671.365	-8.69
671.396	-0.69
671.427	6.31
671.459	12.31
671.49	8.31
671.521	6.31
671.553	13.31
671.584	4.31
671.615	-5.69
671.646	15.31
671.678	9.31
671.709	-2.69
671.74	-9.69
671.771	-19.69
671.803	11.31
671.834	2.31
671.865	-15.69
671.896	2.31
671.928	-8.69
671.959	-2.69
671.99	2.31
672.021	9.31
672.053	0.31
672.084	7.31
672.115	-0.69
672.146	-7.69
672.178	-8.69
672.209	-9.69
672.24	-12.69
672.271	3.31
672.303	6.31
672.334	5.31
672.365	-9.69
672.396	0.31
672.427	9.31
672.459	18.31
672.49	31.31
672.521	3.31
672.552	16.31
672.583	-1.69
672.615	8.31
672.646	7.31
672.677	-9.69
672.708	-5.69
672.739	-11.69
672.77	16.31
672.802	-8.69
672.833	10.31
672.864	-6.69
672.895	-2.69
672.926	-2.69
672.957	-9.69
672.989	-7.69
673.02	11.31
673.051	-9.69
673.082	5.31
673.113	-8.69
673.144	8.31
673.175	7.31
673.206	-2.69
673.238	-9.69
673.269	1.31
673.3	-13.69
673.331	5.31
673.362	-6.69
673.393	17.31
673.424	11.31
673.455	14.31
673.487	-17.69
673.518	10.31
673.549	18.31
673.58	-22.69
673.611	11.31
673.642	5.31
673.673	-6.69
673.704	11.31
673.735	16.31
673.766	-1.69
673.797	-10.69
673.828	-7.69
673.86	-1.69
673.891	-5.69
673.922	-11.69
673.953	-8.69
673.984	10.31
674.015	11.31
674.046	11.31
674.077	7.31
674.108	-7.69
674.139	-0.69
674.17	8.31
674.201	-5.69
674.232	6.31
674.263	13.31
674.294	-2.69
674.325	-10.69
674.356	4.31
674.387	21.31
674.418	0.31
674.449	-5.69
674.48	3.31
674.511	1.31
674.542	18.31
674.573	-19.69
674.604	1.31
674.635	-1.69
674.666	7.31
674.697	2.31
674.728	4.31
674.759	-5.69
674.79	-4.69
674.821	9.31
674.852	3.31
674.883	-11.69
674.914	0.31
674.945	-0.69
674.976	8.31
675.007	-7.69
675.038	-22.69
675.069	-6.69
675.1	-9.69
675.131	-1.69
675.162	-15.69
675.193	3.31
675.224	-0.69
675.254	0.31
675.285	12.31
675.316	6.31
675.347	0.31
675.378	2.31
675.409	-9.69
675.44	1.31
675.471	10.31
675.502	6.31
675.533	-6.69
675.564	-7.69
675.595	9.31
675.625	11.31
675.656	11.31
675.687	-11.69
675.718	-8.69
675.749	15.31
675.78	5.31
675.811	1.31
675.842	9.31
675.873	14.31
675.903	-7.69
675.934	-8.69
675.965	-5.69
675.996	-7.69
676.027	1.31
676.058	-0.69
676.089	-10.69
676.119	1.31
676.15	-0.69
676.181	-1.69
676.212	-20.69
676.243	4.31
676.274	-4.69
676.304	14.31
676.335	-5.69
676.366	0.31
676.397	2.31
676.428	8.31
676.459	12.31
676.489	-7.69
676.52	0.31
676.551	13.31
676.582	3.31
676.613	6.31
676.643	-18.69
676.674	6.31
676.705	4.31
676.736	-1.69
676.767	14.31
676.797	18.31
676.828	0.31
676.859	18.31
676.89	5.31
676.92	1.31
676.951	0.31
676.982	14.31
677.013	-9.69
677.044	19.31
677.074	31.31
677.105	8.31
677.136	6.31
677.167	-0.69
677.197	16.31
677.228	-5.69
677.259	-4.69
677.289	-5.69
677.32	-12.69
677.351	3.31
677.382	9.31
677.412	7.31
677.443	9.31
677.474	10.31
677.505	-12.69
677.535	5.31
677.566	3.31
677.597	2.31
677.627	-9.69
677.658	-2.69
677.689	1.31
677.72	-13.69
677.75	-3.69
677.781	3.31
677.812	4.31
677.842	1.31
677.873	1.31
677.904	11.31
677.934	1.31
677.965	7.31
677.996	-17.69
678.026	3.31
678.057	0.31
678.088	1.31
678.118	-3.69
678.149	-4.69
678.18	10.31
678.21	10.31
678.241	2.31
678.272	-13.69
678.302	-8.69
678.333	-9.69
678.363	0.31
678.394	5.31
678.425	-13.69
678.455	3.31
678.486	13.31
678.517	7.31
678.547	5.31
678.578	-1.69
678.608	-7.69
678.639	15.31
678.67	13.31
678.7	-19.69
678.731	1.31
678.761	-8.69
678.792	4.31
678.823	9.31
678.853	0.31
678.884	-1.69
678.914	7.31
678.945	4.31
678.975	3.31
679.006	5.31
679.037	-6.69
679.067	16.31
679.098	5.31
679.128	-1.69
679.159	-3.69
679.189	4.31
679.22	-9.69
679.25	27.31
679.281	11.31
679.312	1.31
679.342	18.31
679.373	27.31
679.403	12.31
679.434	16.31
679.464	-13.69
679.495	-6.69
679.525	5.31
679.556	-8.69
679.586	15.31
679.617	7.31
679.647	-5.69
679.678	1.31
679.708	-16.69
679.739	-21.69
679.769	-1.69
679.8	-5.69
679.83	7.31
679.861	6.31
679.891	-11.69
679.922	-20.69
679.952	-12.69
679.983	6.31
680.013	7.31
680.044	6.31
680.074	13.31
680.105	17.31
680.135	3.31
680.165	20.31
680.196	11.31
680.226	-3.69
680.257	20.31
680.287	8.31
680.318	-3.69
680.348	-9.69
680.379	11.31
680.409	6.31
680.439	2.31
680.47	-14.69
680.5	5.31
680.531	-2.69
680.561	-4.69
680.592	5.31
680.622	23.31
680.652	6.31
680.683	12.31
680.713	13.31
680.744	4.31
680.774	-9.69
680.804	18.31
680.835	4.31
680.865	1.31
680.896	20.31
680.926	9.31
680.956	4.31
680.987	14.31
681.017	10.31
681.047	2.31
681.078	3.31
681.108	-8.69
681.139	-2.69
681.169	-3.69
681.199	-4.69
681.23	6.31
681.26	1.31
681.29	8.31
681.321	2.31
681.351	-5.69
681.381	-13.69
681.412	9.31
681.442	-1.69
681.472	10.31
681.503	25.31
681.533	-0.69
681.563	-13.69
681.594	-9.69
681.624	3.31
681.654	-14.69
681.685	-7.69
681.715	6.31
681.745	-5.69
681.775	-11.69
681.806	1.31
681.836	-7.69
681.866	-13.69
681.897	2.31
681.927	-6.69
681.957	-9.69
681.987	8.31
682.018	4.31
682.048	4.31
682.078	4.31
682.109	25.31
682.139	31.31
682.169	-3.69
682.199	6.31
682.23	-8.69
682.26	0.31
682.29	-3.69
682.32	-2.69
682.351	8.31
682.381	-5.69
682.411	5.31
682.441	-6.69
682.472	0.31
682.502	-12.69
682.532	-7.69
682.562	2.31
682.592	0.31
682.623	20.31
682.653	7.31
682.683	-4.69
682.713	-7.69
682.743	-0.69
682.774	12.31
682.804	4.31
682.834	31.31
682.864	-10.69
682.894	-8.69
682.925	-18.69
682.955	-12.69
682.985	-12.69
683.015	-0.69
683.045	10.31
683.076	-3.69
683.106	-7.69
683.136	-0.69
683.166	-3.69
683.196	-4.69
683.226	-2.69
683.257	10.31
683.287	3.31
683.317	-16.69
683.347	-3.69
683.377	-10.69
683.407	0.31
683.437	16.31
683.468	25.31
683.498	-7.69
683.528	-19.69
683.558	6.31
683.588	-1.69
683.618	7.31
683.648	9.31
683.678	4.31
683.708	12.31
683.739	7.31
683.769	5.31
683.799	9.31
683.829	4.31
683.859	7.31
683.889	12.31
683.919	-13.69
683.949	10.31
683.979	0.31
684.009	-8.69
684.039	-4.69
684.07	-15.69
684.1	32.31
684.13	2.31
684.16	6.31
684.19	4.31
684.22	0.31
684.25	2.31
684.28	7.31
684.31	22.31
684.34	-1.69
684.37	-11.69
684.4	-4.69
684.43	7.31
684.46	1.31
684.49	7.31
684.52	5.31
684.55	4.31
684.58	3.31
684.61	2.31
684.64	11.31
684.67	13.31
684.7	-10.69
684.73	11.31
684.76	8.31
684.79	31.31
684.82	2.31
684.85	9.31
684.88	7.31
684.91	5.31
684.94	-10.69
684.97	-12.69
685	-3.69
685.03	-9.69
685.06	-0.69
685.09	4.31
685.12	8.31
685.15	9.31
685.18	-0.69
685.21	15.31
685.24	15.31
685.27	7.31
685.3	17.31
685.33	9.31
685.36	-5.69
685.39	17.31
685.42	-3.69
685.45	11.31
685.48	6.31
685.51	6.31
685.54	14.31
685.569	13.31
685.599	3.31
685.629	22.31
685.659	1.31
685.689	-10.69
685.719	-7.69
685.749	-10.69
685.779	7.31
685.809	11.31
685.839	15.31
685.869	7.31
685.898	6.31
685.928	-7.69
685.958	8.31
685.988	20.31
686.018	7.31
686.048	-3.69
686.078	3.31
686.108	22.31
686.137	22.31
686.167	18.31
686.197	-0.69
686.227	1.31
686.257	27.31
686.287	13.31
686.317	1.31
686.346	-4.69
686.376	-1.69
686.406	-8.69
686.436	15.31
686.466	15.31
686.496	1.31
686.525	13.31
686.555	3.31
686.585	3.31
686.615	17.31
686.645	-2.69
686.675	6.31
686.704	12.31
686.734	-7.69
686.764	-1.69
686.794	-0.69
686.824	-14.69
686.853	1.31
686.883	8.31
686.913	18.31
686.943	20.31
686.973	-5.69
687.002	-0.69
687.032	1.31
687.062	-1.69
687.092	8.31
687.121	4.31
687.151	-3.69
687.181	0.31
687.211	15.31
687.24	6.31
687.27	2.31
687.3	12.31
687.33	3.31
687.359	1.31
687.389	5.31
687.419	2.31
687.449	1.31
687.478	-5.69
687.508	12.31
687.538	16.31
687.568	23.31
687.597	9.31
687.627	-6.69
687.657	-2.69
687.686	16.31
687.716	31.31
687.746	-10.69
687.776	-8.69
687.805	7.31
687.835	5.31
687.865	12.31
687.894	12.31
687.924	7.31
687.954	4.31
687.983	-0.69
688.013	2.31
688.043	16.31
688.072	26.31
688.102	22.31
688.132	-4.69
688.161	0.31
688.191	-5.69
688.221	25.31
688.25	-5.69
688.28	7.31
688.31	2.31
688.339	-2.69
688.369	-15.69
688.399	1.31
688.428	6.31
688.458	-3.69
688.488	2.31
688.517	-2.69
688.547	-6.69
688.576	32.31
688.606	15.31
688.636	-8.69
688.665	-0.69
688.695	7.31
688.725	19.31
688.754	6.31
688.784	17.31
688.813	9.31
688.843	9.31
688.873	0.31
688.902	0.31
688.932	1.31
688.961	0.31
688.991	12.31
689.02	21.31
689.05	10.31
689.08	13.31
689.109	8.31
689.139	4.31
689.168	16.31
689.198	3.31
689.227	5.31
689.257	11.31
689.287	16.31
689.316	0.31
689.346	-8.69
689.375	-0.69
689.405	13.31
689.434	3.31
689.464	-0.69
689.493	-9.69
689.523	11.31
689.552	14.31
689.582	15.31
689.611	1.31
689.641	11.31
689.67	14.31
689.7	2.31
689.73	11.31
689.759	11.31
689.789	21.31
689.818	7.31
689.848	5.31
689.877	16.31
689.906	12.31
689.936	-10.69
689.965	8.31
689.995	12.31
690.024	19.31
690.054	-5.69
690.083	9.31
690.113	14.31
690.142	-5.69
690.172	11.31
690.201	11.31
690.231	1.31
690.26	13.31
690.29	4.31
690.319	13.31
690.348	7.31
690.378	0.31
690.407	18.31
690.437	-6.69
690.466	-9.69
690.496	-8.69
690.525	19.31
690.555	-2.69
690.584	6.31
690.613	10.31
690.643	9.31
690.672	15.31
690.702	5.31
690.731	-0.69
690.76	25.31
690.79	51.31
690.819	43.31
690.849	42.31
690.878	30.31
690.907	32.31
690.937	30.31
690.966	26.31
690.996	17.31
691.025	8.31
691.054	4.31
691.084	-1.69
691.113	6.31
691.142	12.31
691.172	5.31
691.201	11.31
691.23	4.31
691.26	6.31
691.289	10.31
691.319	17.31
691.348	-0.69
691.377	23.31
691.407	13.31
691.436	5.31
691.465	-4.69
691.495	-3.69
691.524	-11.69
691.553	-22.69
691.583	-1.69
691.612	42.31
691.641	4.31
691.67	-0.69
691.7	10.31
691.729	-3.69
691.758	1.31
691.788	3.31
691.817	-16.69
691.846	-7.69
691.876	24.31
691.905	5.31
691.934	-8.69
691.963	7.31
691.993	4.31
692.022	-8.69
692.051	11.31
692.081	7.31
692.11	14.31
692.139	-4.69
692.168	2.31
692.198	23.31
692.227	15.31
692.256	2.31
692.285	-13.69
692.315	-0.69
692.344	6.31
692.373	7.31
692.402	-5.69
692.432	0.31
692.461	-22.69
692.49	-12.69
692.519	-3.69
692.548	5.31
692.578	18.31
692.607	1.31
692.636	2.31
692.665	19.31
692.694	-3.69
692.724	2.31
692.753	11.31
692.782	15.31
692.811	0.31
692.84	11.31
692.87	-3.69
692.899	0.31
692.928	-4.69
692.957	1.31
692.986	-1.69
693.016	3.31
693.045	-5.69
693.074	5.31
693.103	-1.69
693.132	2.31
693.161	2.31
693.191	2.31
693.22	-2.69
693.249	0.31
693.278	1.31
693.307	17.31
693.336	-3.69
693.365	-5.69
693.395	-1.69
693.424	2.31
693.453	0.31
693.482	2.31
693.511	14.31
693.54	-4.69
693.569	16.31
693.598	7.31
693.628	29.31
693.657	10.31
693.686	26.31
693.715	-0.69
693.744	10.31
693.773	10.31
693.802	-6.69
693.831	-1.69
693.86	12.31
693.889	-8.69
693.919	6.31
693.948	0.31
693.977	-3.69
694.006	7.31
694.035	9.31
694.064	8.31
694.093	6.31
694.122	-2.69
694.151	-4.69
694.18	5.31
694.209	20.31
694.238	8.31
694.267	11.31
694.296	18.31
694.325	22.31
694.354	8.31
694.383	3.31
694.412	-1.69
694.441	-4.69
694.471	13.31
694.5	-4.69
694.529	12.31
694.558	11.31
694.587	24.31
694.616	7.31
694.645	14.31
694.674	13.31
694.703	-0.69
694.732	-1.69
694.761	25.31
694.79	6.31
694.819	-1.69
694.848	7.31
694.877	24.31
694.906	28.31
694.935	-10.69
694.963	32.31
694.992	5.31
695.021	19.31
695.05	17.31
695.079	-0.69
695.108	-23.69
695.137	23.31
695.166	3.31
695.195	14.31
695.224	22.31
695.253	3.31
695.282	3.31
695.311	9.31
695.34	-4.69
695.369	2.31
695.398	18.31
695.427	21.31
695.456	6.31
695.485	7.31
695.513	12.31
695.542	14.31
695.571	2.31
695.6	16.31
695.629	-14.69
695.658	12.31
695.687	-3.69
695.716	10.31
695.745	30.31
695.774	4.31
695.802	-1.69
695.831	1.31
695.86	20.31
695.889	26.31
695.918	12.31
695.947	17.31
695.976	1.31
696.005	-0.69
696.033	12.31
696.062	18.31
696.091	-2.69
696.12	1.31
696.149	17.31
696.178	1.31
696.207	6.31
696.235	-0.69
696.264	-3.69
696.293	11.31
696.322	9.31
696.351	10.31
696.38	-8.69
696.408	0.31
696.437	3.31
696.466	5.31
696.495	4.31
696.524	19.31
696.553	17.31
696.581	23.31
696.61	2.31
696.639	21.31
696.668	3.31
696.697	6.31
696.725	7.31
696.754	-7.69
696.783	-7.69
696.812	4.31
696.84	-0.69
696.869	9.31
696.898	3.31
696.927	0.31
696.956	22.31
696.984	-4.69
697.013	5.31
697.042	-7.69
697.071	16.31
697.099	16.31
697.128	-3.69
697.157	16.31
697.186	6.31
697.214	5.31
697.243	5.31
697.272	-4.69
697.301	-4.69
697.329	18.31
697.358	2.31
697.387	16.31
697.415	4.31
697.444	9.31
697.473	2.31
697.502	-5.69
697.53	16.31
697.559	3.31
697.588	10.31
697.616	8.31
697.645	6.31
697.674	13.31
697.703	7.31
697.731	18.31
697.76	19.31
697.789	1.31
697.817	6.31
697.846	33.31
697.875	9.31
697.903	25.31
697.932	4.31
697.961	20.31
697.989	12.31
698.018	3.31
698.047	14.31
698.075	25.31
698.104	3.31
698.133	-0.69
698.161	-0.69
698.19	-4.69
698.218	-6.69
698.247	-3.69
698.276	-5.69
698.304	19.31
698.333	21.31
698.362	24.31
698.39	9.31
698.419	15.31
698.447	-7.69
698.476	14.31
698.505	16.31
698.533	10.31
698.562	17.31
698.591	-10.69
698.619	-7.69
698.648	3.31
698.676	3.31
698.705	-12.69
698.733	-10.69
698.762	-0.69
698.791	4.31
698.819	-1.69
698.848	15.31
698.876	13.31
698.905	-2.69
698.933	19.31
698.962	8.31
698.991	2.31
699.019	28.31
699.048	6.31
699.076	17.31
699.105	2.31
699.133	5.31
699.162	15.31
699.19	26.31
699.219	22.31
699.248	8.31
699.276	-9.69
699.305	-9.69
699.333	-5.69
699.362	7.31
699.39	6.31
699.419	4.31
699.447	18.31
699.476	8.31
699.504	6.31
699.533	4.31
699.561	3.31
699.59	8.31
699.618	9.31
699.647	9.31
699.675	5.31
699.704	13.31
699.732	12.31
699.761	13.31
699.789	4.31
699.818	21.31
699.846	5.31
699.874	2.31
699.903	-3.69
699.931	11.31
699.96	18.31
699.988	5.31
700.017	16.31
700.045	4.31
700.074	-8.69
700.102	5.31
700.13	3.31
700.159	3.31
700.187	-3.69
700.216	2.31
700.244	-4.69
700.273	-2.69
700.301	4.31
700.329	3.31
700.358	18.31
700.386	10.31
700.415	5.31
700.443	-1.69
700.472	12.31
700.5	7.31
700.528	15.31
700.557	8.31
700.585	-12.69
700.614	-2.69
700.642	18.31
700.67	12.31
700.699	2.31
700.727	9.31
700.755	16.31
700.784	13.31
700.812	8.31
700.841	3.31
700.869	-5.69
700.897	-19.69
700.926	-13.69
700.954	7.31
700.982	2.31
701.011	-0.69
701.039	8.31
701.067	-0.69
701.096	-2.69
701.124	-1.69
701.152	-3.69
701.181	-1.69
701.209	-7.69
701.237	7.31
701.266	-4.69
701.294	-6.69
701.322	-4.69
701.351	19.31
701.379	7.31
701.407	-7.69
701.435	-6.69
701.464	25.31
701.492	20.31
701.52	0.31
701.549	4.31
701.577	4.31
701.605	-7.69
701.634	1.31
701.662	17.31
701.69	-12.69
701.718	-0.69
701.747	6.31
701.775	13.31
701.803	-7.69
701.831	16.31
701.86	0.31
701.888	-0.69
701.916	0.31
701.944	-4.69
701.973	-1.69
702.001	12.31
702.029	-0.69
702.057	6.31
702.086	-3.69
702.114	-5.69
702.142	-6.69
702.17	-14.69
702.199	-8.69
702.227	11.31
702.255	-17.69
702.283	6.31
702.311	2.31
702.34	3.31
702.368	2.31
702.396	7.31
702.424	8.31
702.452	-5.69
702.481	-1.69
702.509	-5.69
702.537	-0.69
702.565	2.31
702.593	3.31
702.621	6.31
702.65	2.31
702.678	-0.69
702.706	3.31
702.734	-1.69
702.762	0.31
702.79	2.31
702.819	4.31
702.847	8.31
702.875	12.31
702.903	5.31
702.931	1.31
702.959	9.31
702.988	-0.69
703.016	-10.69
703.044	14.31
703.072	3.31
703.1	-19.69
703.128	-8.69
703.156	8.31
703.184	4.31
703.212	11.31
703.241	4.31
703.269	2.31
703.297	6.31
703.325	-1.69
703.353	2.31
703.381	0.31
703.409	10.31
703.437	-3.69
703.465	-4.69
703.493	-17.69
703.522	4.31
703.55	5.31
703.578	-4.69
703.606	0.31
703.634	1.31
703.662	6.31
703.69	-3.69
703.718	4.31
703.746	24.31
703.774	10.31
703.802	16.31
703.83	13.31
703.858	4.31
703.886	-0.69
703.914	-4.69
703.942	18.31
703.97	-12.69
703.998	-5.69
704.027	4.31
704.055	4.31
704.083	2.31
704.111	-13.69
704.139	2.31
704.167	-2.69
704.195	14.31
704.223	-4.69
704.251	-8.69
704.279	8.31
704.307	2.31
704.335	-3.69
704.363	-3.69
704.391	2.31
704.419	-1.69
704.447	-20.69
704.475	-1.69
704.503	-2.69
704.531	10.31
704.558	10.31
704.586	19.31
704.614	1.31
704.642	-1.69
704.67	-2.69
704.698	2.31
704.726	0.31
704.754	4.31
704.782	10.31
704.81	5.31
704.838	13.31
704.866	18.31
704.894	-7.69
704.922	5.31
704.95	18.31
704.978	17.31
705.006	-2.69
705.034	23.31
705.061	-0.69
705.089	0.31
705.117	-11.69
705.145	-1.69
705.173	-1.69
705.201	-8.69
705.229	12.31
705.257	23.31
705.285	14.31
705.313	11.31
705.34	-8.69
705.368	2.31
705.396	2.31
705.424	1.31
705.452	-11.69
705.48	6.31
705.508	-1.69
705.536	-5.69
705.563	-4.69
705.591	8.31
705.619	4.31
705.647	-12.69
705.675	-15.69
705.703	-7.69
705.731	6.31
705.758	12.31
705.786	9.31
705.814	8.31
705.842	5.31
705.87	17.31
705.898	20.31
705.925	-1.69
705.953	15.31
705.981	1.31
706.009	-3.69
706.037	-9.69
706.065	-10.69
706.092	-22.69
706.12	2.31
706.148	-15.69
706.176	-8.69
706.204	17.31
706.231	16.31
706.259	8.31
706.287	1.31
706.315	-3.69
706.342	6.31
706.37	21.31
706.398	9.31
706.426	-3.69
706.454	-7.69
706.481	10.31
706.509	4.31
706.537	0.31
706.565	6.31
706.592	12.31
706.62	0.31
706.648	-0.69
706.676	0.31
706.703	6.31
706.731	-5.69
706.759	-1.69
706.787	12.31
706.814	1.31
706.842	-0.69
706.87	1.31
706.897	-6.69
706.925	-9.69
706.953	14.31
706.981	12.31
707.008	18.31
707.036	0.31
707.064	-1.69
707.091	2.31
707.119	20.31
707.147	2.31
707.174	-6.69
707.202	16.31
707.23	5.31
707.258	11.31
707.285	-4.69
707.313	-7.69
707.341	-13.69
707.368	-4.69
707.396	-0.69
707.424	15.31
707.451	20.31
707.479	18.31
707.507	8.31
707.534	5.31
707.562	11.31
707.59	-0.69
707.617	-12.69
707.645	2.31
707.672	3.31
707.7	-3.69
707.728	12.31
707.755	0.31
707.783	-15.69
707.811	3.31
707.838	3.31
707.866	7.31
707.893	2.31
707.921	-14.69
707.949	-4.69
707.976	2.31
708.004	4.31
708.031	-5.69
708.059	-13.69
708.087	0.31
708.114	-3.69
708.142	5.31
708.169	-1.69
708.197	-10.69
708.225	9.31
708.252	7.31
708.28	10.31
708.307	11.31
708.335	-0.69
708.362	-1.69
708.39	-9.69
708.418	3.31
708.445	-5.69
708.473	-24.69
708.5	1.31
708.528	9.31
708.555	0.31
708.583	-2.69
708.61	-0.69
708.638	6.31
708.665	-5.69
708.693	6.31
708.72	-11.69
708.748	-0.69
708.776	9.31
708.803	8.31
708.831	14.31
708.858	10.31
708.886	3.31
708.913	7.31
708.941	-5.69
708.968	3.31
708.996	-11.69
709.023	16.31
709.051	3.31
709.078	-11.69
709.105	7.31
709.133	6.31
709.16	8.31
709.188	10.31
709.215	4.31
709.243	-3.69
709.27	-4.69
709.298	4.31
709.325	-1.69
709.353	-13.69
709.38	10.31
709.408	7.31
709.435	1.31
709.462	11.31
709.49	-7.69
709.517	2.31
709.545	-1.69
709.572	-2.69
709.6	-1.69
709.627	19.31
709.655	0.31
709.682	-4.69
709.709	-3.69
709.737	-3.69
709.764	-7.69
709.792	7.31
709.819	-0.69
709.846	-3.69
709.874	6.31
709.901	10.31
709.929	28.31
709.956	13.31
709.983	3.31
710.011	4.31
710.038	-7.69
710.066	13.31
710.093	17.31
710.12	18.31
710.148	1.31
710.175	-1.69
710.202	-10.69
710.23	11.31
710.257	12.31
710.284	18.31
710.312	14.31
710.339	-1.69
710.366	7.31
710.394	-0.69
710.421	5.31
710.448	10.31
710.476	-1.69
710.503	-8.69
710.53	14.31
710.558	20.31
710.585	24.31
710.612	5.31
710.64	-1.69
710.667	2.31
710.694	-15.69
710.722	-5.69
710.749	7.31
710.776	6.31
710.804	19.31
710.831	-8.69
710.858	-4.69
710.885	2.31
710.913	7.31
710.94	22.31
710.967	6.31
710.995	11.31
711.022	4.31
711.049	5.31
711.076	3.31
711.104	0.31
711.131	-21.69
711.158	-6.69
711.185	3.31
711.213	-7.69
711.24	-8.69
711.267	-10.69
711.294	4.31
711.322	-0.69
711.349	-7.69
711.376	-8.69
711.403	1.31
711.431	1.31
711.458	4.31
711.485	-4.69
711.512	17.31
711.54	4.31
711.567	-1.69
711.594	4.31
711.621	-7.69
711.648	4.31
711.676	5.31
711.703	2.31
711.73	-25.69
711.757	-0.69
711.784	-3.69
711.812	-0.69
711.839	3.31
711.866	-5.69
711.893	-7.69
711.92	11.31
711.947	14.31
711.975	14.31
712.002	-2.69
712.029	18.31
712.056	7.31
712.083	14.31
712.11	-7.69
712.138	8.31
712.165	-10.69
712.192	4.31
712.219	-3.69
712.246	-18.69
712.273	-6.69
712.3	-13.69
712.328	-4.69
712.355	-5.69
712.382	-2.69
712.409	8.31
712.436	-2.69
712.463	10.31
712.49	13.31
712.517	1.31
712.544	-2.69
712.572	-4.69
712.599	-5.69
712.626	10.31
712.653	-2.69
712.68	-9.69
712.707	7.31
712.734	-8.69
712.761	-4.69
712.788	8.31
712.815	1.31
712.842	18.31
712.87	3.31
712.897	0.31
712.924	-15.69
712.951	7.31
712.978	6.31
713.005	10.31
713.032	12.31
713.059	5.31
713.086	-12.69
713.113	-16.69
713.14	-6.69
713.167	18.31
713.194	7.31
713.221	0.31
713.248	-0.69
713.275	12.31
713.302	2.31
713.329	4.31
713.356	5.31
713.383	-0.69
713.41	7.31
713.437	-3.69
713.464	1.31
713.491	14.31
713.518	11.31
713.545	1.31
713.572	-4.69
713.599	10.31
713.626	0.31
713.653	9.31
713.68	-1.69
713.707	-0.69
713.734	19.31
713.761	0.31
713.788	10.31
713.815	12.31
713.842	-7.69
713.869	0.31
713.896	12.31
713.923	2.31
713.95	2.31
713.977	-9.69
714.004	5.31
714.031	-8.69
714.058	-7.69
714.085	3.31
714.112	17.31
714.139	12.31
714.165	-7.69
714.192	-1.69
714.219	7.31
714.246	8.31
714.273	3.31
714.3	2.31
714.327	9.31
714.354	9.31
714.381	-8.69
714.408	16.31
714.435	8.31
714.461	0.31
714.488	24.31
714.515	1.31
714.542	-12.69
714.569	1.31
714.596	-5.69
714.623	1.31
714.65	-3.69
714.677	6.31
714.703	0.31
714.73	8.31
714.757	13.31
714.784	11.31
714.811	-5.69
714.838	10.31
714.865	-10.69
714.891	15.31
714.918	8.31
714.945	8.31
714.972	-3.69
714.999	5.31
715.026	0.31
715.052	28.31
715.079	11.31
715.106	-3.69
715.133	3.31
715.16	1.31
715.187	13.31
715.213	3.31
715.24	-6.69
715.267	-7.69
715.294	11.31
715.321	6.31
715.347	20.31
715.374	-0.69
715.401	-8.69
715.428	5.31
715.455	16.31
715.481	7.31
715.508	25.31
715.535	18.31
715.562	19.31
715.588	2.31
715.615	-2.69
715.642	-3.69
715.669	1.31
715.695	-6.69
715.722	1.31
715.749	-4.69
715.776	-1.69
715.802	4.31
715.829	5.31
715.856	-19.69
715.883	8.31
715.909	6.31
715.936	4.31
715.963	-8.69
715.99	-13.69
716.016	5.31
716.043	7.31
716.07	-13.69
716.096	-21.69
716.123	6.31
716.15	18.31
716.177	5.31
716.203	5.31
716.23	6.31
716.257	3.31
716.283	-1.69
716.31	-13.69
716.337	15.31
716.363	-2.69
716.39	0.31
716.417	25.31
716.443	14.31
716.47	-0.69
716.497	27.31
716.523	12.31
716.55	2.31
716.577	11.31
716.603	-3.69
716.63	3.31
716.657	3.31
716.683	-16.69
716.71	-5.69
716.737	-3.69
716.763	13.31
716.79	3.31
716.817	24.31
716.843	17.31
716.87	-4.69
716.897	-5.69
716.923	30.31
716.95	13.31
716.976	-4.69
717.003	-10.69
717.03	6.31
717.056	1.31
717.083	-7.69
717.109	13.31
717.136	19.31
717.163	1.31
717.189	15.31
717.216	7.31
717.242	6.31
717.269	3.31
717.296	2.31
717.322	18.31
717.349	11.31
717.375	13.31
717.402	10.31
717.428	-2.69
717.455	12.31
717.481	7.31
717.508	14.31
717.535	3.31
717.561	4.31
717.588	2.31
717.614	-3.69
717.641	11.31
717.667	9.31
717.694	-4.69
717.72	0.31
717.747	-2.69
717.773	-1.69
717.8	7.31
717.826	2.31
717.853	-4.69
717.88	4.31
717.906	1.31
717.933	1.31
717.959	12.31
717.986	5.31
718.012	-0.69
718.039	16.31
718.065	3.31
718.092	15.31
718.118	-0.69
718.144	-1.69
718.171	7.31
718.197	20.31
718.224	0.31
718.25	-1.69
718.277	-4.69
718.303	7.31
718.33	4.31
718.356	6.31
718.383	-25.69
718.409	5.31
718.436	12.31
718.462	1.31
718.489	9.31
718.515	26.31
718.541	27.31
718.568	7.31
718.594	3.31
718.621	13.31
718.647	2.31
718.674	6.31
718.7	18.31
718.726	10.31
718.753	11.31
718.779	20.31
718.806	-5.69
718.832	7.31
718.858	6.31
718.885	-11.69
718.911	12.31
718.938	13.31
718.964	-1.69
718.99	6.31
719.017	-6.69
719.043	5.31
719.07	10.31
719.096	0.31
719.122	16.31
719.149	0.31
719.175	2.31
719.201	16.31
719.228	1.31
719.254	6.31
719.281	5.31
719.307	6.31
719.333	-7.69
719.36	14.31
719.386	-5.69
719.412	2.31
719.439	-15.69
719.465	0.31
719.491	12.31
719.518	1.31
719.544	-0.69
719.57	11.31
719.597	15.31
719.623	-8.69
719.649	6.31
719.675	-19.69
719.702	14.31
719.728	15.31
719.754	-5.69
719.781	6.31
719.807	-8.69
719.833	10.31
719.86	-5.69
719.886	-8.69
719.912	2.31
719.938	-7.69
719.965	-1.69
719.991	-0.69
720.017	-4.69
720.044	-8.69
720.07	7.31
720.096	0.31
720.122	-1.69
720.149	14.31
720.175	18.31
720.201	-3.69
720.227	10.31
720.254	5.31
720.28	-4.69
720.306	2.31
720.332	1.31
720.359	1.31
720.385	0.31
720.411	14.31
720.437	8.31
720.463	2.31
720.49	14.31
720.516	3.31
720.542	3.31
720.568	8.31
720.595	21.31
720.621	4.31
720.647	2.31
720.673	8.31
720.699	-14.69
720.725	3.31
720.752	25.31
720.778	18.31
720.804	10.31
720.83	-8.69
720.856	-0.69
720.883	-7.69
720.909	6.31
720.935	24.31
720.961	17.31
720.987	-11.69
721.013	-11.69
721.04	-6.69
721.066	5.31
721.092	2.31
721.118	13.31
721.144	5.31
721.17	-3.69
721.196	-1.69
721.223	-5.69
721.249	3.31
721.275	18.31
721.301	1.31
721.327	14.31
721.353	13.31
721.379	10.31
721.405	6.31
721.432	2.31
721.458	-13.69
721.484	4.31
721.51	-8.69
721.536	9.31
721.562	-0.69
721.588	-5.69
721.614	-15.69
721.64	4.31
721.666	7.31
721.693	-0.69
721.719	2.31
721.745	-16.69
721.771	-2.69
721.797	1.31
721.823	10.31
721.849	9.31
721.875	-4.69
721.901	5.31
721.927	4.31
721.953	5.31
721.979	19.31
722.005	7.31
722.031	-4.69
722.057	5.31
722.083	7.31
722.109	1.31
722.135	0.31
722.161	7.31
722.187	-1.69
722.214	3.31
722.24	7.31
722.266	-6.69
722.292	22.31
722.318	22.31
722.344	4.31
722.37	23.31
722.396	15.31
722.422	-5.69
722.448	2.31
722.474	-15.69
722.5	18.31
722.526	0.31
722.552	-4.69
722.578	5.31
722.603	24.31
722.629	5.31
722.655	1.31
722.681	6.31
722.707	10.31
722.733	-5.69
722.759	0.31
722.785	-8.69
722.811	21.31
722.837	1.31
722.863	-7.69
722.889	15.31
722.915	9.31
722.941	12.31
722.967	17.31
722.993	16.31
723.019	15.31
723.045	14.31
723.071	8.31
723.097	-5.69
723.122	-9.69
723.148	-1.69
723.174	7.31
723.2	20.31
723.226	-4.69
723.252	-1.69
723.278	-12.69
723.304	2.31
723.33	1.31
723.356	-1.69
723.381	-4.69
723.407	-7.69
723.433	8.31
723.459	-8.69
723.485	-3.69
723.511	11.31
723.537	-6.69
723.563	-4.69
723.588	0.31
723.614	5.31
723.64	13.31
723.666	-1.69
723.692	9.31
723.718	11.31
723.744	17.31
723.769	-4.69
723.795	2.31
723.821	10.31
723.847	-5.69
723.873	1.31
723.899	11.31
723.924	13.31
723.95	-9.69
723.976	-10.69
724.002	3.31
724.028	-0.69
724.053	-0.69
724.079	-0.69
724.105	-1.69
724.131	2.31
724.157	0.31
724.182	13.31
724.208	3.31
724.234	13.31
724.26	3.31
724.286	15.31
724.311	0.31
724.337	-8.69
724.363	-12.69
724.389	4.31
724.415	9.31
724.44	15.31
724.466	6.31
724.492	12.31
724.518	9.31
724.543	4.31
724.569	15.31
724.595	13.31
724.621	4.31
724.646	-2.69
724.672	-6.69
724.698	-9.69
724.723	16.31
724.749	-5.69
724.775	-8.69
724.801	0.31
724.826	-18.69
724.852	7.31
724.878	-5.69
724.904	-16.69
724.929	-2.69
724.955	-5.69
724.981	-1.69
725.006	8.31
725.032	-10.69
725.058	9.31
725.083	1.31
725.109	11.31
725.135	10.31
725.161	8.31
725.186	11.31
725.212	2.31
725.238	3.31
725.263	3.31
725.289	-9.69
725.315	-21.69
725.34	-3.69
725.366	19.31
725.392	-0.69
725.417	0.31
725.443	5.31
725.468	2.31
725.494	4.31
725.52	12.31
725.545	-0.69
725.571	-1.69
725.597	15.31
725.622	19.31
725.648	4.31
725.674	18.31
725.699	1.31
725.725	-2.69
725.75	33.31
725.776	3.31
725.802	2.31
725.827	8.31
725.853	8.31
725.878	3.31
725.904	-1.69
725.93	3.31
725.955	-5.69
725.981	-1.69
726.006	3.31
726.032	27.31
726.057	7.31
726.083	-3.69
726.109	-3.69
726.134	4.31
726.16	1.31
726.185	-2.69
726.211	-5.69
726.236	-0.69
726.262	-3.69
726.288	14.31
726.313	11.31
726.339	1.31
726.364	4.31
726.39	-0.69
726.415	7.31
726.441	-1.69
726.466	-13.69
726.492	10.31
726.517	16.31
726.543	1.31
726.568	-15.69
726.594	-1.69
726.619	16.31
726.645	22.31
726.67	2.31
726.696	0.31
726.721	-5.69
726.747	-1.69
726.772	12.31
726.798	10.31
726.823	3.31
726.849	-8.69
726.874	12.31
726.9	27.31
726.925	17.31
726.951	7.31
726.976	-3.69
727.002	-1.69
727.027	-1.69
727.053	20.31
727.078	4.31
727.104	13.31
727.129	10.31
727.155	-5.69
727.18	-4.69
727.205	4.31
727.231	-8.69
727.256	7.31
727.282	-5.69
727.307	7.31
727.333	7.31
727.358	-9.69
727.383	2.31
727.409	-10.69
727.434	1.31
727.46	7.31
727.485	1.31
727.511	4.31
727.536	-3.69
727.561	-4.69
727.587	-0.69
727.612	-3.69
727.637	-18.69
727.663	-1.69
727.688	8.31
727.714	5.31
727.739	-9.69
727.764	-21.69
727.79	9.31
727.815	18.31
727.841	-2.69
727.866	1.31
727.891	12.31
727.917	-20.69
727.942	-9.69
727.967	-3.69
727.993	-2.69
728.018	7.31
728.043	-6.69
728.069	33.31
728.094	9.31
728.119	-0.69
728.145	24.31
728.17	7.31
728.195	4.31
728.221	13.31
728.246	2.31
728.271	-27.69
728.297	-6.69
728.322	1.31
728.347	5.31
728.373	6.31
728.398	19.31
728.423	-6.69
728.448	12.31
728.474	12.31
728.499	15.31
728.524	-8.69
728.55	-10.69
728.575	3.31
728.6	-5.69
728.625	0.31
728.651	5.31
728.676	-3.69
728.701	-0.69
728.727	10.31
728.752	-7.69
728.777	-4.69
728.802	10.31
728.828	0.31
728.853	6.31
728.878	-13.69
728.903	-9.69
728.929	16.31
728.954	-0.69
728.979	7.31
729.004	-4.69
729.03	-3.69
729.055	10.31
729.08	-5.69
729.105	-10.69
729.13	20.31
729.156	0.31
729.181	6.31
729.206	-6.69
729.231	-5.69
729.256	3.31
729.282	12.31
729.307	-8.69
729.332	-5.69
729.357	-6.69
729.382	-6.69
729.408	3.31
729.433	10.31
729.458	14.31
729.483	17.31
729.508	26.31
729.533	11.31
729.559	3.31
729.584	-10.69
729.609	-1.69
729.634	9.31
729.659	-2.69
729.684	0.31
729.71	26.31
729.735	0.31
729.76	0.31
729.785	13.31
729.81	14.31
729.835	2.31
729.86	4.31
729.886	13.31
729.911	10.31
729.936	-7.69
729.961	14.31
729.986	12.31
730.011	63.31
730.036	198.31
730.061	1006.31
730.086	2678.31
730.112	3350.31
730.137	2812.31
730.162	2099.31
730.187	1640.31
730.212	1247.31
730.237	806.31
730.262	447.31
730.287	230.31
730.312	135.31
730.337	72.31
730.362	71.31
730.387	38.31
730.413	18.31
730.438	3.31
730.463	16.31
730.488	5.31
730.513	-2.69
730.538	6.31
730.563	22.31
730.588	9.31
730.613	16.31
730.638	1.31
730.663	-0.69
730.688	13.31
730.713	24.31
730.738	-1.69
730.763	10.31
730.788	4.31
730.813	16.31
730.838	7.31
730.863	-3.69
730.888	9.31
730.913	4.31
730.938	-1.69
730.963	31.31
730.988	128.31
731.013	403.31
731.038	603.31
731.063	587.31
731.088	478.31
731.113	356.31
731.138	271.31
731.163	199.31
731.188	99.31
731.213	67.31
731.238	50.31
731.263	15.31
731.288	9.31
731.313	19.31
731.338	8.31
731.363	2.31
731.388	15.31
731.413	0.31
731.438	16.31
731.463	14.31
731.487	8.31
731.512	-7.69
731.537	-7.69
731.562	-1.69
731.587	12.31
731.612	-5.69
731.637	3.31
731.662	5.31
731.687	-8.69
731.712	-1.69
731.737	1.31
731.762	-8.69
731.786	0.31
731.811	18.31
731.836	-3.69
731.861	-8.69
731.886	0.31
731.911	11.31
731.936	17.31
731.961	-3.69
731.986	-12.69
732.01	4.31
732.035	9.31
732.06	22.31
732.085	4.31
732.11	3.31
732.135	-21.69
732.16	-6.69
732.184	-1.69
732.209	7.31
732.234	14.31
732.259	-1.69
732.284	10.31
732.309	-13.69
732.334	1.31
732.358	-20.69
732.383	-6.69
732.408	-0.69
732.433	11.31
732.458	4.31
732.482	5.31
732.507	10.31
732.532	3.31
732.557	27.31
732.582	3.31
732.607	23.31
732.631	43.31
732.656	96.31
732.681	146.31
732.706	330.31
732.73	450.31
732.755	399.31
732.78	292.31
732.805	238.31
732.83	193.31
732.854	117.31
732.879	76.31
732.904	40.31
732.929	34.31
732.953	6.31
732.978	22.31
733.003	5.31
733.028	-4.69
733.052	0.31
733.077	9.31
733.102	11.31
733.127	12.31
733.151	2.31
733.176	18.31
733.201	-0.69
733.226	-5.69
733.25	-7.69
733.275	-3.69
733.3	7.31
733.324	17.31
733.349	3.31
733.374	19.31
733.399	-6.69
733.423	15.31
733.448	3.31
733.473	-6.69
733.497	10.31
733.522	-1.69
733.547	17.31
733.571	18.31
733.596	-10.69
733.621	-3.69
733.646	6.31
733.67	5.31
733.695	3.31
733.72	12.31
733.744	16.31
733.769	7.31
733.794	2.31
733.818	-0.69
733.843	11.31
733.867	10.31
733.892	-5.69
733.917	-6.69
733.941	15.31
733.966	-1.69
733.991	-9.69
734.015	-0.69
734.04	3.31
734.065	6.31
734.089	27.31
734.114	3.31
734.138	8.31
734.163	-11.69
734.188	-6.69
734.212	5.31
734.237	13.31
734.261	-1.69
734.286	-4.69
734.311	-12.69
734.335	-1.69
734.36	1.31
734.384	6.31
734.409	-5.69
734.434	-16.69
734.458	-7.69
734.483	1.31
734.507	-14.69
734.532	-4.69
734.556	-14.69
734.581	-11.69
734.606	2.31
734.63	-6.69
734.655	1.31
734.679	-4.69
734.704	0.31
734.728	4.31
734.753	-1.69
734.777	-3.69
734.802	0.31
734.826	3.31
734.851	8.31
734.876	11.31
734.9	12.31
734.925	10.31
734.949	4.31
734.974	6.31
734.998	15.31
735.023	-9.69
735.047	-12.69
735.072	18.31
735.096	4.31
735.121	10.31
735.145	5.31
735.17	-19.69
735.194	15.31
735.219	11.31
735.243	0.31
735.268	8.31
735.292	9.31
735.317	14.31
735.341	21.31
735.365	-7.69
735.39	1.31
735.414	16.31
735.439	3.31
735.463	14.31
735.488	6.31
735.512	1.31
735.537	-0.69
735.561	-1.69
735.586	7.31
735.61	-3.69
735.634	-11.69
735.659	2.31
735.683	8.31
735.708	-3.69
735.732	-5.69
735.757	1.31
735.781	4.31
735.805	11.31
735.83	-7.69
735.854	-10.69
735.879	-3.69
735.903	7.31
735.927	9.31
735.952	5.31
735.976	-17.69
736.001	2.31
736.025	-6.69
736.049	18.31
736.074	1.31
736.098	2.31
736.123	-3.69
736.147	2.31
736.171	0.31
736.196	1.31
736.22	-1.69
736.244	6.31
736.269	-6.69
736.293	21.31
736.317	-0.69
736.342	2.31
736.366	10.31
736.39	13.31
736.415	12.31
736.439	6.31
736.463	19.31
736.488	2.31
736.512	-2.69
736.536	8.31
736.561	21.31
736.585	5.31
736.609	4.31
736.634	17.31
736.658	17.31
736.682	-4.69
736.707	-11.69
736.731	6.31
736.755	20.31
736.78	19.31
736.804	27.31
736.828	-0.69
736.852	-10.69
736.877	10.31
736.901	11.31
736.925	19.31
736.949	21.31
736.974	-8.69
736.998	-16.69
737.022	11.31
737.047	10.31
737.071	-2.69
737.095	25.31
737.119	26.31
737.144	18.31
737.168	-12.69
737.192	-1.69
737.216	6.31
737.241	-10.69
737.265	9.31
737.289	10.31
737.313	-0.69
737.337	8.31
737.362	10.31
737.386	6.31
737.41	-12.69
737.434	8.31
737.459	2.31
737.483	-4.69
737.507	-1.69
737.531	0.31
737.555	2.31
737.58	20.31
737.604	15.31
737.628	-5.69
737.652	0.31
737.676	-0.69
737.701	9.31
737.725	4.31
737.749	15.31
737.773	7.31
737.797	10.31
737.821	11.31
737.846	-12.69
737.87	32.31
737.894	-3.69
737.918	2.31
737.942	3.31
737.966	31.31
737.99	12.31
738.015	9.31
738.039	-5.69
738.063	1.31
738.087	6.31
738.111	7.31
738.135	8.31
738.159	3.31
738.184	7.31
738.208	15.31
738.232	13.31
738.256	26.31
738.28	-0.69
738.304	15.31
738.328	-5.69
738.352	-8.69
738.376	7.31
738.4	5.31
738.425	0.31
738.449	0.31
738.473	19.31
738.497	14.31
738.521	-0.69
738.545	6.31
738.569	6.31
738.593	23.31
738.617	10.31
738.641	-2.69
738.665	-2.69
738.689	0.31
738.713	3.31
738.737	3.31
738.762	5.31
738.786	-6.69
738.81	-12.69
738.834	9.31
738.858	-3.69
738.882	-2.69
738.906	-1.69
738.93	-1.69
738.954	-5.69
738.978	2.31
739.002	-10.69
739.026	3.31
739.05	-9.69
739.074	-6.69
739.098	18.31
739.122	7.31
739.146	10.31
739.17	27.31
739.194	5.31
739.218	2.31
739.242	-1.69
739.266	-8.69
739.29	22.31
739.314	3.31
739.338	1.31
739.362	-4.69
739.386	-0.69
739.41	-3.69
739.434	-0.69
739.458	14.31
739.482	18.31
739.506	10.31
739.53	-11.69
739.554	5.31
739.577	-14.69
739.601	3.31
739.625	2.31
739.649	2.31
739.673	-6.69
739.697	3.31
739.721	-4.69
739.745	21.31
739.769	6.31
739.793	-4.69
739.817	10.31
739.841	-8.69
739.865	6.31
739.889	-2.69
739.912	4.31
739.936	-11.69
739.96	-1.69
739.984	14.31
740.008	8.31
740.032	7.31
740.056	10.31
740.08	0.31
740.104	-3.69
740.127	3.31
740.151	-1.69
740.175	1.31
740.199	11.31
740.223	30.31
740.247	-4.69
740.271	0.31
740.295	7.31
740.318	-23.69
740.342	8.31
740.366	10.31
740.39	8.31
740.414	0.31
740.438	1.31
740.461	11.31
740.485	9.31
740.509	7.31
740.533	-1.69
740.557	-16.69
740.581	-2.69
740.604	-9.69
740.628	6.31
740.652	14.31
740.676	1.31
740.7	1.31
740.723	-7.69
740.747	-0.69
740.771	2.31
740.795	-6.69
740.819	12.31
740.842	19.31
740.866	13.31
740.89	10.31
740.914	8.31
740.938	-13.69
740.961	17.31
740.985	3.31
741.009	-3.69
741.033	8.31
741.056	-1.69
741.08	9.31
741.104	3.31
741.128	0.31
741.151	0.31
741.175	-4.69
741.199	15.31
741.223	7.31
741.246	-5.69
741.27	6.31
741.294	12.31
741.318	8.31
741.341	-5.69
741.365	-1.69
741.389	9.31
741.413	1.31
741.436	4.31
741.46	4.31
741.484	14.31
741.507	18.31
741.531	19.31
741.555	12.31
741.579	3.31
741.602	0.31
741.626	8.31
741.65	-0.69
741.673	0.31
741.697	19.31
741.721	7.31
741.744	-0.69
741.768	-4.69
741.792	1.31
741.815	-6.69
741.839	7.31
741.863	22.31
741.886	21.31
741.91	11.31
741.934	-4.69
741.957	-7.69
741.981	14.31
742.005	1.31
742.028	-7.69
742.052	-11.69
742.075	14.31
742.099	20.31
742.123	8.31
742.146	8.31
742.17	1.31
742.194	-4.69
742.217	-6.69
742.241	4.31
742.264	3.31
742.288	26.31
742.312	12.31
742.335	-0.69
742.359	-0.69
742.382	6.31
742.406	23.31
742.43	-12.69
742.453	11.31
742.477	-15.69
742.5	-0.69
742.524	-11.69
742.548	-3.69
742.571	-9.69
742.595	11.31
742.618	0.31
742.642	3.31
742.665	20.31
742.689	-13.69
742.712	16.31
742.736	-4.69
742.76	14.31
742.783	5.31
742.807	10.31
742.83	8.31
742.854	-0.69
742.877	5.31
742.901	-1.69
742.924	-0.69
742.948	5.31
742.971	6.31
742.995	13.31
743.018	-9.69
743.042	-5.69
743.065	-15.69
743.089	-8.69
743.112	-9.69
743.136	-8.69
743.159	-3.69
743.183	5.31
743.206	-5.69
743.23	-8.69
743.253	-5.69
743.277	13.31
743.3	-5.69
743.324	-5.69
743.347	-3.69
743.371	30.31
743.394	13.31
743.418	12.31
743.441	-0.69
743.465	0.31
743.488	11.31
743.512	2.31
743.535	6.31
743.558	5.31
743.582	3.31
743.605	10.31
743.629	-1.69
743.652	9.31
743.676	6.31
743.699	18.31
743.723	-0.69
743.746	5.31
743.769	-7.69
743.793	7.31
743.816	1.31
743.84	19.31
743.863	0.31
743.886	9.31
743.91	12.31
743.933	14.31
743.957	-1.69
743.98	-1.69
744.003	11.31
744.027	8.31
744.05	8.31
744.074	10.31
744.097	-16.69
744.12	9.31
744.144	-0.69
744.167	20.31
744.19	4.31
744.214	2.31
744.237	-4.69
744.26	7.31
744.284	-2.69
744.307	-29.69
744.331	-8.69
744.354	-6.69
744.377	-1.69
744.401	0.31
744.424	-4.69
744.447	-13.69
744.471	-8.69
