Data from HighRes_mercury_15_13_11_07_2024_HR4C61891__21__15-14-25-286.txt Node

Date: Thu Nov 07 15:14:25 EST 2024
User: crc00042
Spectrometer: HR4C6189
Trigger mode: 4
Integration Time (sec): 1.000000E-1
Scans to average: 1
Electric dark correction enabled: true
Nonlinearity correction enabled: false
Boxcar width: 0
XAxis mode: Wavelengths
Number of Pixels in Spectrum: 3648
>>>>>Begin Spectral Data<<<<<
639.567	-54.08
639.602	-54.08
639.636	-54.08
639.67	-53.08
639.704	-21.08
639.738	0.92
639.773	-14.08
639.807	-18.08
639.841	-11.08
639.875	11.92
639.909	8.92
639.943	-2.08
639.978	0.92
640.012	0.92
640.046	28.92
640.08	0.92
640.114	-0.08
640.148	-8.08
640.182	-11.08
640.217	-4.08
640.251	3.92
640.285	-17.08
640.319	-17.08
640.353	8.92
640.387	-2.08
640.421	-17.08
640.455	-6.08
640.49	-6.08
640.524	1.92
640.558	10.92
640.592	1.92
640.626	-0.08
640.66	10.92
640.694	-1.08
640.728	3.92
640.762	-2.08
640.796	7.92
640.83	-0.08
640.865	1.92
640.899	2.92
640.933	6.92
640.967	3.92
641.001	-0.08
641.035	2.92
641.069	2.92
641.103	-11.08
641.137	-7.08
641.171	-6.08
641.205	16.92
641.239	-10.08
641.273	19.92
641.307	0.92
641.341	-5.08
641.375	-0.08
641.409	7.92
641.443	-0.08
641.477	-4.08
641.511	19.92
641.545	9.92
641.579	1.92
641.614	0.92
641.648	9.92
641.682	-18.08
641.716	1.92
641.75	-0.08
641.784	-1.08
641.818	-3.08
641.852	-1.08
641.886	-3.08
641.919	25.92
641.953	7.92
641.987	-8.08
642.021	12.92
642.055	24.92
642.089	16.92
642.123	-7.08
642.157	0.92
642.191	-9.08
642.225	2.92
642.259	-8.08
642.293	-1.08
642.327	1.92
642.361	-14.08
642.395	-2.08
642.429	3.92
642.463	9.92
642.497	11.92
642.531	-4.08
642.565	8.92
642.599	18.92
642.633	-9.08
642.666	-8.08
642.7	5.92
642.734	11.92
642.768	-29.08
642.802	-0.08
642.836	-1.08
642.87	-5.08
642.904	5.92
642.938	5.92
642.972	1.92
643.005	-3.08
643.039	0.92
643.073	1.92
643.107	-0.08
643.141	7.92
643.175	9.92
643.209	14.92
643.243	4.92
643.276	0.92
643.31	-4.08
643.344	-2.08
643.378	-7.08
643.412	11.92
643.446	1.92
643.48	-2.08
643.513	8.92
643.547	-7.08
643.581	-15.08
643.615	2.92
643.649	-0.08
643.683	7.92
643.716	-7.08
643.75	13.92
643.784	-6.08
643.818	1.92
643.852	7.92
643.886	-8.08
643.919	7.92
643.953	-5.08
643.987	-8.08
644.021	-1.08
644.055	6.92
644.088	6.92
644.122	-8.08
644.156	-3.08
644.19	-4.08
644.224	-9.08
644.257	2.92
644.291	14.92
644.325	-5.08
644.359	-7.08
644.392	20.92
644.426	11.92
644.46	12.92
644.494	20.92
644.527	-7.08
644.561	-14.08
644.595	-15.08
644.629	5.92
644.662	-1.08
644.696	21.92
644.73	13.92
644.764	15.92
644.797	1.92
644.831	11.92
644.865	9.92
644.899	2.92
644.932	16.92
644.966	3.92
645	13.92
645.033	-5.08
645.067	-0.08
645.101	16.92
645.135	3.92
645.168	-19.08
645.202	-2.08
645.236	-9.08
645.269	5.92
645.303	0.92
645.337	-5.08
645.37	-11.08
645.404	-7.08
645.438	-9.08
645.471	5.92
645.505	1.92
645.539	7.92
645.572	-5.08
645.606	-13.08
645.64	-2.08
645.673	16.92
645.707	24.92
645.741	-4.08
645.774	-4.08
645.808	5.92
645.842	-3.08
645.875	-0.08
645.909	-3.08
645.943	-8.08
645.976	2.92
646.01	2.92
646.043	16.92
646.077	10.92
646.111	-4.08
646.144	9.92
646.178	12.92
646.212	-18.08
646.245	-13.08
646.279	-1.08
646.312	8.92
646.346	3.92
646.38	-13.08
646.413	-4.08
646.447	4.92
646.48	-2.08
646.514	14.92
646.547	-0.08
646.581	-8.08
646.615	-6.08
646.648	-1.08
646.682	0.92
646.715	11.92
646.749	12.92
646.782	5.92
646.816	-6.08
646.85	3.92
646.883	-3.08
646.917	-4.08
646.95	7.92
646.984	-7.08
647.017	-9.08
647.051	0.92
647.084	7.92
647.118	-12.08
647.151	-13.08
647.185	4.92
647.218	-7.08
647.252	-16.08
647.285	-17.08
647.319	-11.08
647.353	-4.08
647.386	7.92
647.42	1.92
647.453	-0.08
647.487	7.92
647.52	4.92
647.553	7.92
647.587	5.92
647.62	-7.08
647.654	1.92
647.687	5.92
647.721	0.92
647.754	-1.08
647.788	8.92
647.821	-24.08
647.855	3.92
647.888	9.92
647.922	12.92
647.955	6.92
647.989	4.92
648.022	3.92
648.055	8.92
648.089	2.92
648.122	25.92
648.156	-7.08
648.189	-0.08
648.223	20.92
648.256	7.92
648.29	9.92
648.323	-3.08
648.356	6.92
648.39	11.92
648.423	11.92
648.457	-9.08
648.49	19.92
648.523	8.92
648.557	-4.08
648.59	-4.08
648.624	-7.08
648.657	-0.08
648.69	23.92
648.724	8.92
648.757	15.92
648.791	11.92
648.824	9.92
648.857	19.92
648.891	6.92
648.924	7.92
648.957	22.92
648.991	-20.08
649.024	7.92
649.057	-13.08
649.091	-12.08
649.124	-1.08
649.158	19.92
649.191	18.92
649.224	9.92
649.258	8.92
649.291	7.92
649.324	3.92
649.358	-4.08
649.391	3.92
649.424	1.92
649.458	-4.08
649.491	-0.08
649.524	-9.08
649.557	-18.08
649.591	-16.08
649.624	8.92
649.657	-4.08
649.691	-6.08
649.724	-10.08
649.757	7.92
649.791	0.92
649.824	13.92
649.857	3.92
649.89	-1.08
649.924	-12.08
649.957	0.92
649.99	-11.08
650.023	-5.08
650.057	22.92
650.09	-0.08
650.123	10.92
650.157	18.92
650.19	7.92
650.223	1.92
650.256	-14.08
650.29	0.92
650.323	6.92
650.356	3.92
650.389	-4.08
650.423	8.92
650.456	-8.08
650.489	15.92
650.522	-3.08
650.555	16.92
650.589	19.92
650.622	4.92
650.655	21.92
650.688	21.92
650.721	0.92
650.755	1.92
650.788	4.92
650.821	0.92
650.854	1.92
650.887	4.92
650.921	-1.08
650.954	13.92
650.987	0.92
651.02	-7.08
651.053	0.92
651.087	-15.08
651.12	2.92
651.153	1.92
651.186	-4.08
651.219	-20.08
651.252	-2.08
651.286	-4.08
651.319	-2.08
651.352	-10.08
651.385	-9.08
651.418	-3.08
651.451	15.92
651.484	7.92
651.518	-3.08
651.551	20.92
651.584	-0.08
651.617	5.92
651.65	2.92
651.683	1.92
651.716	6.92
651.749	-0.08
651.783	-10.08
651.816	-5.08
651.849	-0.08
651.882	-1.08
651.915	-15.08
651.948	-0.08
651.981	-2.08
652.014	-10.08
652.047	-11.08
652.08	-9.08
652.114	-3.08
652.147	-20.08
652.18	3.92
652.213	29.92
652.246	12.92
652.279	-5.08
652.312	7.92
652.345	-6.08
652.378	-5.08
652.411	15.92
652.444	7.92
652.477	1.92
652.51	-9.08
652.543	-5.08
652.576	4.92
652.609	-10.08
652.642	-5.08
652.675	11.92
652.709	3.92
652.742	11.92
652.775	-0.08
652.808	0.92
652.841	2.92
652.874	2.92
652.907	4.92
652.94	-19.08
652.973	-12.08
653.006	8.92
653.039	2.92
653.072	14.92
653.105	-7.08
653.138	-19.08
653.171	4.92
653.204	2.92
653.237	-4.08
653.27	-9.08
653.303	8.92
653.336	17.92
653.368	-22.08
653.401	5.92
653.434	-7.08
653.467	-12.08
653.5	-21.08
653.533	-14.08
653.566	-0.08
653.599	4.92
653.632	17.92
653.665	2.92
653.698	-13.08
653.731	-14.08
653.764	0.92
653.797	0.92
653.83	4.92
653.863	-1.08
653.896	-10.08
653.929	-0.08
653.961	7.92
653.994	5.92
654.027	-22.08
654.06	-3.08
654.093	8.92
654.126	-3.08
654.159	-16.08
654.192	-1.08
654.225	17.92
654.258	3.92
654.29	-11.08
654.323	1.92
654.356	-7.08
654.389	12.92
654.422	-2.08
654.455	9.92
654.488	9.92
654.521	-8.08
654.553	-1.08
654.586	19.92
654.619	4.92
654.652	-3.08
654.685	-3.08
654.718	8.92
654.751	2.92
654.783	-14.08
654.816	19.92
654.849	-8.08
654.882	-13.08
654.915	-16.08
654.948	2.92
654.98	-4.08
655.013	-6.08
655.046	-12.08
655.079	-9.08
655.112	-14.08
655.144	-19.08
655.177	7.92
655.21	19.92
655.243	12.92
655.276	14.92
655.308	5.92
655.341	-25.08
655.374	7.92
655.407	-16.08
655.44	-2.08
655.472	9.92
655.505	6.92
655.538	-9.08
655.571	2.92
655.603	8.92
655.636	-4.08
655.669	-4.08
655.702	-9.08
655.734	-18.08
655.767	-8.08
655.8	-2.08
655.833	-6.08
655.865	3.92
655.898	1.92
655.931	-1.08
655.964	10.92
655.996	-14.08
656.029	-3.08
656.062	-0.08
656.095	-11.08
656.127	-14.08
656.16	-2.08
656.193	2.92
656.225	2.92
656.258	-15.08
656.291	-7.08
656.324	-4.08
656.356	-1.08
656.389	-5.08
656.422	6.92
656.454	15.92
656.487	3.92
656.52	3.92
656.552	-14.08
656.585	6.92
656.618	1.92
656.65	4.92
656.683	-20.08
656.716	-6.08
656.748	-5.08
656.781	-6.08
656.814	-5.08
656.846	4.92
656.879	0.92
656.912	-8.08
656.944	-19.08
656.977	1.92
657.01	-11.08
657.042	18.92
657.075	6.92
657.108	-7.08
657.14	-1.08
657.173	5.92
657.205	24.92
657.238	14.92
657.271	-0.08
657.303	-3.08
657.336	-6.08
657.369	-1.08
657.401	-11.08
657.434	3.92
657.466	8.92
657.499	2.92
657.532	-11.08
657.564	8.92
657.597	-2.08
657.629	3.92
657.662	-4.08
657.694	-1.08
657.727	-6.08
657.76	3.92
657.792	2.92
657.825	1.92
657.857	-4.08
657.89	-19.08
657.922	-7.08
657.955	1.92
657.987	15.92
658.02	25.92
658.053	4.92
658.085	-18.08
658.118	9.92
658.15	-2.08
658.183	11.92
658.215	17.92
658.248	0.92
658.28	-8.08
658.313	1.92
658.345	-3.08
658.378	8.92
658.41	-12.08
658.443	1.92
658.475	6.92
658.508	2.92
658.54	-1.08
658.573	-6.08
658.605	5.92
658.638	0.92
658.67	-0.08
658.703	13.92
658.735	-6.08
658.768	6.92
658.8	-12.08
658.833	13.92
658.865	-2.08
658.898	-7.08
658.93	-17.08
658.963	-3.08
658.995	-8.08
659.028	8.92
659.06	3.92
659.092	-8.08
659.125	-1.08
659.157	0.92
659.19	-7.08
659.222	13.92
659.255	27.92
659.287	3.92
659.32	-6.08
659.352	21.92
659.384	8.92
659.417	-9.08
659.449	4.92
659.482	-4.08
659.514	-3.08
659.546	0.92
659.579	-6.08
659.611	-0.08
659.644	-13.08
659.676	-3.08
659.708	-23.08
659.741	-14.08
659.773	5.92
659.806	7.92
659.838	-1.08
659.87	17.92
659.903	-12.08
659.935	-0.08
659.967	1.92
660	-1.08
660.032	-21.08
660.065	23.92
660.097	15.92
660.129	12.92
660.162	3.92
660.194	6.92
660.226	3.92
660.259	5.92
660.291	-1.08
660.323	-22.08
660.356	-6.08
660.388	-9.08
660.42	-1.08
660.453	-0.08
660.485	21.92
660.517	11.92
660.55	5.92
660.582	-14.08
660.614	8.92
660.647	0.92
660.679	-14.08
660.711	-4.08
660.743	-23.08
660.776	-16.08
660.808	11.92
660.84	-11.08
660.873	1.92
660.905	-1.08
660.937	1.92
660.969	1.92
661.002	1.92
661.034	7.92
661.066	-8.08
661.099	-1.08
661.131	-12.08
661.163	0.92
661.195	-0.08
661.228	20.92
661.26	-5.08
661.292	2.92
661.324	-0.08
661.357	13.92
661.389	16.92
661.421	24.92
661.453	-14.08
661.485	-6.08
661.518	-4.08
661.55	-10.08
661.582	-12.08
661.614	-3.08
661.647	-13.08
661.679	-5.08
661.711	-5.08
661.743	-11.08
661.775	0.92
661.808	14.92
661.84	-5.08
661.872	8.92
661.904	0.92
661.936	3.92
661.969	-9.08
662.001	-1.08
662.033	-6.08
662.065	-11.08
662.097	-0.08
662.129	22.92
662.162	-8.08
662.194	-0.08
662.226	-0.08
662.258	0.92
662.29	-5.08
662.322	-17.08
662.355	-12.08
662.387	8.92
662.419	11.92
662.451	6.92
662.483	17.92
662.515	-2.08
662.547	6.92
662.58	-18.08
662.612	-0.08
662.644	-23.08
662.676	-3.08
662.708	15.92
662.74	-6.08
662.772	-4.08
662.804	15.92
662.836	9.92
662.869	-0.08
662.901	-1.08
662.933	5.92
662.965	4.92
662.997	1.92
663.029	-14.08
663.061	-9.08
663.093	-15.08
663.125	3.92
663.157	2.92
663.189	23.92
663.221	7.92
663.254	4.92
663.286	10.92
663.318	2.92
663.35	4.92
663.382	-0.08
663.414	7.92
663.446	0.92
663.478	-26.08
663.51	21.92
663.542	2.92
663.574	0.92
663.606	-2.08
663.638	-30.08
663.67	-24.08
663.702	-17.08
663.734	-14.08
663.766	5.92
663.798	12.92
663.83	22.92
663.862	6.92
663.894	4.92
663.926	0.92
663.958	11.92
663.99	-3.08
664.022	-10.08
664.054	-2.08
664.086	-1.08
664.118	-16.08
664.15	-11.08
664.182	4.92
664.214	2.92
664.246	10.92
664.278	-9.08
664.31	18.92
664.342	6.92
664.374	-11.08
664.406	15.92
664.438	5.92
664.47	15.92
664.502	-14.08
664.534	7.92
664.566	-4.08
664.598	16.92
664.63	3.92
664.662	-4.08
664.693	-8.08
664.725	-12.08
664.757	-18.08
664.789	-2.08
664.821	-1.08
664.853	9.92
664.885	-1.08
664.917	-1.08
664.949	12.92
664.981	15.92
665.013	-16.08
665.045	-11.08
665.076	2.92
665.108	7.92
665.14	-11.08
665.172	10.92
665.204	-3.08
665.236	-1.08
665.268	1.92
665.3	14.92
665.331	-16.08
665.363	-5.08
665.395	-5.08
665.427	-16.08
665.459	11.92
665.491	-3.08
665.523	4.92
665.555	1.92
665.586	6.92
665.618	1.92
665.65	-16.08
665.682	11.92
665.714	16.92
665.746	-7.08
665.777	9.92
665.809	0.92
665.841	-6.08
665.873	-7.08
665.905	6.92
665.937	1.92
665.968	7.92
666	1.92
666.032	1.92
666.064	-13.08
666.096	-10.08
666.127	17.92
666.159	-1.08
666.191	8.92
666.223	-4.08
666.255	7.92
666.286	1.92
666.318	-1.08
666.35	6.92
666.382	0.92
666.413	1.92
666.445	-7.08
666.477	1.92
666.509	-12.08
666.54	-10.08
666.572	-0.08
666.604	0.92
666.636	-17.08
666.667	12.92
666.699	11.92
666.731	1.92
666.763	-12.08
666.794	1.92
666.826	10.92
666.858	-6.08
666.89	-7.08
666.921	9.92
666.953	-7.08
666.985	-2.08
667.017	19.92
667.048	-2.08
667.08	6.92
667.112	-4.08
667.143	-17.08
667.175	0.92
667.207	3.92
667.238	2.92
667.27	-3.08
667.302	-6.08
667.334	4.92
667.365	12.92
667.397	9.92
667.429	-12.08
667.46	14.92
667.492	6.92
667.524	6.92
667.555	-9.08
667.587	-0.08
667.619	-11.08
667.65	-24.08
667.682	13.92
667.714	11.92
667.745	19.92
667.777	8.92
667.808	0.92
667.84	-7.08
667.872	-14.08
667.903	6.92
667.935	-5.08
667.967	11.92
667.998	-13.08
668.03	-9.08
668.061	14.92
668.093	-5.08
668.125	0.92
668.156	2.92
668.188	8.92
668.22	-3.08
668.251	2.92
668.283	16.92
668.314	7.92
668.346	-4.08
668.377	12.92
668.409	6.92
668.441	19.92
668.472	8.92
668.504	-3.08
668.535	-2.08
668.567	14.92
668.599	-1.08
668.63	-4.08
668.662	-0.08
668.693	1.92
668.725	9.92
668.756	-0.08
668.788	-4.08
668.819	-0.08
668.851	-2.08
668.882	-9.08
668.914	-4.08
668.946	-9.08
668.977	0.92
669.009	-11.08
669.04	-17.08
669.072	2.92
669.103	2.92
669.135	-10.08
669.166	-0.08
669.198	8.92
669.229	-4.08
669.261	11.92
669.292	9.92
669.324	6.92
669.355	-1.08
669.387	-9.08
669.418	4.92
669.45	-20.08
669.481	-1.08
669.513	2.92
669.544	14.92
669.576	-1.08
669.607	6.92
669.639	5.92
669.67	-10.08
669.701	-9.08
669.733	-4.08
669.764	1.92
669.796	0.92
669.827	-18.08
669.859	-6.08
669.89	-0.08
669.922	7.92
669.953	21.92
669.985	4.92
670.016	6.92
670.047	-0.08
670.079	0.92
670.11	-5.08
670.142	13.92
670.173	-7.08
670.204	4.92
670.236	6.92
670.267	-20.08
670.299	9.92
670.33	-0.08
670.362	4.92
670.393	-11.08
670.424	-19.08
670.456	-15.08
670.487	0.92
670.518	15.92
670.55	2.92
670.581	-0.08
670.613	1.92
670.644	-1.08
670.675	-17.08
670.707	-4.08
670.738	-15.08
670.769	-6.08
670.801	-13.08
670.832	5.92
670.864	-4.08
670.895	-2.08
670.926	5.92
670.958	-3.08
670.989	-3.08
671.02	-0.08
671.052	-9.08
671.083	0.92
671.114	-12.08
671.146	11.92
671.177	-0.08
671.208	1.92
671.24	-9.08
671.271	-14.08
671.302	-2.08
671.333	-6.08
671.365	-18.08
671.396	-7.08
671.427	-2.08
671.459	1.92
671.49	-4.08
671.521	4.92
671.553	12.92
671.584	5.92
671.615	-6.08
671.646	-1.08
671.678	0.92
671.709	-10.08
671.74	-20.08
671.771	-3.08
671.803	-4.08
671.834	0.92
671.865	-11.08
671.896	-9.08
671.928	-4.08
671.959	-11.08
671.99	-3.08
672.021	-15.08
672.053	-11.08
672.084	3.92
672.115	11.92
672.146	-2.08
672.178	-31.08
672.209	-5.08
672.24	-8.08
672.271	6.92
672.303	3.92
672.334	1.92
672.365	-3.08
672.396	6.92
672.427	-3.08
672.459	-7.08
672.49	12.92
672.521	-10.08
672.552	4.92
672.583	7.92
672.615	-2.08
672.646	12.92
672.677	-8.08
672.708	-4.08
672.739	7.92
672.77	6.92
672.802	-2.08
672.833	-8.08
672.864	11.92
672.895	-6.08
672.926	6.92
672.957	-3.08
672.989	9.92
673.02	-18.08
673.051	-9.08
673.082	0.92
673.113	-8.08
673.144	13.92
673.175	-0.08
673.206	-0.08
673.238	-15.08
673.269	-0.08
673.3	-13.08
673.331	8.92
673.362	3.92
673.393	-0.08
673.424	13.92
673.455	9.92
673.487	8.92
673.518	4.92
673.549	-3.08
673.58	-11.08
673.611	-0.08
673.642	-10.08
673.673	-15.08
673.704	-10.08
673.735	-1.08
673.766	-8.08
673.797	3.92
673.828	5.92
673.86	-24.08
673.891	-11.08
673.922	-24.08
673.953	-4.08
673.984	6.92
674.015	3.92
674.046	-10.08
674.077	3.92
674.108	-6.08
674.139	-3.08
674.17	-17.08
674.201	-9.08
674.232	-3.08
674.263	1.92
674.294	0.92
674.325	-6.08
674.356	8.92
674.387	26.92
674.418	9.92
674.449	-7.08
674.48	-20.08
674.511	-10.08
674.542	-5.08
674.573	-29.08
674.604	-1.08
674.635	-14.08
674.666	-9.08
674.697	-16.08
674.728	-10.08
674.759	-1.08
674.79	-12.08
674.821	-20.08
674.852	-12.08
674.883	-19.08
674.914	-2.08
674.945	-0.08
674.976	-6.08
675.007	-14.08
675.038	-32.08
675.069	-19.08
675.1	3.92
675.131	8.92
675.162	-21.08
675.193	-0.08
675.224	-1.08
675.254	10.92
675.285	3.92
675.316	-3.08
675.347	2.92
675.378	-10.08
675.409	-17.08
675.44	14.92
675.471	-3.08
675.502	-3.08
675.533	0.92
675.564	-10.08
675.595	-5.08
675.625	12.92
675.656	5.92
675.687	5.92
675.718	-10.08
675.749	-15.08
675.78	-3.08
675.811	-3.08
675.842	9.92
675.873	-0.08
675.903	-10.08
675.934	-0.08
675.965	-25.08
675.996	-21.08
676.027	-6.08
676.058	-9.08
676.089	-25.08
676.119	10.92
676.15	3.92
676.181	6.92
676.212	-9.08
676.243	6.92
676.274	-11.08
676.304	7.92
676.335	-13.08
676.366	-3.08
676.397	-22.08
676.428	-9.08
676.459	-6.08
676.489	25.92
676.52	4.92
676.551	-5.08
676.582	-10.08
676.613	-9.08
676.643	-7.08
676.674	8.92
676.705	-1.08
676.736	-0.08
676.767	9.92
676.797	13.92
676.828	11.92
676.859	0.92
676.89	-20.08
676.92	2.92
676.951	4.92
676.982	-0.08
677.013	0.92
677.044	3.92
677.074	9.92
677.105	-18.08
677.136	14.92
677.167	-0.08
677.197	0.92
677.228	-1.08
677.259	-7.08
677.289	-6.08
677.32	-18.08
677.351	-6.08
677.382	-9.08
677.412	-13.08
677.443	-0.08
677.474	-2.08
677.505	-3.08
677.535	-5.08
677.566	-13.08
677.597	-6.08
677.627	-11.08
677.658	-1.08
677.689	-0.08
677.72	0.92
677.75	8.92
677.781	-9.08
677.812	-9.08
677.842	0.92
677.873	1.92
677.904	-10.08
677.934	-7.08
677.965	-8.08
677.996	-18.08
678.026	-7.08
678.057	3.92
678.088	-6.08
678.118	0.92
678.149	-8.08
678.18	-9.08
678.21	-2.08
678.241	3.92
678.272	-2.08
678.302	5.92
678.333	15.92
678.363	4.92
678.394	3.92
678.425	3.92
678.455	-3.08
678.486	-6.08
678.517	-11.08
678.547	2.92
678.578	-8.08
678.608	-12.08
678.639	0.92
678.67	-0.08
678.7	-34.08
678.731	-7.08
678.761	-2.08
678.792	0.92
678.823	7.92
678.853	4.92
678.884	-13.08
678.914	-7.08
678.945	-4.08
678.975	-0.08
679.006	5.92
679.037	-14.08
679.067	3.92
679.098	-5.08
679.128	5.92
679.159	-17.08
679.189	14.92
679.22	-12.08
679.25	1.92
679.281	-10.08
679.312	6.92
679.342	7.92
679.373	21.92
679.403	-8.08
679.434	7.92
679.464	-3.08
679.495	4.92
679.525	1.92
679.556	-14.08
679.586	-14.08
679.617	8.92
679.647	11.92
679.678	-6.08
679.708	2.92
679.739	1.92
679.769	-15.08
679.8	4.92
679.83	7.92
679.861	-7.08
679.891	-6.08
679.922	-20.08
679.952	2.92
679.983	7.92
680.013	7.92
680.044	-9.08
680.074	-7.08
680.105	6.92
680.135	-2.08
680.165	3.92
680.196	1.92
680.226	6.92
680.257	7.92
680.287	10.92
680.318	-3.08
680.348	-14.08
680.379	16.92
680.409	-6.08
680.439	0.92
680.47	-10.08
680.5	-0.08
680.531	1.92
680.561	12.92
680.592	2.92
680.622	-7.08
680.652	5.92
680.683	16.92
680.713	4.92
680.744	-0.08
680.774	-3.08
680.804	24.92
680.835	0.92
680.865	-12.08
680.896	1.92
680.926	15.92
680.956	-3.08
680.987	-3.08
681.017	-8.08
681.047	-0.08
681.078	-13.08
681.108	-0.08
681.139	2.92
681.169	-15.08
681.199	-2.08
681.23	-0.08
681.26	-8.08
681.29	12.92
681.321	-10.08
681.351	-4.08
681.381	-5.08
681.412	9.92
681.442	5.92
681.472	-3.08
681.503	-8.08
681.533	9.92
681.563	8.92
681.594	-11.08
681.624	12.92
681.654	-7.08
681.685	2.92
681.715	-10.08
681.745	1.92
681.775	-14.08
681.806	-2.08
681.836	-0.08
681.866	-9.08
681.897	-2.08
681.927	-7.08
681.957	-21.08
681.987	-8.08
682.018	-4.08
682.048	10.92
682.078	12.92
682.109	12.92
682.139	15.92
682.169	2.92
682.199	-17.08
682.23	-17.08
682.26	-0.08
682.29	-5.08
682.32	-10.08
682.351	11.92
682.381	-12.08
682.411	-0.08
682.441	-5.08
682.472	-4.08
682.502	-3.08
682.532	1.92
682.562	-5.08
682.592	7.92
682.623	18.92
682.653	-7.08
682.683	-19.08
682.713	0.92
682.743	-12.08
682.774	-16.08
682.804	-8.08
682.834	-3.08
682.864	-2.08
682.894	1.92
682.925	3.92
682.955	16.92
682.985	-1.08
683.015	15.92
683.045	10.92
683.076	-20.08
683.106	-12.08
683.136	-0.08
683.166	-21.08
683.196	-23.08
683.226	-4.08
683.257	-12.08
683.287	-5.08
683.317	-2.08
683.347	-10.08
683.377	2.92
683.407	11.92
683.437	20.92
683.468	-2.08
683.498	-7.08
683.528	-2.08
683.558	-5.08
683.588	0.92
683.618	-7.08
683.648	-11.08
683.678	3.92
683.708	14.92
683.739	-4.08
683.769	-5.08
683.799	1.92
683.829	5.92
683.859	2.92
683.889	-0.08
683.919	-3.08
683.949	-3.08
683.979	-4.08
684.009	-5.08
684.039	-5.08
684.07	-9.08
684.1	1.92
684.13	-0.08
684.16	-3.08
684.19	-3.08
684.22	-7.08
684.25	3.92
684.28	-4.08
684.31	15.92
684.34	14.92
684.37	-7.08
684.4	-9.08
684.43	8.92
684.46	2.92
684.49	13.92
684.52	2.92
684.55	-1.08
684.58	-2.08
684.61	-8.08
684.64	10.92
684.67	1.92
684.7	-9.08
684.73	-9.08
684.76	-13.08
684.79	14.92
684.82	0.92
684.85	-9.08
684.88	-8.08
684.91	-6.08
684.94	-7.08
684.97	3.92
685	-18.08
685.03	-32.08
685.06	-2.08
685.09	-8.08
685.12	15.92
685.15	-6.08
685.18	-4.08
685.21	1.92
685.24	5.92
685.27	11.92
685.3	2.92
685.33	-4.08
685.36	-14.08
685.39	-3.08
685.42	-15.08
685.45	-1.08
685.48	-16.08
685.51	-13.08
685.54	2.92
685.569	9.92
685.599	5.92
685.629	2.92
685.659	5.92
685.689	-2.08
685.719	-4.08
685.749	1.92
685.779	0.92
685.809	1.92
685.839	6.92
685.869	23.92
685.898	9.92
685.928	-2.08
685.958	4.92
685.988	23.92
686.018	3.92
686.048	-8.08
686.078	-1.08
686.108	16.92
686.137	-0.08
686.167	19.92
686.197	-1.08
686.227	-4.08
686.257	20.92
686.287	9.92
686.317	1.92
686.346	5.92
686.376	-12.08
686.406	-12.08
686.436	5.92
686.466	-9.08
686.496	7.92
686.525	7.92
686.555	11.92
686.585	24.92
686.615	27.92
686.645	11.92
686.675	1.92
686.704	8.92
686.734	1.92
686.764	-17.08
686.794	-2.08
686.824	-3.08
686.853	9.92
686.883	17.92
686.913	6.92
686.943	-9.08
686.973	-20.08
687.002	-6.08
687.032	0.92
687.062	-2.08
687.092	27.92
687.121	-0.08
687.151	5.92
687.181	4.92
687.211	15.92
687.24	2.92
687.27	7.92
687.3	-3.08
687.33	-0.08
687.359	-18.08
687.389	-3.08
687.419	-2.08
687.449	-7.08
687.478	-0.08
687.508	-4.08
687.538	6.92
687.568	16.92
687.597	-16.08
687.627	-4.08
687.657	9.92
687.686	7.92
687.716	8.92
687.746	-13.08
687.776	-23.08
687.805	3.92
687.835	-10.08
687.865	21.92
687.894	7.92
687.924	0.92
687.954	-8.08
687.983	-2.08
688.013	-3.08
688.043	4.92
688.072	-0.08
688.102	17.92
688.132	-5.08
688.161	-7.08
688.191	-17.08
688.221	4.92
688.25	-12.08
688.28	8.92
688.31	-3.08
688.339	-7.08
688.369	-3.08
688.399	-2.08
688.428	-12.08
688.458	-0.08
688.488	0.92
688.517	7.92
688.547	8.92
688.576	43.92
688.606	2.92
688.636	-10.08
688.665	6.92
688.695	4.92
688.725	8.92
688.754	-2.08
688.784	-3.08
688.813	14.92
688.843	-6.08
688.873	10.92
688.902	0.92
688.932	1.92
688.961	6.92
688.991	3.92
689.02	6.92
689.05	0.92
689.08	-7.08
689.109	2.92
689.139	-1.08
689.168	-2.08
689.198	2.92
689.227	-2.08
689.257	2.92
689.287	3.92
689.316	1.92
689.346	-17.08
689.375	-6.08
689.405	2.92
689.434	-0.08
689.464	-0.08
689.493	-2.08
689.523	-5.08
689.552	-13.08
689.582	-5.08
689.611	-11.08
689.641	1.92
689.67	6.92
689.7	-10.08
689.73	12.92
689.759	10.92
689.789	9.92
689.818	-7.08
689.848	-4.08
689.877	6.92
689.906	-11.08
689.936	0.92
689.965	0.92
689.995	15.92
690.024	4.92
690.054	-6.08
690.083	17.92
690.113	8.92
690.142	-4.08
690.172	3.92
690.201	-0.08
690.231	0.92
690.26	11.92
690.29	-9.08
690.319	-0.08
690.348	9.92
690.378	4.92
690.407	2.92
690.437	-12.08
690.466	-8.08
690.496	-8.08
690.525	-1.08
690.555	-17.08
690.584	-16.08
690.613	-11.08
690.643	14.92
690.672	3.92
690.702	4.92
690.731	13.92
690.76	18.92
690.79	46.92
690.819	54.92
690.849	34.92
690.878	23.92
690.907	32.92
690.937	26.92
690.966	11.92
690.996	5.92
691.025	-1.08
691.054	7.92
691.084	1.92
691.113	-8.08
691.142	11.92
691.172	3.92
691.201	10.92
691.23	11.92
691.26	3.92
691.289	2.92
691.319	-5.08
691.348	8.92
691.377	19.92
691.407	-0.08
691.436	8.92
691.465	-1.08
691.495	-2.08
691.524	1.92
691.553	5.92
691.583	-0.08
691.612	9.92
691.641	6.92
691.67	-0.08
691.7	1.92
691.729	-9.08
691.758	8.92
691.788	5.92
691.817	9.92
691.846	13.92
691.876	-2.08
691.905	1.92
691.934	-2.08
691.963	7.92
691.993	19.92
692.022	-3.08
692.051	1.92
692.081	-2.08
692.11	12.92
692.139	6.92
692.168	12.92
692.198	17.92
692.227	10.92
692.256	3.92
692.285	-15.08
692.315	-5.08
692.344	22.92
692.373	4.92
692.402	-23.08
692.432	-19.08
692.461	-3.08
692.49	5.92
692.519	-1.08
692.548	11.92
692.578	13.92
692.607	6.92
692.636	-4.08
692.665	6.92
692.694	-4.08
692.724	12.92
692.753	-4.08
692.782	4.92
692.811	10.92
692.84	0.92
692.87	2.92
692.899	-4.08
692.928	2.92
692.957	5.92
692.986	0.92
693.016	22.92
693.045	12.92
693.074	11.92
693.103	0.92
693.132	9.92
693.161	7.92
693.191	-6.08
693.22	-17.08
693.249	-1.08
693.278	-2.08
693.307	4.92
693.336	-11.08
693.365	-20.08
693.395	-16.08
693.424	6.92
693.453	29.92
693.482	-0.08
693.511	3.92
693.54	-4.08
693.569	22.92
693.598	-1.08
693.628	13.92
693.657	15.92
693.686	21.92
693.715	12.92
693.744	20.92
693.773	20.92
693.802	9.92
693.831	-5.08
693.86	18.92
693.889	0.92
693.919	11.92
693.948	14.92
693.977	9.92
694.006	-14.08
694.035	1.92
694.064	-0.08
694.093	-5.08
694.122	-4.08
694.151	-15.08
694.18	0.92
694.209	14.92
694.238	1.92
694.267	30.92
694.296	17.92
694.325	-3.08
694.354	11.92
694.383	5.92
694.412	-3.08
694.441	-2.08
694.471	-9.08
694.5	-20.08
694.529	6.92
694.558	11.92
694.587	4.92
694.616	-0.08
694.645	-3.08
694.674	18.92
694.703	18.92
694.732	4.92
694.761	11.92
694.79	17.92
694.819	-13.08
694.848	-0.08
694.877	9.92
694.906	27.92
694.935	12.92
694.963	24.92
694.992	2.92
695.021	5.92
695.05	2.92
695.079	9.92
695.108	-8.08
695.137	14.92
695.166	-3.08
695.195	2.92
695.224	17.92
695.253	-2.08
695.282	-0.08
695.311	5.92
695.34	0.92
695.369	11.92
695.398	1.92
695.427	6.92
695.456	8.92
695.485	5.92
695.513	-1.08
695.542	-9.08
695.571	6.92
695.6	1.92
695.629	-0.08
695.658	-2.08
695.687	-8.08
695.716	-2.08
695.745	30.92
695.774	-8.08
695.802	7.92
695.831	-0.08
695.86	6.92
695.889	5.92
695.918	20.92
695.947	-7.08
695.976	5.92
696.005	7.92
696.033	-0.08
696.062	11.92
696.091	2.92
696.12	-4.08
696.149	8.92
696.178	1.92
696.207	-4.08
696.235	-8.08
696.264	-4.08
696.293	13.92
696.322	3.92
696.351	18.92
696.38	-1.08
696.408	0.92
696.437	7.92
696.466	18.92
696.495	17.92
696.524	1.92
696.553	13.92
696.581	3.92
696.61	1.92
696.639	-5.08
696.668	-1.08
696.697	5.92
696.725	12.92
696.754	0.92
696.783	-4.08
696.812	-11.08
696.84	11.92
696.869	8.92
696.898	-9.08
696.927	-4.08
696.956	19.92
696.984	-8.08
697.013	-0.08
697.042	-4.08
697.071	12.92
697.099	12.92
697.128	12.92
697.157	5.92
697.186	0.92
697.214	6.92
697.243	-2.08
697.272	-6.08
697.301	-5.08
697.329	11.92
697.358	21.92
697.387	23.92
697.415	4.92
697.444	0.92
697.473	-11.08
697.502	-14.08
697.53	-4.08
697.559	-3.08
697.588	9.92
697.616	18.92
697.645	-3.08
697.674	12.92
697.703	-3.08
697.731	13.92
697.76	1.92
697.789	6.92
697.817	6.92
697.846	12.92
697.875	-1.08
697.903	10.92
697.932	9.92
697.961	3.92
697.989	6.92
698.018	19.92
698.047	8.92
698.075	-0.08
698.104	-13.08
698.133	3.92
698.161	-5.08
698.19	2.92
698.218	4.92
698.247	6.92
698.276	5.92
698.304	7.92
698.333	14.92
698.362	7.92
698.39	-3.08
698.419	12.92
698.447	-1.08
698.476	5.92
698.505	-8.08
698.533	-10.08
698.562	8.92
698.591	-4.08
698.619	-3.08
698.648	-9.08
698.676	15.92
698.705	3.92
698.733	-10.08
698.762	6.92
698.791	-11.08
698.819	-4.08
698.848	-5.08
698.876	19.92
698.905	-4.08
698.933	6.92
698.962	-0.08
698.991	13.92
699.019	22.92
699.048	3.92
699.076	7.92
699.105	-8.08
699.133	-10.08
699.162	4.92
699.19	22.92
699.219	4.92
699.248	2.92
699.276	2.92
699.305	-11.08
699.333	-2.08
699.362	-10.08
699.39	-11.08
699.419	-23.08
699.447	7.92
699.476	-1.08
699.504	-8.08
699.533	-0.08
699.561	-11.08
699.59	1.92
699.618	-2.08
699.647	9.92
699.675	-0.08
699.704	28.92
699.732	-1.08
699.761	4.92
699.789	0.92
699.818	4.92
699.846	-8.08
699.874	-5.08
699.903	1.92
699.931	0.92
699.96	4.92
699.988	5.92
700.017	3.92
700.045	7.92
700.074	-21.08
700.102	-0.08
700.13	-7.08
700.159	2.92
700.187	-6.08
700.216	3.92
700.244	-11.08
700.273	1.92
700.301	-1.08
700.329	-1.08
700.358	15.92
700.386	-10.08
700.415	2.92
700.443	5.92
700.472	-0.08
700.5	2.92
700.528	1.92
700.557	-2.08
700.585	-4.08
700.614	-1.08
700.642	13.92
700.67	13.92
700.699	3.92
700.727	8.92
700.755	3.92
700.784	-4.08
700.812	12.92
700.841	3.92
700.869	-9.08
700.897	-23.08
700.926	5.92
700.954	-5.08
700.982	-3.08
701.011	8.92
701.039	11.92
701.067	-7.08
701.096	7.92
701.124	-7.08
701.152	-1.08
701.181	15.92
701.209	-0.08
701.237	-2.08
701.266	-5.08
701.294	5.92
701.322	1.92
701.351	13.92
701.379	-4.08
701.407	-5.08
701.435	-3.08
701.464	-1.08
701.492	11.92
701.52	7.92
701.549	-10.08
701.577	-29.08
701.605	-9.08
701.634	0.92
701.662	6.92
701.69	-10.08
701.718	-2.08
701.747	4.92
701.775	-6.08
701.803	-2.08
701.831	14.92
701.86	0.92
701.888	-4.08
701.916	-11.08
701.944	3.92
701.973	3.92
702.001	-19.08
702.029	9.92
702.057	-14.08
702.086	-6.08
702.114	-15.08
702.142	15.92
702.17	-16.08
702.199	0.92
702.227	-4.08
702.255	-3.08
702.283	2.92
702.311	15.92
702.34	3.92
702.368	-6.08
702.396	2.92
702.424	-3.08
702.452	-8.08
702.481	-0.08
702.509	-5.08
702.537	4.92
702.565	13.92
702.593	-3.08
702.621	-4.08
702.65	0.92
702.678	-14.08
702.706	8.92
702.734	-9.08
702.762	3.92
702.79	6.92
702.819	0.92
702.847	-5.08
702.875	1.92
702.903	-4.08
702.931	-14.08
702.959	-9.08
702.988	15.92
703.016	-23.08
703.044	6.92
703.072	4.92
703.1	-15.08
703.128	3.92
703.156	7.92
703.184	2.92
703.212	5.92
703.241	-5.08
703.269	-9.08
703.297	-6.08
703.325	0.92
703.353	-13.08
703.381	-9.08
703.409	-7.08
703.437	-3.08
703.465	10.92
703.493	-15.08
703.522	7.92
703.55	-5.08
703.578	1.92
703.606	-9.08
703.634	4.92
703.662	-3.08
703.69	-17.08
703.718	-0.08
703.746	23.92
703.774	-9.08
703.802	27.92
703.83	-15.08
703.858	-10.08
703.886	-6.08
703.914	-2.08
703.942	6.92
703.97	-15.08
703.998	-12.08
704.027	23.92
704.055	2.92
704.083	8.92
704.111	-1.08
704.139	-2.08
704.167	-2.08
704.195	0.92
704.223	-23.08
704.251	-20.08
704.279	-12.08
704.307	1.92
704.335	-9.08
704.363	8.92
704.391	-12.08
704.419	-17.08
704.447	-4.08
704.475	2.92
704.503	-14.08
704.531	11.92
704.558	-13.08
704.586	-1.08
704.614	-9.08
704.642	-7.08
704.67	-7.08
704.698	-7.08
704.726	-4.08
704.754	-3.08
704.782	-7.08
704.81	-5.08
704.838	36.92
704.866	12.92
704.894	-6.08
704.922	-18.08
704.95	-0.08
704.978	6.92
705.006	4.92
705.034	14.92
705.061	-2.08
705.089	-10.08
705.117	-11.08
705.145	11.92
705.173	-0.08
705.201	6.92
705.229	8.92
705.257	7.92
705.285	16.92
705.313	-7.08
705.34	6.92
705.368	-21.08
705.396	-4.08
705.424	-5.08
705.452	-2.08
705.48	8.92
705.508	-6.08
705.536	-2.08
705.563	-4.08
705.591	12.92
705.619	7.92
705.647	-5.08
705.675	15.92
705.703	2.92
705.731	-0.08
705.758	-1.08
705.786	1.92
705.814	12.92
705.842	7.92
705.87	13.92
705.898	-0.08
705.925	-5.08
705.953	-4.08
705.981	-11.08
706.009	4.92
706.037	2.92
706.065	-3.08
706.092	-5.08
706.12	-3.08
706.148	-12.08
706.176	-1.08
706.204	3.92
706.231	-6.08
706.259	-16.08
706.287	-17.08
706.315	-12.08
706.342	-1.08
706.37	5.92
706.398	7.92
706.426	-3.08
706.454	-9.08
706.481	-2.08
706.509	-16.08
706.537	-5.08
706.565	-15.08
706.592	-9.08
706.62	-10.08
706.648	-11.08
706.676	-15.08
706.703	12.92
706.731	-16.08
706.759	-8.08
706.787	13.92
706.814	-0.08
706.842	7.92
706.87	-1.08
706.897	-0.08
706.925	-3.08
706.953	11.92
706.981	1.92
707.008	-2.08
707.036	18.92
707.064	1.92
707.091	-5.08
707.119	-0.08
707.147	4.92
707.174	-1.08
707.202	0.92
707.23	-12.08
707.258	13.92
707.285	-6.08
707.313	-9.08
707.341	-19.08
707.368	4.92
707.396	7.92
707.424	19.92
707.451	-3.08
707.479	3.92
707.507	-10.08
707.534	-12.08
707.562	13.92
707.59	-12.08
707.617	-15.08
707.645	-4.08
707.672	3.92
707.7	-3.08
707.728	23.92
707.755	-0.08
707.783	-3.08
707.811	7.92
707.838	2.92
707.866	4.92
707.893	9.92
707.921	-12.08
707.949	4.92
707.976	6.92
708.004	-11.08
708.031	-2.08
708.059	-11.08
708.087	-11.08
708.114	-19.08
708.142	-5.08
708.169	-19.08
708.197	-18.08
708.225	0.92
708.252	3.92
708.28	19.92
708.307	7.92
708.335	8.92
708.362	4.92
708.39	-18.08
708.418	2.92
708.445	-6.08
708.473	-15.08
708.5	-13.08
708.528	11.92
708.555	4.92
708.583	-6.08
708.61	-9.08
708.638	7.92
708.665	4.92
708.693	7.92
708.72	-8.08
708.748	-19.08
708.776	-11.08
708.803	29.92
708.831	23.92
708.858	9.92
708.886	-10.08
708.913	28.92
708.941	10.92
708.968	14.92
708.996	-5.08
709.023	22.92
709.051	-9.08
709.078	-1.08
709.105	2.92
709.133	-4.08
709.16	-9.08
709.188	-4.08
709.215	-2.08
709.243	0.92
709.27	-12.08
709.298	6.92
709.325	-2.08
709.353	-11.08
709.38	-3.08
709.408	10.92
709.435	-11.08
709.462	-9.08
709.49	-7.08
709.517	-11.08
709.545	-13.08
709.572	-17.08
709.6	-7.08
709.627	1.92
709.655	-5.08
709.682	-14.08
709.709	-4.08
709.737	8.92
709.764	-1.08
709.792	13.92
709.819	3.92
709.846	-8.08
709.874	0.92
709.901	22.92
709.929	22.92
709.956	9.92
709.983	-7.08
710.011	-3.08
710.038	-0.08
710.066	8.92
710.093	18.92
710.12	10.92
710.148	1.92
710.175	-5.08
710.202	-8.08
710.23	2.92
710.257	4.92
710.284	2.92
710.312	-10.08
710.339	-12.08
710.366	-8.08
710.394	6.92
710.421	9.92
710.448	-3.08
710.476	-2.08
710.503	-10.08
710.53	7.92
710.558	12.92
710.585	2.92
710.612	-0.08
710.64	10.92
710.667	-8.08
710.694	-3.08
710.722	-11.08
710.749	-10.08
710.776	8.92
710.804	16.92
710.831	-13.08
710.858	4.92
710.885	-9.08
710.913	-19.08
710.94	18.92
710.967	-8.08
710.995	-0.08
711.022	-14.08
711.049	4.92
711.076	-9.08
711.104	-9.08
711.131	-20.08
711.158	5.92
711.185	7.92
711.213	-5.08
711.24	7.92
711.267	-8.08
711.294	-2.08
711.322	-5.08
711.349	-4.08
711.376	-7.08
711.403	6.92
711.431	-5.08
711.458	-9.08
711.485	-9.08
711.512	-2.08
711.54	-6.08
711.567	5.92
711.594	7.92
711.621	-2.08
711.648	9.92
711.676	-9.08
711.703	-1.08
711.73	-19.08
711.757	-9.08
711.784	-0.08
711.812	24.92
711.839	10.92
711.866	-11.08
711.893	-8.08
711.92	2.92
711.947	0.92
711.975	18.92
712.002	-7.08
712.029	0.92
712.056	0.92
712.083	-4.08
712.11	-27.08
712.138	15.92
712.165	6.92
712.192	-11.08
712.219	1.92
712.246	-1.08
712.273	1.92
712.3	-12.08
712.328	-0.08
712.355	-2.08
712.382	-8.08
712.409	12.92
712.436	-19.08
712.463	-6.08
712.49	22.92
712.517	14.92
712.544	0.92
712.572	-0.08
712.599	-19.08
712.626	14.92
712.653	-7.08
712.68	-8.08
712.707	14.92
712.734	14.92
712.761	5.92
712.788	-7.08
712.815	6.92
712.842	31.92
712.87	-1.08
712.897	-17.08
712.924	-11.08
712.951	-4.08
712.978	13.92
713.005	6.92
713.032	-0.08
713.059	-8.08
713.086	-13.08
713.113	-17.08
713.14	-13.08
713.167	4.92
713.194	-2.08
713.221	-3.08
713.248	22.92
713.275	-7.08
713.302	-8.08
713.329	-3.08
713.356	11.92
713.383	-2.08
713.41	-0.08
713.437	-31.08
713.464	-9.08
713.491	19.92
713.518	-0.08
713.545	-13.08
713.572	4.92
713.599	12.92
713.626	-4.08
713.653	2.92
713.68	-3.08
713.707	9.92
713.734	5.92
713.761	-1.08
713.788	5.92
713.815	-9.08
713.842	-3.08
713.869	-4.08
713.896	-1.08
713.923	13.92
713.95	-2.08
713.977	-10.08
714.004	-1.08
714.031	-5.08
714.058	-6.08
714.085	4.92
714.112	3.92
714.139	7.92
714.165	-8.08
714.192	-5.08
714.219	1.92
714.246	5.92
714.273	1.92
714.3	-1.08
714.327	2.92
714.354	3.92
714.381	-2.08
714.408	-19.08
714.435	-4.08
714.461	9.92
714.488	16.92
714.515	-9.08
714.542	-13.08
714.569	-16.08
714.596	-17.08
714.623	-8.08
714.65	-13.08
714.677	-15.08
714.703	-10.08
714.73	-4.08
714.757	3.92
714.784	15.92
714.811	-10.08
714.838	-5.08
714.865	-8.08
714.891	-10.08
714.918	3.92
714.945	-4.08
714.972	5.92
714.999	3.92
715.026	-5.08
715.052	10.92
715.079	4.92
715.106	9.92
715.133	10.92
715.16	-18.08
715.187	1.92
715.213	8.92
715.24	1.92
715.267	8.92
715.294	-7.08
715.321	-0.08
715.347	-4.08
715.374	-10.08
715.401	-0.08
715.428	6.92
715.455	-3.08
715.481	-13.08
715.508	-9.08
715.535	-8.08
715.562	25.92
715.588	0.92
715.615	-0.08
715.642	0.92
715.669	5.92
715.695	-1.08
715.722	-7.08
715.749	1.92
715.776	6.92
715.802	-2.08
715.829	-5.08
715.856	-16.08
715.883	13.92
715.909	-12.08
715.936	-3.08
715.963	-10.08
715.99	-16.08
716.016	-1.08
716.043	-4.08
716.07	-0.08
716.096	2.92
716.123	5.92
716.15	5.92
716.177	0.92
716.203	14.92
716.23	-2.08
716.257	1.92
716.283	5.92
716.31	-5.08
716.337	5.92
716.363	4.92
716.39	9.92
716.417	6.92
716.443	1.92
716.47	-0.08
716.497	-5.08
716.523	7.92
716.55	11.92
716.577	24.92
716.603	-12.08
716.63	-4.08
716.657	13.92
716.683	-4.08
716.71	-11.08
716.737	-9.08
716.763	-11.08
716.79	2.92
716.817	10.92
716.843	12.92
716.87	-15.08
716.897	-9.08
716.923	-2.08
716.95	-9.08
716.976	-13.08
717.003	-5.08
717.03	-0.08
717.056	-4.08
717.083	-13.08
717.109	-0.08
717.136	-9.08
717.163	10.92
717.189	3.92
717.216	-5.08
717.242	-14.08
717.269	-4.08
717.296	12.92
717.322	14.92
717.349	4.92
717.375	14.92
717.402	-0.08
717.428	0.92
717.455	7.92
717.481	0.92
717.508	16.92
717.535	10.92
717.561	1.92
717.588	1.92
717.614	-9.08
717.641	-2.08
717.667	-0.08
717.694	4.92
717.72	-5.08
717.747	-5.08
717.773	-11.08
717.8	10.92
717.826	4.92
717.853	-0.08
717.88	18.92
717.906	-1.08
717.933	-13.08
717.959	0.92
717.986	2.92
718.012	6.92
718.039	12.92
718.065	6.92
718.092	5.92
718.118	-7.08
718.144	-3.08
718.171	24.92
718.197	23.92
718.224	-5.08
718.25	-10.08
718.277	1.92
718.303	4.92
718.33	-1.08
718.356	-8.08
718.383	-3.08
718.409	4.92
718.436	-9.08
718.462	-7.08
718.489	-0.08
718.515	9.92
718.541	-4.08
718.568	-0.08
718.594	5.92
718.621	-0.08
718.647	-0.08
718.674	14.92
718.7	12.92
718.726	-4.08
718.753	-9.08
718.779	16.92
718.806	12.92
718.832	-8.08
718.858	-7.08
718.885	-4.08
718.911	-5.08
718.938	4.92
718.964	-10.08
718.99	6.92
719.017	0.92
719.043	7.92
719.07	16.92
719.096	2.92
719.122	11.92
719.149	-3.08
719.175	8.92
719.201	6.92
719.228	2.92
719.254	-2.08
719.281	-15.08
719.307	-18.08
719.333	-0.08
719.36	2.92
719.386	-4.08
719.412	19.92
719.439	2.92
719.465	-12.08
719.491	-1.08
719.518	-3.08
719.544	8.92
719.57	15.92
719.597	14.92
719.623	-3.08
719.649	2.92
719.675	-11.08
719.702	-1.08
719.728	7.92
719.754	7.92
719.781	-6.08
719.807	-3.08
719.833	-1.08
719.86	3.92
719.886	-0.08
719.912	-1.08
719.938	-3.08
719.965	4.92
719.991	10.92
720.017	11.92
720.044	-2.08
720.07	1.92
720.096	-0.08
720.122	12.92
720.149	3.92
720.175	26.92
720.201	-2.08
720.227	-9.08
720.254	11.92
720.28	-9.08
720.306	-5.08
720.332	11.92
720.359	-2.08
720.385	6.92
720.411	-4.08
720.437	-11.08
720.463	-5.08
720.49	12.92
720.516	-10.08
720.542	-15.08
720.568	2.92
720.595	9.92
720.621	16.92
720.647	3.92
720.673	0.92
720.699	-2.08
720.725	5.92
720.752	7.92
720.778	11.92
720.804	8.92
720.83	13.92
720.856	-4.08
720.883	-8.08
720.909	6.92
720.935	2.92
720.961	9.92
720.987	-19.08
721.013	5.92
721.04	0.92
721.066	-5.08
721.092	-20.08
721.118	-10.08
721.144	5.92
721.17	-1.08
721.196	-13.08
721.223	-5.08
721.249	1.92
721.275	0.92
721.301	-0.08
721.327	16.92
721.353	7.92
721.379	-9.08
721.405	8.92
721.432	10.92
721.458	-8.08
721.484	15.92
721.51	-13.08
721.536	-16.08
721.562	4.92
721.588	-21.08
721.614	-11.08
721.64	-9.08
721.666	-9.08
721.693	-10.08
721.719	-1.08
721.745	-14.08
721.771	-2.08
721.797	-2.08
721.823	-1.08
721.849	4.92
721.875	8.92
721.901	14.92
721.927	15.92
721.953	-1.08
721.979	14.92
722.005	12.92
722.031	-7.08
722.057	5.92
722.083	6.92
722.109	6.92
722.135	10.92
722.161	5.92
722.187	0.92
722.214	-3.08
722.24	4.92
722.266	0.92
722.292	11.92
722.318	15.92
722.344	19.92
722.37	-0.08
722.396	-4.08
722.422	1.92
722.448	0.92
722.474	-17.08
722.5	8.92
722.526	19.92
722.552	-3.08
722.578	6.92
722.603	-4.08
722.629	-3.08
722.655	-2.08
722.681	-5.08
722.707	-9.08
722.733	-3.08
722.759	-16.08
722.785	1.92
722.811	-3.08
722.837	-5.08
722.863	2.92
722.889	-6.08
722.915	-7.08
722.941	-9.08
722.967	5.92
722.993	10.92
723.019	-3.08
723.045	7.92
723.071	3.92
723.097	-6.08
723.122	-5.08
723.148	-12.08
723.174	-10.08
723.2	10.92
723.226	4.92
723.252	18.92
723.278	-4.08
723.304	-5.08
723.33	-4.08
723.356	-21.08
723.381	-7.08
723.407	-19.08
723.433	12.92
723.459	3.92
723.485	-12.08
723.511	6.92
723.537	-5.08
723.563	-14.08
723.588	-14.08
723.614	12.92
723.64	2.92
723.666	6.92
723.692	-7.08
723.718	-2.08
723.744	12.92
723.769	-15.08
723.795	10.92
723.821	9.92
723.847	7.92
723.873	5.92
723.899	0.92
723.924	2.92
723.95	-13.08
723.976	-7.08
724.002	6.92
724.028	-0.08
724.053	-2.08
724.079	-5.08
724.105	-10.08
724.131	4.92
724.157	1.92
724.182	6.92
724.208	-12.08
724.234	-3.08
724.26	-2.08
724.286	-1.08
724.311	-11.08
724.337	-2.08
724.363	-5.08
724.389	-2.08
724.415	-11.08
724.44	16.92
724.466	3.92
724.492	-16.08
724.518	3.92
724.543	-0.08
724.569	13.92
724.595	-3.08
724.621	-16.08
724.646	-24.08
724.672	-28.08
724.698	-25.08
724.723	-11.08
724.749	1.92
724.775	27.92
724.801	12.92
724.826	-9.08
724.852	2.92
724.878	-9.08
724.904	-20.08
724.929	-7.08
724.955	-5.08
724.981	-1.08
725.006	4.92
725.032	18.92
725.058	13.92
725.083	-2.08
725.109	-13.08
725.135	5.92
725.161	8.92
725.186	0.92
725.212	-16.08
725.238	-8.08
725.263	-5.08
725.289	-10.08
725.315	-5.08
725.34	7.92
725.366	-4.08
725.392	-3.08
725.417	2.92
725.443	4.92
725.468	-8.08
725.494	15.92
725.52	4.92
725.545	-5.08
725.571	-18.08
725.597	-23.08
725.622	4.92
725.648	3.92
725.674	2.92
725.699	2.92
725.725	6.92
725.75	28.92
725.776	-0.08
725.802	4.92
725.827	-9.08
725.853	-9.08
725.878	2.92
725.904	1.92
725.93	-9.08
725.955	-5.08
725.981	-9.08
726.006	-7.08
726.032	11.92
726.057	-5.08
726.083	-19.08
726.109	7.92
726.134	3.92
726.16	0.92
726.185	4.92
726.211	1.92
726.236	3.92
726.262	8.92
726.288	3.92
726.313	1.92
726.339	12.92
726.364	7.92
726.39	9.92
726.415	6.92
726.441	4.92
726.466	-0.08
726.492	-2.08
726.517	8.92
726.543	-11.08
726.568	3.92
726.594	-10.08
726.619	0.92
726.645	16.92
726.67	-1.08
726.696	0.92
726.721	-5.08
726.747	-4.08
726.772	-9.08
726.798	-13.08
726.823	-1.08
726.849	-10.08
726.874	1.92
726.9	24.92
726.925	0.92
726.951	-8.08
726.976	4.92
727.002	-12.08
727.027	2.92
727.053	3.92
727.078	-12.08
727.104	4.92
727.129	-12.08
727.155	-2.08
727.18	7.92
727.205	-0.08
727.231	-2.08
727.256	-7.08
727.282	6.92
727.307	6.92
727.333	-1.08
727.358	-16.08
727.383	-9.08
727.409	-14.08
727.434	-1.08
727.46	9.92
727.485	0.92
727.511	4.92
727.536	-11.08
727.561	-5.08
727.587	-8.08
727.612	-7.08
727.637	-15.08
727.663	-31.08
727.688	-10.08
727.714	-14.08
727.739	-4.08
727.764	-0.08
727.79	-1.08
727.815	3.92
727.841	6.92
727.866	5.92
727.891	-10.08
727.917	-17.08
727.942	-17.08
727.967	-11.08
727.993	-23.08
728.018	-14.08
728.043	6.92
728.069	19.92
728.094	10.92
728.119	-8.08
728.145	14.92
728.17	4.92
728.195	-15.08
728.221	19.92
728.246	-1.08
728.271	-12.08
728.297	-7.08
728.322	2.92
728.347	-10.08
728.373	-9.08
728.398	12.92
728.423	0.92
728.448	19.92
728.474	7.92
728.499	7.92
728.524	-5.08
728.55	-11.08
728.575	-2.08
728.6	12.92
728.625	-7.08
728.651	-8.08
728.676	5.92
728.701	-13.08
728.727	-1.08
728.752	-15.08
728.777	-20.08
728.802	-3.08
728.828	3.92
728.853	0.92
728.878	-3.08
728.903	-9.08
728.929	-11.08
728.954	-17.08
728.979	19.92
729.004	-1.08
729.03	-12.08
729.055	6.92
729.08	1.92
729.105	3.92
729.13	11.92
729.156	4.92
729.181	-8.08
729.206	-18.08
729.231	-9.08
729.256	2.92
729.282	13.92
729.307	0.92
729.332	-3.08
729.357	-13.08
729.382	-12.08
729.408	-1.08
729.433	3.92
729.458	5.92
729.483	8.92
729.508	37.92
729.533	15.92
729.559	6.92
729.584	5.92
729.609	7.92
729.634	11.92
729.659	-21.08
729.684	-12.08
729.71	15.92
729.735	16.92
729.76	2.92
729.785	1.92
729.81	6.92
729.835	6.92
729.86	-5.08
729.886	5.92
729.911	14.92
729.936	-15.08
729.961	18.92
729.986	7.92
730.011	68.92
730.036	205.92
730.061	1025.92
730.086	2719.92
730.112	3376.92
730.137	2830.92
730.162	2140.92
730.187	1682.92
730.212	1290.92
730.237	815.92
730.262	450.92
730.287	262.92
730.312	145.92
730.337	75.92
730.362	66.92
730.387	39.92
730.413	20.92
730.438	10.92
730.463	4.92
730.488	5.92
730.513	22.92
730.538	3.92
730.563	11.92
730.588	8.92
730.613	27.92
730.638	0.92
730.663	-4.08
730.688	23.92
730.713	19.92
730.738	-0.08
730.763	6.92
730.788	-7.08
730.813	1.92
730.838	7.92
730.863	7.92
730.888	-7.08
730.913	-9.08
730.938	-2.08
730.963	16.92
730.988	120.92
731.013	427.92
731.038	647.92
731.063	607.92
731.088	479.92
731.113	368.92
731.138	293.92
731.163	196.92
731.188	109.92
731.213	70.92
731.238	37.92
731.263	6.92
731.288	14.92
731.313	7.92
731.338	3.92
731.363	2.92
731.388	1.92
731.413	4.92
731.438	20.92
731.463	0.92
731.487	2.92
731.512	3.92
731.537	-5.08
731.562	2.92
731.587	3.92
731.612	-11.08
731.637	-4.08
731.662	4.92
731.687	-19.08
731.712	-25.08
731.737	-16.08
731.762	-14.08
731.786	-16.08
731.811	7.92
731.836	2.92
731.861	5.92
731.886	-11.08
731.911	-0.08
731.936	8.92
731.961	-14.08
731.986	-17.08
732.01	9.92
732.035	5.92
732.06	4.92
732.085	-0.08
732.11	13.92
732.135	2.92
732.16	-5.08
732.184	6.92
732.209	0.92
732.234	3.92
732.259	-9.08
732.284	18.92
732.309	-4.08
732.334	-1.08
732.358	-16.08
732.383	-4.08
732.408	-3.08
732.433	18.92
732.458	-1.08
732.482	-0.08
732.507	-2.08
732.532	3.92
732.557	10.92
732.582	23.92
732.607	31.92
732.631	55.92
732.656	87.92
732.681	144.92
732.706	347.92
732.73	455.92
732.755	410.92
732.78	307.92
732.805	236.92
732.83	198.92
732.854	133.92
732.879	94.92
732.904	54.92
732.929	6.92
732.953	19.92
732.978	27.92
733.003	3.92
733.028	4.92
733.052	9.92
733.077	6.92
733.102	14.92
733.127	1.92
733.151	1.92
733.176	6.92
733.201	0.92
733.226	-0.08
733.25	-9.08
733.275	-2.08
733.3	8.92
733.324	7.92
733.349	5.92
733.374	15.92
733.399	-2.08
733.423	5.92
733.448	-12.08
733.473	-15.08
733.497	1.92
733.522	-5.08
733.547	-0.08
733.571	20.92
733.596	-1.08
733.621	-2.08
733.646	-9.08
733.67	9.92
733.695	-2.08
733.72	0.92
733.744	12.92
733.769	3.92
733.794	1.92
733.818	-13.08
733.843	-13.08
733.867	-5.08
733.892	-15.08
733.917	-9.08
733.941	1.92
733.966	-5.08
733.991	2.92
734.015	17.92
734.04	-0.08
734.065	-1.08
734.089	10.92
734.114	12.92
734.138	-7.08
734.163	-15.08
734.188	0.92
734.212	6.92
734.237	-5.08
734.261	11.92
734.286	2.92
734.311	-14.08
734.335	-0.08
734.36	-6.08
734.384	11.92
734.409	2.92
734.434	-7.08
734.458	-9.08
734.483	-17.08
734.507	-3.08
734.532	0.92
734.556	8.92
734.581	-23.08
734.606	5.92
734.63	-3.08
734.655	-12.08
734.679	-3.08
734.704	-1.08
734.728	-8.08
734.753	1.92
734.777	-7.08
734.802	-10.08
734.826	-16.08
734.851	1.92
734.876	1.92
734.9	4.92
734.925	0.92
734.949	-3.08
734.974	-11.08
734.998	-4.08
735.023	-27.08
735.047	-11.08
735.072	-3.08
735.096	0.92
735.121	-11.08
735.145	-0.08
735.17	11.92
735.194	10.92
735.219	-12.08
735.243	-5.08
735.268	6.92
735.292	7.92
735.317	-21.08
735.341	-5.08
735.365	-14.08
735.39	11.92
735.414	3.92
735.439	-5.08
735.463	1.92
735.488	12.92
735.512	-8.08
735.537	3.92
735.561	2.92
735.586	-1.08
735.61	4.92
735.634	0.92
735.659	7.92
735.683	11.92
735.708	-8.08
735.732	-15.08
735.757	-8.08
735.781	1.92
735.805	6.92
735.83	-6.08
735.854	7.92
735.879	-6.08
735.903	4.92
735.927	10.92
735.952	-2.08
735.976	-12.08
736.001	-6.08
736.025	3.92
736.049	4.92
736.074	1.92
736.098	-9.08
736.123	-7.08
736.147	-17.08
736.171	3.92
736.196	5.92
736.22	-20.08
736.244	-0.08
736.269	6.92
736.293	1.92
736.317	-4.08
736.342	-11.08
736.366	9.92
736.39	8.92
736.415	-8.08
736.439	-5.08
736.463	12.92
736.488	1.92
736.512	10.92
736.536	5.92
736.561	19.92
736.585	4.92
736.609	12.92
736.634	3.92
736.658	-9.08
736.682	-10.08
736.707	-20.08
736.731	-9.08
736.755	-1.08
736.78	13.92
736.804	20.92
736.828	7.92
736.852	1.92
736.877	-5.08
736.901	3.92
736.925	3.92
736.949	10.92
736.974	-15.08
736.998	-15.08
737.022	6.92
737.047	3.92
737.071	-14.08
737.095	6.92
737.119	19.92
737.144	5.92
737.168	6.92
737.192	0.92
737.216	-1.08
737.241	4.92
737.265	8.92
737.289	3.92
737.313	-9.08
737.337	7.92
737.362	8.92
737.386	-6.08
737.41	-18.08
737.434	15.92
737.459	4.92
737.483	13.92
737.507	6.92
737.531	-8.08
737.555	-1.08
737.58	-2.08
737.604	10.92
737.628	-13.08
737.652	-16.08
737.676	-9.08
737.701	-3.08
737.725	-8.08
737.749	6.92
737.773	-5.08
737.797	4.92
737.821	0.92
737.846	-1.08
737.87	35.92
737.894	8.92
737.918	-15.08
737.942	7.92
737.966	7.92
737.99	20.92
738.015	0.92
738.039	-23.08
738.063	-3.08
738.087	7.92
738.111	-4.08
738.135	17.92
738.159	5.92
738.184	-5.08
738.208	5.92
738.232	5.92
738.256	14.92
738.28	3.92
738.304	13.92
738.328	-3.08
738.352	-0.08
738.376	4.92
738.4	-2.08
738.425	1.92
738.449	-11.08
738.473	6.92
738.497	12.92
738.521	-1.08
738.545	15.92
738.569	11.92
738.593	11.92
738.617	-2.08
738.641	-10.08
738.665	-1.08
738.689	9.92
738.713	-5.08
738.737	-5.08
738.762	3.92
738.786	-0.08
738.81	-7.08
738.834	11.92
738.858	-11.08
738.882	-6.08
738.906	-13.08
738.93	-4.08
738.954	-3.08
738.978	-4.08
739.002	2.92
739.026	10.92
739.05	3.92
739.074	-3.08
739.098	23.92
739.122	16.92
739.146	-0.08
739.17	10.92
739.194	-4.08
739.218	-4.08
739.242	-0.08
739.266	0.92
739.29	12.92
739.314	6.92
739.338	8.92
739.362	2.92
739.386	8.92
739.41	-7.08
739.434	-18.08
739.458	4.92
739.482	7.92
739.506	20.92
739.53	-0.08
739.554	1.92
739.577	-2.08
739.601	3.92
739.625	-14.08
739.649	-6.08
739.673	-5.08
739.697	11.92
739.721	3.92
739.745	14.92
739.769	14.92
739.793	-0.08
739.817	-6.08
739.841	0.92
739.865	6.92
739.889	-10.08
739.912	16.92
739.936	0.92
739.96	-5.08
739.984	11.92
740.008	-10.08
740.032	-5.08
740.056	-6.08
740.08	-10.08
740.104	13.92
740.127	15.92
740.151	16.92
740.175	-9.08
740.199	-3.08
740.223	39.92
740.247	12.92
740.271	14.92
740.295	4.92
740.318	-4.08
740.342	-13.08
740.366	-8.08
740.39	-2.08
740.414	-13.08
740.438	-13.08
740.461	22.92
740.485	1.92
740.509	-16.08
740.533	15.92
740.557	-1.08
740.581	-14.08
740.604	-3.08
740.628	-7.08
740.652	-0.08
740.676	2.92
740.7	12.92
740.723	-4.08
740.747	-7.08
740.771	-1.08
740.795	-13.08
740.819	-2.08
740.842	-7.08
740.866	1.92
740.89	11.92
740.914	12.92
740.938	-10.08
740.961	2.92
740.985	1.92
741.009	-8.08
741.033	14.92
741.056	-0.08
741.08	-10.08
741.104	-8.08
741.128	-4.08
741.151	15.92
741.175	-2.08
741.199	8.92
741.223	6.92
741.246	-4.08
741.27	7.92
741.294	8.92
741.318	3.92
741.341	-1.08
741.365	-4.08
741.389	11.92
741.413	5.92
741.436	2.92
741.46	1.92
741.484	14.92
741.507	-0.08
741.531	14.92
741.555	7.92
741.579	8.92
741.602	0.92
741.626	-2.08
741.65	-1.08
741.673	-4.08
741.697	6.92
741.721	-0.08
741.744	-16.08
741.768	-15.08
741.792	-6.08
741.815	-7.08
741.839	8.92
741.863	21.92
741.886	14.92
741.91	14.92
741.934	-5.08
741.957	-13.08
741.981	18.92
742.005	3.92
742.028	-6.08
742.052	-12.08
742.075	0.92
742.099	12.92
742.123	-3.08
742.146	6.92
742.17	6.92
742.194	-10.08
742.217	-7.08
742.241	-3.08
742.264	9.92
742.288	20.92
742.312	-3.08
742.335	-9.08
742.359	-1.08
742.382	19.92
742.406	18.92
742.43	-20.08
742.453	-3.08
742.477	-27.08
742.5	-0.08
742.524	-1.08
742.548	18.92
742.571	1.92
742.595	6.92
742.618	-2.08
742.642	0.92
742.665	0.92
742.689	-2.08
742.712	1.92
742.736	0.92
742.76	5.92
742.783	4.92
742.807	23.92
742.83	18.92
742.854	-11.08
742.877	-8.08
742.901	-2.08
742.924	-11.08
742.948	1.92
742.971	-5.08
742.995	3.92
743.018	-8.08
743.042	-1.08
743.065	-7.08
743.089	-4.08
743.112	-4.08
743.136	-10.08
743.159	-11.08
743.183	-2.08
743.206	12.92
743.23	-4.08
743.253	11.92
743.277	9.92
743.3	-6.08
743.324	7.92
743.347	-6.08
743.371	14.92
743.394	17.92
743.418	16.92
743.441	20.92
743.465	5.92
743.488	13.92
743.512	-1.08
743.535	-5.08
743.558	-7.08
743.582	-4.08
743.605	8.92
743.629	1.92
743.652	7.92
743.676	14.92
743.699	8.92
743.723	2.92
743.746	6.92
743.769	5.92
743.793	21.92
743.816	-0.08
743.84	9.92
743.863	-3.08
743.886	14.92
743.91	22.92
743.933	5.92
743.957	6.92
743.98	-12.08
744.003	-1.08
744.027	8.92
744.05	-0.08
744.074	-1.08
744.097	-8.08
744.12	-0.08
744.144	-0.08
744.167	3.92
744.19	-4.08
744.214	-1.08
744.237	-5.08
744.26	7.92
744.284	-5.08
744.307	-16.08
744.331	-1.08
744.354	-13.08
744.377	-14.08
744.401	-11.08
744.424	-8.08
744.447	-16.08
744.471	7.92
