Data from HighRes_mercury_15_13_11_07_2024_HR4C61891__4__15-14-23-586.txt Node

Date: Thu Nov 07 15:14:23 EST 2024
User: crc00042
Spectrometer: HR4C6189
Trigger mode: 4
Integration Time (sec): 1.000000E-1
Scans to average: 1
Electric dark correction enabled: true
Nonlinearity correction enabled: false
Boxcar width: 0
XAxis mode: Wavelengths
Number of Pixels in Spectrum: 3648
>>>>>Begin Spectral Data<<<<<
639.567	-27.62
639.602	-27.62
639.636	-27.62
639.67	-32.62
639.704	-13.62
639.738	-1.62
639.773	21.38
639.807	-13.62
639.841	-12.62
639.875	20.38
639.909	-1.62
639.943	-9.62
639.978	8.38
640.012	7.38
640.046	8.38
640.08	-8.62
640.114	-7.62
640.148	-10.62
640.182	-12.62
640.217	-20.62
640.251	15.38
640.285	6.38
640.319	-7.62
640.353	0.38
640.387	5.38
640.421	4.38
640.455	-4.62
640.49	7.38
640.524	1.38
640.558	15.38
640.592	7.38
640.626	-1.62
640.66	19.38
640.694	-4.62
640.728	8.38
640.762	15.38
640.796	46.38
640.83	34.38
640.865	14.38
640.899	7.38
640.933	4.38
640.967	12.38
641.001	9.38
641.035	11.38
641.069	1.38
641.103	2.38
641.137	3.38
641.171	-7.62
641.205	11.38
641.239	-2.62
641.273	21.38
641.307	10.38
641.341	0.38
641.375	9.38
641.409	6.38
641.443	5.38
641.477	5.38
641.511	12.38
641.545	16.38
641.579	7.38
641.614	0.38
641.648	20.38
641.682	0.38
641.716	29.38
641.75	21.38
641.784	7.38
641.818	7.38
641.852	-1.62
641.886	-1.62
641.919	36.38
641.953	2.38
641.987	-12.62
642.021	4.38
642.055	5.38
642.089	19.38
642.123	-2.62
642.157	1.38
642.191	4.38
642.225	20.38
642.259	13.38
642.293	16.38
642.327	16.38
642.361	4.38
642.395	33.38
642.429	21.38
642.463	19.38
642.497	12.38
642.531	3.38
642.565	-5.62
642.599	11.38
642.633	-2.62
642.666	16.38
642.7	5.38
642.734	9.38
642.768	-3.62
642.802	-0.62
642.836	12.38
642.87	4.38
642.904	11.38
642.938	6.38
642.972	-1.62
643.005	9.38
643.039	8.38
643.073	-4.62
643.107	6.38
643.141	14.38
643.175	1.38
643.209	-2.62
643.243	19.38
643.276	22.38
643.31	8.38
643.344	30.38
643.378	7.38
643.412	14.38
643.446	4.38
643.48	6.38
643.513	25.38
643.547	11.38
643.581	-6.62
643.615	8.38
643.649	-3.62
643.683	4.38
643.716	13.38
643.75	9.38
643.784	-17.62
643.818	25.38
643.852	2.38
643.886	5.38
643.919	8.38
643.953	21.38
643.987	-11.62
644.021	17.38
644.055	15.38
644.088	14.38
644.122	5.38
644.156	9.38
644.19	-9.62
644.224	2.38
644.257	6.38
644.291	14.38
644.325	15.38
644.359	13.38
644.392	21.38
644.426	12.38
644.46	4.38
644.494	-0.62
644.527	-5.62
644.561	31.38
644.595	13.38
644.629	3.38
644.662	-9.62
644.696	26.38
644.73	14.38
644.764	16.38
644.797	16.38
644.831	7.38
644.865	11.38
644.899	7.38
644.932	26.38
644.966	8.38
645	18.38
645.033	13.38
645.067	-10.62
645.101	19.38
645.135	-4.62
645.168	12.38
645.202	7.38
645.236	3.38
645.269	6.38
645.303	-13.62
645.337	-31.62
645.37	8.38
645.404	23.38
645.438	17.38
645.471	-12.62
645.505	11.38
645.539	12.38
645.572	-9.62
645.606	3.38
645.64	5.38
645.673	-3.62
645.707	23.38
645.741	0.38
645.774	-22.62
645.808	-0.62
645.842	0.38
645.875	8.38
645.909	8.38
645.943	8.38
645.976	-0.62
646.01	15.38
646.043	17.38
646.077	5.38
646.111	18.38
646.144	10.38
646.178	15.38
646.212	-0.62
646.245	12.38
646.279	4.38
646.312	3.38
646.346	12.38
646.38	29.38
646.413	12.38
646.447	2.38
646.48	18.38
646.514	25.38
646.547	-3.62
646.581	-9.62
646.615	10.38
646.648	-1.62
646.682	-3.62
646.715	1.38
646.749	22.38
646.782	5.38
646.816	1.38
646.85	19.38
646.883	4.38
646.917	8.38
646.95	3.38
646.984	5.38
647.017	-5.62
647.051	14.38
647.084	20.38
647.118	5.38
647.151	11.38
647.185	22.38
647.218	-6.62
647.252	3.38
647.285	11.38
647.319	-4.62
647.353	21.38
647.386	14.38
647.42	-3.62
647.453	7.38
647.487	5.38
647.52	10.38
647.553	-2.62
647.587	3.38
647.62	8.38
647.654	8.38
647.687	-0.62
647.721	27.38
647.754	1.38
647.788	1.38
647.821	1.38
647.855	8.38
647.888	13.38
647.922	28.38
647.955	21.38
647.989	12.38
648.022	24.38
648.055	17.38
648.089	14.38
648.122	28.38
648.156	16.38
648.189	3.38
648.223	0.38
648.256	8.38
648.29	2.38
648.323	11.38
648.356	18.38
648.39	17.38
648.423	18.38
648.457	4.38
648.49	10.38
648.523	7.38
648.557	9.38
648.59	13.38
648.624	-0.62
648.657	10.38
648.69	14.38
648.724	5.38
648.757	17.38
648.791	21.38
648.824	11.38
648.857	11.38
648.891	12.38
648.924	11.38
648.957	21.38
648.991	1.38
649.024	26.38
649.057	-2.62
649.091	11.38
649.124	14.38
649.158	9.38
649.191	18.38
649.224	6.38
649.258	11.38
649.291	13.38
649.324	7.38
649.358	5.38
649.391	5.38
649.424	3.38
649.458	12.38
649.491	11.38
649.524	7.38
649.557	0.38
649.591	-17.62
649.624	1.38
649.657	-3.62
649.691	6.38
649.724	4.38
649.757	6.38
649.791	10.38
649.824	30.38
649.857	17.38
649.89	9.38
649.924	-7.62
649.957	6.38
649.99	-2.62
650.023	5.38
650.057	-1.62
650.09	11.38
650.123	-0.62
650.157	24.38
650.19	28.38
650.223	-2.62
650.256	-7.62
650.29	3.38
650.323	8.38
650.356	7.38
650.389	-0.62
650.423	0.38
650.456	11.38
650.489	2.38
650.522	20.38
650.555	23.38
650.589	9.38
650.622	-7.62
650.655	23.38
650.688	2.38
650.721	0.38
650.755	10.38
650.788	18.38
650.821	5.38
650.854	4.38
650.887	-6.62
650.921	5.38
650.954	6.38
650.987	4.38
651.02	27.38
651.053	-2.62
651.087	7.38
651.12	15.38
651.153	-0.62
651.186	-23.62
651.219	-17.62
651.252	4.38
651.286	15.38
651.319	7.38
651.352	8.38
651.385	-1.62
651.418	6.38
651.451	9.38
651.484	3.38
651.518	-9.62
651.551	37.38
651.584	5.38
651.617	30.38
651.65	25.38
651.683	9.38
651.716	5.38
651.749	0.38
651.783	13.38
651.816	24.38
651.849	15.38
651.882	7.38
651.915	-6.62
651.948	7.38
651.981	5.38
652.014	-16.62
652.047	-0.62
652.08	-17.62
652.114	-5.62
652.147	-10.62
652.18	3.38
652.213	25.38
652.246	12.38
652.279	5.38
652.312	8.38
652.345	8.38
652.378	13.38
652.411	21.38
652.444	9.38
652.477	13.38
652.51	8.38
652.543	-3.62
652.576	7.38
652.609	2.38
652.642	11.38
652.675	19.38
652.709	24.38
652.742	12.38
652.775	19.38
652.808	-0.62
652.841	-6.62
652.874	7.38
652.907	0.38
652.94	1.38
652.973	-6.62
653.006	3.38
653.039	3.38
653.072	8.38
653.105	7.38
653.138	-21.62
653.171	-5.62
653.204	0.38
653.237	23.38
653.27	1.38
653.303	-2.62
653.336	17.38
653.368	-8.62
653.401	3.38
653.434	-1.62
653.467	8.38
653.5	-3.62
653.533	-18.62
653.566	4.38
653.599	15.38
653.632	9.38
653.665	22.38
653.698	1.38
653.731	-0.62
653.764	14.38
653.797	0.38
653.83	1.38
653.863	2.38
653.896	-2.62
653.929	17.38
653.961	19.38
653.994	3.38
654.027	5.38
654.06	10.38
654.093	19.38
654.126	7.38
654.159	16.38
654.192	9.38
654.225	3.38
654.258	-1.62
654.29	2.38
654.323	8.38
654.356	-12.62
654.389	15.38
654.422	0.38
654.455	12.38
654.488	10.38
654.521	-13.62
654.553	1.38
654.586	9.38
654.619	2.38
654.652	-0.62
654.685	6.38
654.718	24.38
654.751	24.38
654.783	10.38
654.816	17.38
654.849	6.38
654.882	-17.62
654.915	-12.62
654.948	2.38
654.98	0.38
655.013	8.38
655.046	10.38
655.079	-0.62
655.112	1.38
655.144	3.38
655.177	-14.62
655.21	15.38
655.243	19.38
655.276	9.38
655.308	5.38
655.341	-6.62
655.374	6.38
655.407	2.38
655.44	-0.62
655.472	25.38
655.505	18.38
655.538	5.38
655.571	8.38
655.603	-3.62
655.636	-5.62
655.669	11.38
655.702	-2.62
655.734	8.38
655.767	-10.62
655.8	0.38
655.833	-2.62
655.865	18.38
655.898	-6.62
655.931	9.38
655.964	2.38
655.996	-0.62
656.029	23.38
656.062	-1.62
656.095	-2.62
656.127	-12.62
656.16	8.38
656.193	14.38
656.225	11.38
656.258	12.38
656.291	10.38
656.324	24.38
656.356	16.38
656.389	22.38
656.422	12.38
656.454	2.38
656.487	10.38
656.52	12.38
656.552	-2.62
656.585	10.38
656.618	20.38
656.65	25.38
656.683	-9.62
656.716	11.38
656.748	1.38
656.781	-3.62
656.814	-0.62
656.846	15.38
656.879	0.38
656.912	-5.62
656.944	-8.62
656.977	4.38
657.01	-1.62
657.042	7.38
657.075	11.38
657.108	-4.62
657.14	10.38
657.173	12.38
657.205	27.38
657.238	9.38
657.271	5.38
657.303	-1.62
657.336	13.38
657.369	-7.62
657.401	-6.62
657.434	10.38
657.466	14.38
657.499	-4.62
657.532	28.38
657.564	33.38
657.597	11.38
657.629	10.38
657.662	-0.62
657.694	8.38
657.727	-11.62
657.76	5.38
657.792	-20.62
657.825	4.38
657.857	-4.62
657.89	-2.62
657.922	22.38
657.955	-5.62
657.987	6.38
658.02	23.38
658.053	19.38
658.085	14.38
658.118	14.38
658.15	13.38
658.183	23.38
658.215	10.38
658.248	2.38
658.28	-8.62
658.313	13.38
658.345	7.38
658.378	11.38
658.41	24.38
658.443	10.38
658.475	12.38
658.508	2.38
658.54	8.38
658.573	-1.62
658.605	-0.62
658.638	-3.62
658.67	5.38
658.703	16.38
658.735	-3.62
658.768	23.38
658.8	-5.62
658.833	29.38
658.865	13.38
658.898	10.38
658.93	4.38
658.963	3.38
658.995	-8.62
659.028	19.38
659.06	8.38
659.092	-2.62
659.125	-2.62
659.157	6.38
659.19	7.38
659.222	7.38
659.255	18.38
659.287	13.38
659.32	0.38
659.352	16.38
659.384	16.38
659.417	6.38
659.449	10.38
659.482	21.38
659.514	-11.62
659.546	-1.62
659.579	1.38
659.611	7.38
659.644	-18.62
659.676	-9.62
659.708	3.38
659.741	-4.62
659.773	10.38
659.806	28.38
659.838	19.38
659.87	-2.62
659.903	-11.62
659.935	3.38
659.967	3.38
660	-0.62
660.032	-21.62
660.065	7.38
660.097	-0.62
660.129	-2.62
660.162	0.38
660.194	15.38
660.226	23.38
660.259	20.38
660.291	14.38
660.323	0.38
660.356	6.38
660.388	-8.62
660.42	10.38
660.453	14.38
660.485	13.38
660.517	21.38
660.55	13.38
660.582	5.38
660.614	23.38
660.647	8.38
660.679	-12.62
660.711	11.38
660.743	11.38
660.776	0.38
660.808	5.38
660.84	3.38
660.873	13.38
660.905	-1.62
660.937	15.38
660.969	8.38
661.002	4.38
661.034	9.38
661.066	7.38
661.099	4.38
661.131	21.38
661.163	10.38
661.195	15.38
661.228	23.38
661.26	1.38
661.292	4.38
661.324	-6.62
661.357	16.38
661.389	20.38
661.421	12.38
661.453	10.38
661.485	5.38
661.518	-1.62
661.55	-2.62
661.582	-6.62
661.614	-3.62
661.647	13.38
661.679	4.38
661.711	7.38
661.743	-11.62
661.775	4.38
661.808	14.38
661.84	-2.62
661.872	19.38
661.904	-9.62
661.936	1.38
661.969	-5.62
662.001	-8.62
662.033	-2.62
662.065	6.38
662.097	11.38
662.129	1.38
662.162	11.38
662.194	4.38
662.226	13.38
662.258	11.38
662.29	0.38
662.322	-26.62
662.355	-5.62
662.387	28.38
662.419	21.38
662.451	-9.62
662.483	7.38
662.515	15.38
662.547	4.38
662.58	8.38
662.612	-12.62
662.644	-10.62
662.676	11.38
662.708	21.38
662.74	17.38
662.772	8.38
662.804	-0.62
662.836	16.38
662.869	6.38
662.901	4.38
662.933	-3.62
662.965	18.38
662.997	17.38
663.029	10.38
663.061	6.38
663.093	5.38
663.125	7.38
663.157	-7.62
663.189	3.38
663.221	20.38
663.254	18.38
663.286	12.38
663.318	-4.62
663.35	1.38
663.382	-0.62
663.414	4.38
663.446	8.38
663.478	-8.62
663.51	23.38
663.542	7.38
663.574	7.38
663.606	4.38
663.638	-5.62
663.67	6.38
663.702	-4.62
663.734	-4.62
663.766	2.38
663.798	-0.62
663.83	4.38
663.862	19.38
663.894	-6.62
663.926	3.38
663.958	-6.62
663.99	16.38
664.022	-9.62
664.054	5.38
664.086	-5.62
664.118	-5.62
664.15	-8.62
664.182	6.38
664.214	15.38
664.246	19.38
664.278	12.38
664.31	38.38
664.342	12.38
664.374	13.38
664.406	0.38
664.438	-6.62
664.47	17.38
664.502	10.38
664.534	9.38
664.566	0.38
664.598	-6.62
664.63	5.38
664.662	1.38
664.693	0.38
664.725	-3.62
664.757	3.38
664.789	-8.62
664.821	14.38
664.853	5.38
664.885	-2.62
664.917	-17.62
664.949	17.38
664.981	31.38
665.013	18.38
665.045	-15.62
665.076	11.38
665.108	10.38
665.14	0.38
665.172	4.38
665.204	-2.62
665.236	-4.62
665.268	10.38
665.3	-4.62
665.331	4.38
665.363	8.38
665.395	13.38
665.427	8.38
665.459	7.38
665.491	11.38
665.523	11.38
665.555	-14.62
665.586	-0.62
665.618	0.38
665.65	-9.62
665.682	14.38
665.714	9.38
665.746	3.38
665.777	14.38
665.809	5.38
665.841	14.38
665.873	12.38
665.905	-3.62
665.937	7.38
665.968	6.38
666	6.38
666.032	3.38
666.064	0.38
666.096	4.38
666.127	10.38
666.159	14.38
666.191	8.38
666.223	16.38
666.255	4.38
666.286	1.38
666.318	6.38
666.35	11.38
666.382	14.38
666.413	-9.62
666.445	-14.62
666.477	13.38
666.509	-4.62
666.54	9.38
666.572	-2.62
666.604	-3.62
666.636	-1.62
666.667	20.38
666.699	17.38
666.731	3.38
666.763	-1.62
666.794	1.38
666.826	1.38
666.858	-7.62
666.89	2.38
666.921	3.38
666.953	14.38
666.985	23.38
667.017	31.38
667.048	15.38
667.08	11.38
667.112	12.38
667.143	2.38
667.175	8.38
667.207	13.38
667.238	14.38
667.27	18.38
667.302	-11.62
667.334	-3.62
667.365	19.38
667.397	-9.62
667.429	-6.62
667.46	5.38
667.492	24.38
667.524	-0.62
667.555	6.38
667.587	4.38
667.619	-0.62
667.65	-6.62
667.682	12.38
667.714	8.38
667.745	-6.62
667.777	-3.62
667.808	18.38
667.84	18.38
667.872	4.38
667.903	9.38
667.935	-6.62
667.967	8.38
667.998	13.38
668.03	6.38
668.061	30.38
668.093	3.38
668.125	11.38
668.156	21.38
668.188	-7.62
668.22	4.38
668.251	8.38
668.283	16.38
668.314	21.38
668.346	14.38
668.377	11.38
668.409	-1.62
668.441	19.38
668.472	28.38
668.504	5.38
668.535	24.38
668.567	15.38
668.599	4.38
668.63	-7.62
668.662	-17.62
668.693	14.38
668.725	15.38
668.756	15.38
668.788	-0.62
668.819	12.38
668.851	7.38
668.882	-0.62
668.914	6.38
668.946	0.38
668.977	-18.62
669.009	3.38
669.04	-1.62
669.072	9.38
669.103	6.38
669.135	0.38
669.166	6.38
669.198	7.38
669.229	16.38
669.261	-9.62
669.292	9.38
669.324	6.38
669.355	25.38
669.387	-2.62
669.418	12.38
669.45	-10.62
669.481	12.38
669.513	13.38
669.544	22.38
669.576	14.38
669.607	22.38
669.639	25.38
669.67	-9.62
669.701	7.38
669.733	-21.62
669.764	-0.62
669.796	6.38
669.827	2.38
669.859	-6.62
669.89	13.38
669.922	26.38
669.953	6.38
669.985	11.38
670.016	24.38
670.047	10.38
670.079	2.38
670.11	20.38
670.142	14.38
670.173	22.38
670.204	-0.62
670.236	8.38
670.267	10.38
670.299	19.38
670.33	4.38
670.362	7.38
670.393	-2.62
670.424	10.38
670.456	5.38
670.487	1.38
670.518	9.38
670.55	11.38
670.581	1.38
670.613	6.38
670.644	11.38
670.675	-0.62
670.707	7.38
670.738	9.38
670.769	5.38
670.801	-16.62
670.832	2.38
670.864	-0.62
670.895	6.38
670.926	3.38
670.958	11.38
670.989	4.38
671.02	8.38
671.052	3.38
671.083	6.38
671.114	-0.62
671.146	12.38
671.177	6.38
671.208	-3.62
671.24	-8.62
671.271	-7.62
671.302	10.38
671.333	-5.62
671.365	1.38
671.396	2.38
671.427	13.38
671.459	20.38
671.49	9.38
671.521	7.38
671.553	5.38
671.584	21.38
671.615	-3.62
671.646	4.38
671.678	-0.62
671.709	-5.62
671.74	-18.62
671.771	-16.62
671.803	5.38
671.834	8.38
671.865	0.38
671.896	12.38
671.928	12.38
671.959	12.38
671.99	6.38
672.021	12.38
672.053	11.38
672.084	10.38
672.115	0.38
672.146	2.38
672.178	2.38
672.209	10.38
672.24	9.38
672.271	28.38
672.303	17.38
672.334	3.38
672.365	-10.62
672.396	-4.62
672.427	-2.62
672.459	10.38
672.49	24.38
672.521	13.38
672.552	14.38
672.583	22.38
672.615	5.38
672.646	7.38
672.677	1.38
672.708	7.38
672.739	-1.62
672.77	10.38
672.802	1.38
672.833	7.38
672.864	9.38
672.895	1.38
672.926	4.38
672.957	-2.62
672.989	-4.62
673.02	8.38
673.051	20.38
673.082	12.38
673.113	10.38
673.144	6.38
673.175	25.38
673.206	0.38
673.238	2.38
673.269	-6.62
673.3	-0.62
673.331	15.38
673.362	7.38
673.393	10.38
673.424	25.38
673.455	10.38
673.487	-4.62
673.518	7.38
673.549	12.38
673.58	10.38
673.611	13.38
673.642	4.38
673.673	0.38
673.704	-13.62
673.735	-6.62
673.766	3.38
673.797	9.38
673.828	9.38
673.86	-0.62
673.891	-11.62
673.922	4.38
673.953	3.38
673.984	18.38
674.015	8.38
674.046	6.38
674.077	6.38
674.108	-4.62
674.139	4.38
674.17	8.38
674.201	-7.62
674.232	-11.62
674.263	6.38
674.294	-7.62
674.325	7.38
674.356	19.38
674.387	12.38
674.418	8.38
674.449	-0.62
674.48	-9.62
674.511	3.38
674.542	18.38
674.573	-0.62
674.604	9.38
674.635	19.38
674.666	22.38
674.697	0.38
674.728	3.38
674.759	8.38
674.79	1.38
674.821	-3.62
674.852	-0.62
674.883	7.38
674.914	-9.62
674.945	-8.62
674.976	4.38
675.007	8.38
675.038	8.38
675.069	-6.62
675.1	-1.62
675.131	29.38
675.162	9.38
675.193	-14.62
675.224	-0.62
675.254	5.38
675.285	12.38
675.316	20.38
675.347	10.38
675.378	-2.62
675.409	-5.62
675.44	6.38
675.471	9.38
675.502	-2.62
675.533	-5.62
675.564	12.38
675.595	2.38
675.625	21.38
675.656	6.38
675.687	6.38
675.718	-10.62
675.749	15.38
675.78	-3.62
675.811	-11.62
675.842	32.38
675.873	9.38
675.903	8.38
675.934	27.38
675.965	-4.62
675.996	7.38
676.027	9.38
676.058	11.38
676.089	-4.62
676.119	13.38
676.15	9.38
676.181	20.38
676.212	-1.62
676.243	-1.62
676.274	-13.62
676.304	16.38
676.335	3.38
676.366	2.38
676.397	13.38
676.428	20.38
676.459	19.38
676.489	22.38
676.52	19.38
676.551	15.38
676.582	-7.62
676.613	20.38
676.643	-1.62
676.674	9.38
676.705	-4.62
676.736	13.38
676.767	10.38
676.797	7.38
676.828	7.38
676.859	-7.62
676.89	9.38
676.92	14.38
676.951	14.38
676.982	12.38
677.013	16.38
677.044	15.38
677.074	12.38
677.105	3.38
677.136	25.38
677.167	9.38
677.197	6.38
677.228	2.38
677.259	-6.62
677.289	7.38
677.32	-6.62
677.351	1.38
677.382	6.38
677.412	3.38
677.443	13.38
677.474	4.38
677.505	-2.62
677.535	10.38
677.566	3.38
677.597	-25.62
677.627	-17.62
677.658	1.38
677.689	6.38
677.72	3.38
677.75	14.38
677.781	10.38
677.812	-2.62
677.842	-0.62
677.873	-3.62
677.904	5.38
677.934	1.38
677.965	-2.62
677.996	5.38
678.026	-0.62
678.057	-4.62
678.088	-13.62
678.118	4.38
678.149	-8.62
678.18	-10.62
678.21	12.38
678.241	-0.62
678.272	-0.62
678.302	-7.62
678.333	12.38
678.363	18.38
678.394	10.38
678.425	10.38
678.455	1.38
678.486	19.38
678.517	4.38
678.547	3.38
678.578	-5.62
678.608	-15.62
678.639	14.38
678.67	0.38
678.7	-21.62
678.731	4.38
678.761	0.38
678.792	7.38
678.823	-16.62
678.853	-1.62
678.884	-8.62
678.914	9.38
678.945	-1.62
678.975	0.38
679.006	11.38
679.037	-6.62
679.067	25.38
679.098	-3.62
679.128	4.38
679.159	2.38
679.189	16.38
679.22	-2.62
679.25	10.38
679.281	8.38
679.312	2.38
679.342	-3.62
679.373	27.38
679.403	18.38
679.434	30.38
679.464	3.38
679.495	-11.62
679.525	-7.62
679.556	-10.62
679.586	10.38
679.617	5.38
679.647	17.38
679.678	5.38
679.708	27.38
679.739	1.38
679.769	-13.62
679.8	-8.62
679.83	-5.62
679.861	6.38
679.891	7.38
679.922	-1.62
679.952	4.38
679.983	18.38
680.013	-2.62
680.044	-8.62
680.074	15.38
680.105	11.38
680.135	5.38
680.165	20.38
680.196	5.38
680.226	5.38
680.257	1.38
680.287	2.38
680.318	-7.62
680.348	-5.62
680.379	16.38
680.409	8.38
680.439	2.38
680.47	16.38
680.5	-6.62
680.531	11.38
680.561	5.38
680.592	10.38
680.622	27.38
680.652	7.38
680.683	29.38
680.713	12.38
680.744	0.38
680.774	-2.62
680.804	34.38
680.835	-5.62
680.865	-10.62
680.896	24.38
680.926	19.38
680.956	10.38
680.987	22.38
681.017	-4.62
681.047	7.38
681.078	6.38
681.108	-3.62
681.139	1.38
681.169	-1.62
681.199	-0.62
681.23	9.38
681.26	0.38
681.29	15.38
681.321	-11.62
681.351	4.38
681.381	-0.62
681.412	14.38
681.442	1.38
681.472	16.38
681.503	15.38
681.533	7.38
681.563	1.38
681.594	13.38
681.624	4.38
681.654	-5.62
681.685	-5.62
681.715	15.38
681.745	8.38
681.775	5.38
681.806	16.38
681.836	10.38
681.866	-10.62
681.897	16.38
681.927	-1.62
681.957	-27.62
681.987	2.38
682.018	-3.62
682.048	12.38
682.078	23.38
682.109	19.38
682.139	4.38
682.169	-0.62
682.199	-8.62
682.23	-14.62
682.26	10.38
682.29	6.38
682.32	-10.62
682.351	-6.62
682.381	-6.62
682.411	-1.62
682.441	-1.62
682.472	-18.62
682.502	1.38
682.532	4.38
682.562	25.38
682.592	7.38
682.623	9.38
682.653	16.38
682.683	-7.62
682.713	11.38
682.743	4.38
682.774	11.38
682.804	-1.62
682.834	3.38
682.864	-18.62
682.894	-4.62
682.925	2.38
682.955	14.38
682.985	-4.62
683.015	10.38
683.045	19.38
683.076	-1.62
683.106	7.38
683.136	-9.62
683.166	-3.62
683.196	-4.62
683.226	-1.62
683.257	1.38
683.287	4.38
683.317	-12.62
683.347	0.38
683.377	17.38
683.407	9.38
683.437	11.38
683.468	15.38
683.498	-2.62
683.528	-8.62
683.558	-10.62
683.588	-7.62
683.618	-5.62
683.648	-3.62
683.678	16.38
683.708	15.38
683.739	-3.62
683.769	-12.62
683.799	-5.62
683.829	10.38
683.859	14.38
683.889	20.38
683.919	6.38
683.949	2.38
683.979	-2.62
684.009	-5.62
684.039	5.38
684.07	-0.62
684.1	9.38
684.13	9.38
684.16	3.38
684.19	2.38
684.22	10.38
684.25	0.38
684.28	2.38
684.31	26.38
684.34	14.38
684.37	-1.62
684.4	13.38
684.43	4.38
684.46	-5.62
684.49	8.38
684.52	11.38
684.55	18.38
684.58	6.38
684.61	2.38
684.64	13.38
684.67	10.38
684.7	6.38
684.73	14.38
684.76	7.38
684.79	17.38
684.82	-2.62
684.85	9.38
684.88	21.38
684.91	-1.62
684.94	-12.62
684.97	-4.62
685	-17.62
685.03	-18.62
685.06	-12.62
685.09	0.38
685.12	34.38
685.15	-8.62
685.18	10.38
685.21	10.38
685.24	16.38
685.27	11.38
685.3	0.38
685.33	11.38
685.36	-8.62
685.39	12.38
685.42	-0.62
685.45	-4.62
685.48	8.38
685.51	12.38
685.54	6.38
685.569	16.38
685.599	4.38
685.629	10.38
685.659	8.38
685.689	-3.62
685.719	2.38
685.749	-12.62
685.779	5.38
685.809	21.38
685.839	12.38
685.869	4.38
685.898	16.38
685.928	2.38
685.958	-2.62
685.988	23.38
686.018	7.38
686.048	18.38
686.078	14.38
686.108	15.38
686.137	-5.62
686.167	9.38
686.197	-14.62
686.227	12.38
686.257	16.38
686.287	6.38
686.317	3.38
686.346	11.38
686.376	0.38
686.406	-1.62
686.436	18.38
686.466	3.38
686.496	-1.62
686.525	11.38
686.555	-5.62
686.585	25.38
686.615	31.38
686.645	22.38
686.675	13.38
686.704	12.38
686.734	-0.62
686.764	1.38
686.794	11.38
686.824	-1.62
686.853	12.38
686.883	19.38
686.913	11.38
686.943	19.38
686.973	14.38
687.002	22.38
687.032	14.38
687.062	13.38
687.092	3.38
687.121	11.38
687.151	10.38
687.181	9.38
687.211	21.38
687.24	-1.62
687.27	-4.62
687.3	-7.62
687.33	15.38
687.359	-0.62
687.389	5.38
687.419	7.38
687.449	-2.62
687.478	16.38
687.508	-0.62
687.538	11.38
687.568	9.38
687.597	-9.62
687.627	8.38
687.657	23.38
687.686	6.38
687.716	22.38
687.746	-2.62
687.776	-0.62
687.805	11.38
687.835	2.38
687.865	22.38
687.894	-5.62
687.924	-13.62
687.954	10.38
687.983	8.38
688.013	3.38
688.043	2.38
688.072	-1.62
688.102	13.38
688.132	13.38
688.161	2.38
688.191	-2.62
688.221	25.38
688.25	-11.62
688.28	10.38
688.31	-2.62
688.339	3.38
688.369	3.38
688.399	8.38
688.428	-3.62
688.458	-1.62
688.488	3.38
688.517	14.38
688.547	-13.62
688.576	23.38
688.606	13.38
688.636	-6.62
688.665	-2.62
688.695	15.38
688.725	10.38
688.754	22.38
688.784	1.38
688.813	16.38
688.843	-1.62
688.873	1.38
688.902	-5.62
688.932	-9.62
688.961	9.38
688.991	24.38
689.02	22.38
689.05	4.38
689.08	21.38
689.109	18.38
689.139	6.38
689.168	11.38
689.198	16.38
689.227	8.38
689.257	-8.62
689.287	16.38
689.316	-5.62
689.346	5.38
689.375	-10.62
689.405	22.38
689.434	-2.62
689.464	22.38
689.493	14.38
689.523	1.38
689.552	-8.62
689.582	9.38
689.611	-0.62
689.641	7.38
689.67	16.38
689.7	7.38
689.73	9.38
689.759	3.38
689.789	21.38
689.818	6.38
689.848	-1.62
689.877	14.38
689.906	-2.62
689.936	-4.62
689.965	-0.62
689.995	6.38
690.024	12.38
690.054	10.38
690.083	7.38
690.113	2.38
690.142	-4.62
690.172	11.38
690.201	-1.62
690.231	2.38
690.26	9.38
690.29	15.38
690.319	19.38
690.348	1.38
690.378	3.38
690.407	30.38
690.437	5.38
690.466	13.38
690.496	2.38
690.525	9.38
690.555	8.38
690.584	-9.62
690.613	-3.62
690.643	18.38
690.672	17.38
690.702	17.38
690.731	3.38
690.76	21.38
690.79	45.38
690.819	58.38
690.849	40.38
690.878	35.38
690.907	26.38
690.937	11.38
690.966	16.38
690.996	18.38
691.025	18.38
691.054	10.38
691.084	20.38
691.113	10.38
691.142	3.38
691.172	5.38
691.201	13.38
691.23	11.38
691.26	30.38
691.289	19.38
691.319	-3.62
691.348	10.38
691.377	29.38
691.407	9.38
691.436	15.38
691.465	6.38
691.495	0.38
691.524	-18.62
691.553	-8.62
691.583	-4.62
691.612	3.38
691.641	7.38
691.67	10.38
691.7	28.38
691.729	2.38
691.758	2.38
691.788	2.38
691.817	1.38
691.846	10.38
691.876	3.38
691.905	6.38
691.934	0.38
691.963	21.38
691.993	6.38
692.022	3.38
692.051	-3.62
692.081	15.38
692.11	33.38
692.139	13.38
692.168	7.38
692.198	16.38
692.227	15.38
692.256	14.38
692.285	12.38
692.315	10.38
692.344	18.38
692.373	20.38
692.402	-23.62
692.432	-21.62
692.461	-2.62
692.49	9.38
692.519	5.38
692.548	4.38
692.578	11.38
692.607	-4.62
692.636	-13.62
692.665	31.38
692.694	16.38
692.724	6.38
692.753	12.38
692.782	16.38
692.811	8.38
692.84	-2.62
692.87	-6.62
692.899	1.38
692.928	4.38
692.957	25.38
692.986	10.38
693.016	8.38
693.045	11.38
693.074	2.38
693.103	2.38
693.132	22.38
693.161	9.38
693.191	-22.62
693.22	3.38
693.249	-7.62
693.278	18.38
693.307	21.38
693.336	-7.62
693.365	-6.62
693.395	1.38
693.424	8.38
693.453	22.38
693.482	0.38
693.511	20.38
693.54	16.38
693.569	24.38
693.598	16.38
693.628	33.38
693.657	26.38
693.686	29.38
693.715	5.38
693.744	13.38
693.773	22.38
693.802	9.38
693.831	0.38
693.86	11.38
693.889	6.38
693.919	-3.62
693.948	-7.62
693.977	2.38
694.006	-0.62
694.035	2.38
694.064	4.38
694.093	12.38
694.122	-2.62
694.151	-8.62
694.18	9.38
694.209	27.38
694.238	16.38
694.267	29.38
694.296	12.38
694.325	28.38
694.354	11.38
694.383	1.38
694.412	-1.62
694.441	9.38
694.471	-1.62
694.5	0.38
694.529	-2.62
694.558	5.38
694.587	10.38
694.616	7.38
694.645	12.38
694.674	21.38
694.703	28.38
694.732	10.38
694.761	17.38
694.79	31.38
694.819	-5.62
694.848	2.38
694.877	26.38
694.906	30.38
694.935	15.38
694.963	9.38
694.992	1.38
695.021	11.38
695.05	27.38
695.079	5.38
695.108	-8.62
695.137	16.38
695.166	21.38
695.195	4.38
695.224	16.38
695.253	8.38
695.282	31.38
695.311	5.38
695.34	-0.62
695.369	8.38
695.398	7.38
695.427	32.38
695.456	5.38
695.485	-0.62
695.513	13.38
695.542	-4.62
695.571	11.38
695.6	30.38
695.629	14.38
695.658	21.38
695.687	-3.62
695.716	14.38
695.745	27.38
695.774	2.38
695.802	-1.62
695.831	30.38
695.86	29.38
695.889	15.38
695.918	22.38
695.947	4.38
695.976	5.38
696.005	4.38
696.033	7.38
696.062	16.38
696.091	14.38
696.12	20.38
696.149	36.38
696.178	20.38
696.207	23.38
696.235	0.38
696.264	8.38
696.293	21.38
696.322	8.38
696.351	18.38
696.38	-7.62
696.408	-5.62
696.437	20.38
696.466	5.38
696.495	20.38
696.524	16.38
696.553	1.38
696.581	8.38
696.61	7.38
696.639	2.38
696.668	9.38
696.697	3.38
696.725	7.38
696.754	15.38
696.783	17.38
696.812	12.38
696.84	13.38
696.869	18.38
696.898	9.38
696.927	8.38
696.956	23.38
696.984	-2.62
697.013	9.38
697.042	7.38
697.071	9.38
697.099	28.38
697.128	13.38
697.157	13.38
697.186	15.38
697.214	5.38
697.243	8.38
697.272	2.38
697.301	9.38
697.329	8.38
697.358	12.38
697.387	26.38
697.415	5.38
697.444	14.38
697.473	18.38
697.502	6.38
697.53	19.38
697.559	9.38
697.588	18.38
697.616	1.38
697.645	-0.62
697.674	10.38
697.703	10.38
697.731	22.38
697.76	13.38
697.789	2.38
697.817	-0.62
697.846	18.38
697.875	18.38
697.903	19.38
697.932	21.38
697.961	8.38
697.989	13.38
698.018	23.38
698.047	14.38
698.075	20.38
698.104	10.38
698.133	14.38
698.161	-3.62
698.19	-6.62
698.218	-3.62
698.247	20.38
698.276	-2.62
698.304	2.38
698.333	10.38
698.362	14.38
698.39	19.38
698.419	10.38
698.447	9.38
698.476	19.38
698.505	24.38
698.533	17.38
698.562	13.38
698.591	-2.62
698.619	8.38
698.648	4.38
698.676	21.38
698.705	2.38
698.733	-6.62
698.762	1.38
698.791	2.38
698.819	7.38
698.848	23.38
698.876	35.38
698.905	5.38
698.933	25.38
698.962	1.38
698.991	14.38
699.019	31.38
699.048	16.38
699.076	16.38
699.105	5.38
699.133	6.38
699.162	1.38
699.19	7.38
699.219	-2.62
699.248	20.38
699.276	-5.62
699.305	8.38
699.333	16.38
699.362	9.38
699.39	10.38
699.419	16.38
699.447	7.38
699.476	16.38
699.504	5.38
699.533	4.38
699.561	5.38
699.59	12.38
699.618	8.38
699.647	1.38
699.675	2.38
699.704	15.38
699.732	4.38
699.761	19.38
699.789	5.38
699.818	10.38
699.846	-8.62
699.874	20.38
699.903	9.38
699.931	15.38
699.96	14.38
699.988	4.38
700.017	1.38
700.045	-1.62
700.074	4.38
700.102	-2.62
700.13	6.38
700.159	5.38
700.187	5.38
700.216	13.38
700.244	-4.62
700.273	10.38
700.301	8.38
700.329	5.38
700.358	14.38
700.386	1.38
700.415	7.38
700.443	4.38
700.472	-0.62
700.5	19.38
700.528	3.38
700.557	10.38
700.585	13.38
700.614	20.38
700.642	20.38
700.67	10.38
700.699	15.38
700.727	13.38
700.755	15.38
700.784	8.38
700.812	-2.62
700.841	2.38
700.869	17.38
700.897	-9.62
700.926	-7.62
700.954	15.38
700.982	13.38
701.011	3.38
701.039	18.38
701.067	13.38
701.096	12.38
701.124	-7.62
701.152	13.38
701.181	15.38
701.209	7.38
701.237	9.38
701.266	-9.62
701.294	-12.62
701.322	13.38
701.351	22.38
701.379	10.38
701.407	-6.62
701.435	13.38
701.464	20.38
701.492	27.38
701.52	-3.62
701.549	7.38
701.577	3.38
701.605	-3.62
701.634	-6.62
701.662	25.38
701.69	-6.62
701.718	-6.62
701.747	10.38
701.775	7.38
701.803	8.38
701.831	21.38
701.86	-0.62
701.888	10.38
701.916	-11.62
701.944	-1.62
701.973	-7.62
702.001	-0.62
702.029	-3.62
702.057	-0.62
702.086	-3.62
702.114	6.38
702.142	31.38
702.17	-2.62
702.199	17.38
702.227	18.38
702.255	-2.62
702.283	2.38
702.311	22.38
702.34	5.38
702.368	-8.62
702.396	1.38
702.424	-13.62
702.452	-6.62
702.481	-4.62
702.509	9.38
702.537	17.38
702.565	21.38
702.593	-0.62
702.621	6.38
702.65	15.38
702.678	19.38
702.706	10.38
702.734	20.38
702.762	0.38
702.79	19.38
702.819	15.38
702.847	2.38
702.875	7.38
702.903	-0.62
702.931	16.38
702.959	16.38
702.988	12.38
703.016	15.38
703.044	-9.62
703.072	6.38
703.1	1.38
703.128	8.38
703.156	13.38
703.184	11.38
703.212	22.38
703.241	17.38
703.269	-3.62
703.297	1.38
703.325	6.38
703.353	1.38
703.381	-3.62
703.409	15.38
703.437	-3.62
703.465	13.38
703.493	-6.62
703.522	12.38
703.55	5.38
703.578	9.38
703.606	-2.62
703.634	8.38
703.662	1.38
703.69	7.38
703.718	8.38
703.746	21.38
703.774	-6.62
703.802	14.38
703.83	2.38
703.858	-0.62
703.886	-1.62
703.914	-5.62
703.942	10.38
703.97	1.38
703.998	2.38
704.027	22.38
704.055	5.38
704.083	5.38
704.111	-1.62
704.139	-1.62
704.167	-3.62
704.195	-1.62
704.223	-0.62
704.251	10.38
704.279	6.38
704.307	3.38
704.335	-6.62
704.363	-1.62
704.391	4.38
704.419	-4.62
704.447	-4.62
704.475	1.38
704.503	-14.62
704.531	26.38
704.558	7.38
704.586	1.38
704.614	-0.62
704.642	2.38
704.67	-6.62
704.698	5.38
704.726	6.38
704.754	5.38
704.782	7.38
704.81	1.38
704.838	23.38
704.866	16.38
704.894	-4.62
704.922	9.38
704.95	11.38
704.978	14.38
705.006	14.38
705.034	3.38
705.061	0.38
705.089	-5.62
705.117	-9.62
705.145	4.38
705.173	3.38
705.201	1.38
705.229	4.38
705.257	20.38
705.285	8.38
705.313	6.38
705.34	-9.62
705.368	-0.62
705.396	7.38
705.424	-1.62
705.452	3.38
705.48	5.38
705.508	11.38
705.536	16.38
705.563	-1.62
705.591	16.38
705.619	12.38
705.647	2.38
705.675	12.38
705.703	17.38
705.731	19.38
705.758	10.38
705.786	24.38
705.814	18.38
705.842	10.38
705.87	23.38
705.898	16.38
705.925	1.38
705.953	5.38
705.981	-0.62
706.009	9.38
706.037	13.38
706.065	1.38
706.092	-13.62
706.12	0.38
706.148	3.38
706.176	-18.62
706.204	16.38
706.231	0.38
706.259	-0.62
706.287	1.38
706.315	5.38
706.342	20.38
706.37	14.38
706.398	13.38
706.426	-0.62
706.454	-6.62
706.481	7.38
706.509	11.38
706.537	6.38
706.565	-2.62
706.592	5.38
706.62	2.38
706.648	4.38
706.676	2.38
706.703	1.38
706.731	-0.62
706.759	2.38
706.787	6.38
706.814	4.38
706.842	17.38
706.87	-7.62
706.897	18.38
706.925	0.38
706.953	18.38
706.981	10.38
707.008	21.38
707.036	2.38
707.064	7.38
707.091	-3.62
707.119	15.38
707.147	2.38
707.174	6.38
707.202	1.38
707.23	0.38
707.258	2.38
707.285	-5.62
707.313	9.38
707.341	-9.62
707.368	1.38
707.396	6.38
707.424	15.38
707.451	9.38
707.479	6.38
707.507	6.38
707.534	-7.62
707.562	10.38
707.59	-2.62
707.617	5.38
707.645	10.38
707.672	4.38
707.7	4.38
707.728	6.38
707.755	10.38
707.783	10.38
707.811	4.38
707.838	2.38
707.866	14.38
707.893	2.38
707.921	-5.62
707.949	-0.62
707.976	14.38
708.004	2.38
708.031	15.38
708.059	-2.62
708.087	17.38
708.114	9.38
708.142	5.38
708.169	6.38
708.197	2.38
708.225	13.38
708.252	-2.62
708.28	14.38
708.307	6.38
708.335	14.38
708.362	1.38
708.39	-1.62
708.418	2.38
708.445	-10.62
708.473	-6.62
708.5	2.38
708.528	18.38
708.555	-4.62
708.583	12.38
708.61	1.38
708.638	13.38
708.665	0.38
708.693	20.38
708.72	-2.62
708.748	-8.62
708.776	1.38
708.803	21.38
708.831	1.38
708.858	10.38
708.886	3.38
708.913	-9.62
708.941	0.38
708.968	27.38
708.996	7.38
709.023	30.38
709.051	-5.62
709.078	-5.62
709.105	18.38
709.133	-13.62
709.16	-0.62
709.188	19.38
709.215	5.38
709.243	6.38
709.27	-3.62
709.298	8.38
709.325	9.38
709.353	-10.62
709.38	3.38
709.408	17.38
709.435	14.38
709.462	12.38
709.49	0.38
709.517	-4.62
709.545	-7.62
709.572	8.38
709.6	20.38
709.627	1.38
709.655	-0.62
709.682	2.38
709.709	13.38
709.737	10.38
709.764	1.38
709.792	13.38
709.819	3.38
709.846	-1.62
709.874	7.38
709.901	17.38
709.929	23.38
709.956	8.38
709.983	-10.62
710.011	-0.62
710.038	-2.62
710.066	13.38
710.093	13.38
710.12	6.38
710.148	6.38
710.175	-2.62
710.202	-0.62
710.23	5.38
710.257	-0.62
710.284	15.38
710.312	11.38
710.339	1.38
710.366	-0.62
710.394	-5.62
710.421	13.38
710.448	2.38
710.476	-1.62
710.503	-2.62
710.53	18.38
710.558	15.38
710.585	24.38
710.612	-0.62
710.64	-2.62
710.667	5.38
710.694	1.38
710.722	12.38
710.749	4.38
710.776	-2.62
710.804	16.38
710.831	-2.62
710.858	1.38
710.885	8.38
710.913	6.38
710.94	15.38
710.967	5.38
710.995	4.38
711.022	1.38
711.049	2.38
711.076	-6.62
711.104	-9.62
711.131	-14.62
711.158	-1.62
711.185	13.38
711.213	-11.62
711.24	-2.62
711.267	0.38
711.294	3.38
711.322	13.38
711.349	12.38
711.376	5.38
711.403	6.38
711.431	-0.62
711.458	-14.62
711.485	-1.62
711.512	12.38
711.54	15.38
711.567	9.38
711.594	-2.62
711.621	-0.62
711.648	-0.62
711.676	10.38
711.703	13.38
711.73	5.38
711.757	6.38
711.784	11.38
711.812	-1.62
711.839	7.38
711.866	1.38
711.893	7.38
711.92	19.38
711.947	22.38
711.975	12.38
712.002	-1.62
712.029	10.38
712.056	13.38
712.083	16.38
712.11	-8.62
712.138	1.38
712.165	24.38
712.192	25.38
712.219	1.38
712.246	-3.62
712.273	-2.62
712.3	-2.62
712.328	5.38
712.355	0.38
712.382	-0.62
712.409	18.38
712.436	-9.62
712.463	10.38
712.49	17.38
712.517	-0.62
712.544	8.38
712.572	-0.62
712.599	-10.62
712.626	3.38
712.653	11.38
712.68	-7.62
712.707	22.38
712.734	2.38
712.761	2.38
712.788	42.38
712.815	3.38
712.842	3.38
712.87	7.38
712.897	-6.62
712.924	-17.62
712.951	5.38
712.978	11.38
713.005	19.38
713.032	10.38
713.059	2.38
713.086	9.38
713.113	1.38
713.14	-1.62
713.167	8.38
713.194	2.38
713.221	17.38
713.248	10.38
713.275	6.38
713.302	10.38
713.329	9.38
713.356	5.38
713.383	12.38
713.41	6.38
713.437	6.38
713.464	8.38
713.491	32.38
713.518	16.38
713.545	7.38
713.572	-0.62
713.599	11.38
713.626	0.38
713.653	18.38
713.68	12.38
713.707	9.38
713.734	13.38
713.761	6.38
713.788	7.38
713.815	22.38
713.842	13.38
713.869	7.38
713.896	11.38
713.923	-0.62
713.95	12.38
713.977	6.38
714.004	6.38
714.031	-6.62
714.058	1.38
714.085	13.38
714.112	27.38
714.139	-0.62
714.165	6.38
714.192	-4.62
714.219	2.38
714.246	20.38
714.273	4.38
714.3	14.38
714.327	21.38
714.354	6.38
714.381	-1.62
714.408	4.38
714.435	4.38
714.461	-3.62
714.488	15.38
714.515	15.38
714.542	-5.62
714.569	-12.62
714.596	-12.62
714.623	18.38
714.65	0.38
714.677	5.38
714.703	5.38
714.73	14.38
714.757	25.38
714.784	6.38
714.811	-11.62
714.838	2.38
714.865	-2.62
714.891	20.38
714.918	9.38
714.945	4.38
714.972	14.38
714.999	10.38
715.026	-2.62
715.052	15.38
715.079	5.38
715.106	1.38
715.133	15.38
715.16	-9.62
715.187	17.38
715.213	20.38
715.24	-1.62
715.267	3.38
715.294	11.38
715.321	2.38
715.347	10.38
715.374	-1.62
715.401	3.38
715.428	-0.62
715.455	14.38
715.481	-2.62
715.508	21.38
715.535	4.38
715.562	13.38
715.588	7.38
715.615	0.38
715.642	-0.62
715.669	22.38
715.695	19.38
715.722	9.38
715.749	9.38
715.776	16.38
715.802	10.38
715.829	1.38
715.856	11.38
715.883	13.38
715.909	-2.62
715.936	9.38
715.963	5.38
715.99	-3.62
716.016	0.38
716.043	0.38
716.07	-0.62
716.096	0.38
716.123	5.38
716.15	-7.62
716.177	5.38
716.203	16.38
716.23	16.38
716.257	22.38
716.283	20.38
716.31	21.38
716.337	-5.62
716.363	9.38
716.39	11.38
716.417	8.38
716.443	5.38
716.47	21.38
716.497	24.38
716.523	9.38
716.55	33.38
716.577	18.38
716.603	6.38
716.63	4.38
716.657	16.38
716.683	2.38
716.71	2.38
716.737	7.38
716.763	13.38
716.79	12.38
716.817	16.38
716.843	11.38
716.87	-7.62
716.897	13.38
716.923	18.38
716.95	10.38
716.976	-1.62
717.003	-6.62
717.03	7.38
717.056	0.38
717.083	9.38
717.109	-5.62
717.136	-5.62
717.163	-5.62
717.189	24.38
717.216	7.38
717.242	-1.62
717.269	5.38
717.296	3.38
717.322	15.38
717.349	25.38
717.375	7.38
717.402	-1.62
717.428	-12.62
717.455	13.38
717.481	8.38
717.508	5.38
717.535	26.38
717.561	-0.62
717.588	4.38
717.614	2.38
717.641	-1.62
717.667	0.38
717.694	6.38
717.72	3.38
717.747	7.38
717.773	-4.62
717.8	9.38
717.826	17.38
717.853	11.38
717.88	25.38
717.906	9.38
717.933	-1.62
717.959	3.38
717.986	12.38
718.012	5.38
718.039	29.38
718.065	19.38
718.092	21.38
718.118	1.38
718.144	3.38
718.171	23.38
718.197	29.38
718.224	-3.62
718.25	4.38
718.277	-6.62
718.303	5.38
718.33	3.38
718.356	-3.62
718.383	-7.62
718.409	12.38
718.436	6.38
718.462	1.38
718.489	-12.62
718.515	16.38
718.541	4.38
718.568	13.38
718.594	1.38
718.621	8.38
718.647	6.38
718.674	12.38
718.7	9.38
718.726	7.38
718.753	10.38
718.779	10.38
718.806	6.38
718.832	11.38
718.858	8.38
718.885	10.38
718.911	13.38
718.938	15.38
718.964	-1.62
718.99	12.38
719.017	20.38
719.043	4.38
719.07	9.38
719.096	-17.62
719.122	-9.62
719.149	16.38
719.175	10.38
719.201	18.38
719.228	18.38
719.254	4.38
719.281	-4.62
719.307	-5.62
719.333	0.38
719.36	23.38
719.386	8.38
719.412	14.38
719.439	3.38
719.465	14.38
719.491	-0.62
719.518	17.38
719.544	25.38
719.57	10.38
719.597	2.38
719.623	-6.62
719.649	13.38
719.675	-1.62
719.702	1.38
719.728	2.38
719.754	-3.62
719.781	-7.62
719.807	0.38
719.833	14.38
719.86	19.38
719.886	-11.62
719.912	3.38
719.938	-6.62
719.965	10.38
719.991	15.38
720.017	-2.62
720.044	-11.62
720.07	16.38
720.096	10.38
720.122	0.38
720.149	10.38
720.175	27.38
720.201	6.38
720.227	9.38
720.254	13.38
720.28	15.38
720.306	16.38
720.332	12.38
720.359	9.38
720.385	8.38
720.411	18.38
720.437	2.38
720.463	-2.62
720.49	23.38
720.516	1.38
720.542	2.38
720.568	5.38
720.595	14.38
720.621	5.38
720.647	3.38
720.673	18.38
720.699	-0.62
720.725	12.38
720.752	6.38
720.778	-1.62
720.804	14.38
720.83	17.38
720.856	0.38
720.883	0.38
720.909	9.38
720.935	10.38
720.961	28.38
720.987	15.38
721.013	18.38
721.04	9.38
721.066	-3.62
721.092	2.38
721.118	7.38
721.144	0.38
721.17	-7.62
721.196	6.38
721.223	7.38
721.249	4.38
721.275	15.38
721.301	17.38
721.327	16.38
721.353	10.38
721.379	5.38
721.405	9.38
721.432	16.38
721.458	-8.62
721.484	6.38
721.51	6.38
721.536	4.38
721.562	10.38
721.588	-1.62
721.614	-2.62
721.64	10.38
721.666	6.38
721.693	8.38
721.719	-4.62
721.745	-16.62
721.771	-9.62
721.797	-5.62
721.823	6.38
721.849	18.38
721.875	8.38
721.901	18.38
721.927	14.38
721.953	8.38
721.979	13.38
722.005	16.38
722.031	-0.62
722.057	22.38
722.083	18.38
722.109	17.38
722.135	12.38
722.161	23.38
722.187	4.38
722.214	1.38
722.24	3.38
722.266	-6.62
722.292	21.38
722.318	14.38
722.344	8.38
722.37	6.38
722.396	7.38
722.422	4.38
722.448	8.38
722.474	-4.62
722.5	19.38
722.526	15.38
722.552	7.38
722.578	4.38
722.603	22.38
722.629	2.38
722.655	1.38
722.681	3.38
722.707	6.38
722.733	10.38
722.759	11.38
722.785	1.38
722.811	-0.62
722.837	14.38
722.863	-5.62
722.889	7.38
722.915	6.38
722.941	3.38
722.967	20.38
722.993	9.38
723.019	4.38
723.045	9.38
723.071	9.38
723.097	24.38
723.122	6.38
723.148	-4.62
723.174	7.38
723.2	9.38
723.226	4.38
723.252	5.38
723.278	-3.62
723.304	2.38
723.33	13.38
723.356	7.38
723.381	-1.62
723.407	3.38
723.433	16.38
723.459	2.38
723.485	4.38
723.511	14.38
723.537	7.38
723.563	11.38
723.588	10.38
723.614	16.38
723.64	-0.62
723.666	14.38
723.692	24.38
723.718	17.38
723.744	6.38
723.769	-1.62
723.795	-12.62
723.821	-1.62
723.847	5.38
723.873	6.38
723.899	8.38
723.924	6.38
723.95	5.38
723.976	-3.62
724.002	11.38
724.028	3.38
724.053	9.38
724.079	17.38
724.105	4.38
724.131	0.38
724.157	9.38
724.182	12.38
724.208	6.38
724.234	13.38
724.26	-2.62
724.286	8.38
724.311	-5.62
724.337	7.38
724.363	-5.62
724.389	-0.62
724.415	3.38
724.44	31.38
724.466	1.38
724.492	7.38
724.518	21.38
724.543	-1.62
724.569	11.38
724.595	2.38
724.621	-1.62
724.646	8.38
724.672	-1.62
724.698	-5.62
724.723	-10.62
724.749	1.38
724.775	4.38
724.801	11.38
724.826	5.38
724.852	4.38
724.878	19.38
724.904	-16.62
724.929	17.38
724.955	-6.62
724.981	-1.62
725.006	-0.62
725.032	19.38
725.058	36.38
725.083	5.38
725.109	10.38
725.135	3.38
725.161	15.38
725.186	-1.62
725.212	10.38
725.238	20.38
725.263	6.38
725.289	1.38
725.315	-13.62
725.34	-8.62
725.366	6.38
725.392	0.38
725.417	0.38
725.443	0.38
725.468	14.38
725.494	14.38
725.52	10.38
725.545	-2.62
725.571	2.38
725.597	-4.62
725.622	7.38
725.648	7.38
725.674	8.38
725.699	-1.62
725.725	9.38
725.75	35.38
725.776	2.38
725.802	14.38
725.827	10.38
725.853	-0.62
725.878	16.38
725.904	3.38
725.93	20.38
725.955	-2.62
725.981	-4.62
726.006	-1.62
726.032	8.38
726.057	7.38
726.083	-1.62
726.109	-1.62
726.134	9.38
726.16	0.38
726.185	2.38
726.211	-0.62
726.236	8.38
726.262	10.38
726.288	21.38
726.313	32.38
726.339	19.38
726.364	9.38
726.39	14.38
726.415	-2.62
726.441	-11.62
726.466	5.38
726.492	-6.62
726.517	-0.62
726.543	11.38
726.568	-7.62
726.594	6.38
726.619	10.38
726.645	21.38
726.67	16.38
726.696	11.38
726.721	-14.62
726.747	-4.62
726.772	-5.62
726.798	-0.62
726.823	14.38
726.849	-0.62
726.874	12.38
726.9	21.38
726.925	7.38
726.951	29.38
726.976	12.38
727.002	-3.62
727.027	11.38
727.053	13.38
727.078	-13.62
727.104	-6.62
727.129	-19.62
727.155	-6.62
727.18	9.38
727.205	12.38
727.231	4.38
727.256	-0.62
727.282	21.38
727.307	21.38
727.333	-2.62
727.358	-8.62
727.383	2.38
727.409	12.38
727.434	18.38
727.46	13.38
727.485	7.38
727.511	16.38
727.536	-9.62
727.561	12.38
727.587	-1.62
727.612	-2.62
727.637	2.38
727.663	5.38
727.688	19.38
727.714	16.38
727.739	15.38
727.764	5.38
727.79	11.38
727.815	5.38
727.841	14.38
727.866	10.38
727.891	16.38
727.917	-0.62
727.942	-5.62
727.967	-0.62
727.993	1.38
728.018	18.38
728.043	15.38
728.069	19.38
728.094	12.38
728.119	-4.62
728.145	16.38
728.17	7.38
728.195	9.38
728.221	25.38
728.246	-0.62
728.271	-2.62
728.297	0.38
728.322	-1.62
728.347	-3.62
728.373	-5.62
728.398	19.38
728.423	2.38
728.448	23.38
728.474	7.38
728.499	14.38
728.524	-10.62
728.55	-11.62
728.575	3.38
728.6	3.38
728.625	-0.62
728.651	14.38
728.676	-6.62
728.701	2.38
728.727	-0.62
728.752	-22.62
728.777	4.38
728.802	16.38
728.828	3.38
728.853	-4.62
728.878	11.38
728.903	14.38
728.929	-12.62
728.954	-1.62
728.979	25.38
729.004	-0.62
729.03	1.38
729.055	3.38
729.08	2.38
729.105	7.38
729.13	13.38
729.156	5.38
729.181	2.38
729.206	-3.62
729.231	-2.62
729.256	17.38
729.282	5.38
729.307	-13.62
729.332	5.38
729.357	-16.62
729.382	-4.62
729.408	10.38
729.433	1.38
729.458	-6.62
729.483	1.38
729.508	22.38
729.533	6.38
729.559	7.38
729.584	-8.62
729.609	13.38
729.634	10.38
729.659	8.38
729.684	2.38
729.71	25.38
729.735	1.38
729.76	-7.62
729.785	5.38
729.81	21.38
729.835	3.38
729.86	-9.62
729.886	15.38
729.911	4.38
729.936	20.38
729.961	43.38
729.986	31.38
730.011	73.38
730.036	224.38
730.061	1033.38
730.086	2777.38
730.112	3453.38
730.137	2858.38
730.162	2137.38
730.187	1685.38
730.212	1282.38
730.237	833.38
730.262	456.38
730.287	245.38
730.312	162.38
730.337	86.38
730.362	75.38
730.387	35.38
730.413	25.38
730.438	21.38
730.463	36.38
730.488	11.38
730.513	16.38
730.538	25.38
730.563	37.38
730.588	18.38
730.613	18.38
730.638	8.38
730.663	5.38
730.688	24.38
730.713	15.38
730.738	6.38
730.763	13.38
730.788	-1.62
730.813	9.38
730.838	-9.62
730.863	7.38
730.888	-7.62
730.913	1.38
730.938	-2.62
730.963	38.38
730.988	113.38
731.013	417.38
731.038	617.38
731.063	617.38
731.088	458.38
731.113	349.38
731.138	281.38
731.163	203.38
731.188	118.38
731.213	62.38
731.238	45.38
731.263	28.38
731.288	9.38
731.313	2.38
731.338	12.38
731.363	15.38
731.388	4.38
731.413	20.38
731.438	25.38
731.463	5.38
731.487	19.38
731.512	-6.62
731.537	5.38
731.562	6.38
731.587	8.38
731.612	2.38
731.637	-8.62
731.662	-8.62
731.687	10.38
731.712	-3.62
731.737	17.38
731.762	4.38
731.786	9.38
731.811	4.38
731.836	7.38
731.861	5.38
731.886	8.38
731.911	3.38
731.936	12.38
731.961	-0.62
731.986	-5.62
732.01	10.38
732.035	7.38
732.06	5.38
732.085	1.38
732.11	14.38
732.135	2.38
732.16	-1.62
732.184	-1.62
732.209	14.38
732.234	3.38
732.259	-1.62
732.284	3.38
732.309	1.38
732.334	-7.62
732.358	-5.62
732.383	-2.62
732.408	6.38
732.433	-1.62
732.458	8.38
732.482	2.38
732.507	5.38
732.532	9.38
732.557	17.38
732.582	14.38
732.607	22.38
732.631	55.38
732.656	82.38
732.681	153.38
732.706	337.38
732.73	470.38
732.755	412.38
732.78	305.38
732.805	237.38
732.83	173.38
732.854	129.38
732.879	107.38
732.904	52.38
732.929	32.38
732.953	19.38
732.978	8.38
733.003	5.38
733.028	-4.62
733.052	3.38
733.077	3.38
733.102	15.38
733.127	7.38
733.151	20.38
733.176	2.38
733.201	-9.62
733.226	4.38
733.25	12.38
733.275	21.38
733.3	10.38
733.324	19.38
733.349	11.38
733.374	26.38
733.399	-2.62
733.423	-2.62
733.448	25.38
733.473	2.38
733.497	0.38
733.522	-5.62
733.547	7.38
733.571	20.38
733.596	13.38
733.621	25.38
733.646	8.38
733.67	14.38
733.695	-4.62
733.72	5.38
733.744	15.38
733.769	14.38
733.794	10.38
733.818	12.38
733.843	4.38
733.867	0.38
733.892	8.38
733.917	13.38
733.941	16.38
733.966	1.38
733.991	5.38
734.015	19.38
734.04	12.38
734.065	12.38
734.089	26.38
734.114	-1.62
734.138	5.38
734.163	4.38
734.188	8.38
734.212	18.38
734.237	7.38
734.261	18.38
734.286	-1.62
734.311	5.38
734.335	-0.62
734.36	-6.62
734.384	17.38
734.409	2.38
734.434	-1.62
734.458	-3.62
734.483	-0.62
734.507	1.38
734.532	-5.62
734.556	-0.62
734.581	12.38
734.606	8.38
734.63	10.38
734.655	9.38
734.679	-2.62
734.704	-2.62
734.728	6.38
734.753	-0.62
734.777	-13.62
734.802	-4.62
734.826	10.38
734.851	15.38
734.876	17.38
734.9	16.38
734.925	-6.62
734.949	11.38
734.974	17.38
734.998	4.38
735.023	2.38
735.047	-7.62
735.072	11.38
735.096	13.38
735.121	1.38
735.145	10.38
735.17	5.38
735.194	4.38
735.219	-4.62
735.243	22.38
735.268	17.38
735.292	9.38
735.317	14.38
735.341	-0.62
735.365	-12.62
735.39	3.38
735.414	13.38
735.439	0.38
735.463	-6.62
735.488	12.38
735.512	7.38
735.537	0.38
735.561	-5.62
735.586	9.38
735.61	7.38
735.634	0.38
735.659	1.38
735.683	21.38
735.708	3.38
735.732	4.38
735.757	-13.62
735.781	-8.62
735.805	-2.62
735.83	-10.62
735.854	-5.62
735.879	9.38
735.903	20.38
735.927	7.38
735.952	-5.62
735.976	-13.62
736.001	1.38
736.025	6.38
736.049	6.38
736.074	-0.62
736.098	-13.62
736.123	5.38
736.147	14.38
736.171	9.38
736.196	3.38
736.22	-3.62
736.244	10.38
736.269	3.38
736.293	-3.62
736.317	7.38
736.342	12.38
736.366	21.38
736.39	17.38
736.415	18.38
736.439	12.38
736.463	4.38
736.488	13.38
736.512	-5.62
736.536	13.38
736.561	25.38
736.585	20.38
736.609	5.38
736.634	3.38
736.658	16.38
736.682	11.38
736.707	-7.62
736.731	14.38
736.755	-5.62
736.78	18.38
736.804	10.38
736.828	10.38
736.852	15.38
736.877	14.38
736.901	18.38
736.925	11.38
736.949	7.38
736.974	-11.62
736.998	5.38
737.022	11.38
737.047	1.38
737.071	1.38
737.095	14.38
737.119	28.38
737.144	13.38
737.168	6.38
737.192	6.38
737.216	11.38
737.241	-4.62
737.265	16.38
737.289	4.38
737.313	7.38
737.337	6.38
737.362	15.38
737.386	-4.62
737.41	4.38
737.434	12.38
737.459	7.38
737.483	9.38
737.507	3.38
737.531	15.38
737.555	7.38
737.58	17.38
737.604	9.38
737.628	1.38
737.652	3.38
737.676	-6.62
737.701	21.38
737.725	12.38
737.749	20.38
737.773	17.38
737.797	7.38
737.821	1.38
737.846	5.38
737.87	30.38
737.894	5.38
737.918	13.38
737.942	4.38
737.966	9.38
737.99	16.38
738.015	15.38
738.039	8.38
738.063	-7.62
738.087	1.38
738.111	13.38
738.135	19.38
738.159	9.38
738.184	1.38
738.208	13.38
738.232	23.38
738.256	10.38
738.28	-1.62
738.304	31.38
738.328	8.38
738.352	22.38
738.376	8.38
738.4	13.38
738.425	12.38
738.449	-2.62
738.473	17.38
738.497	14.38
738.521	12.38
738.545	1.38
738.569	-10.62
738.593	19.38
738.617	10.38
738.641	-0.62
738.665	0.38
738.689	11.38
738.713	0.38
738.737	19.38
738.762	22.38
738.786	5.38
738.81	16.38
738.834	15.38
738.858	14.38
738.882	18.38
738.906	3.38
738.93	6.38
738.954	19.38
738.978	21.38
739.002	17.38
739.026	15.38
739.05	13.38
739.074	7.38
739.098	21.38
739.122	21.38
739.146	10.38
739.17	27.38
739.194	21.38
739.218	-4.62
739.242	8.38
739.266	3.38
739.29	-0.62
739.314	9.38
739.338	10.38
739.362	0.38
739.386	13.38
739.41	-5.62
739.434	-1.62
739.458	35.38
739.482	25.38
739.506	13.38
739.53	-3.62
739.554	14.38
739.577	4.38
739.601	5.38
739.625	-2.62
739.649	-1.62
739.673	-5.62
739.697	16.38
739.721	-1.62
739.745	15.38
739.769	21.38
739.793	14.38
739.817	30.38
739.841	-8.62
739.865	12.38
739.889	-0.62
739.912	13.38
739.936	7.38
739.96	13.38
739.984	24.38
740.008	9.38
740.032	-5.62
740.056	19.38
740.08	16.38
740.104	10.38
740.127	9.38
740.151	6.38
740.175	8.38
740.199	8.38
740.223	36.38
740.247	18.38
740.271	12.38
740.295	-6.62
740.318	-16.62
740.342	1.38
740.366	7.38
740.39	5.38
740.414	1.38
740.438	2.38
740.461	1.38
740.485	5.38
740.509	-11.62
740.533	8.38
740.557	8.38
740.581	9.38
740.604	-1.62
740.628	7.38
740.652	7.38
740.676	0.38
740.7	25.38
740.723	2.38
740.747	-1.62
740.771	1.38
740.795	-5.62
740.819	14.38
740.842	17.38
740.866	26.38
740.89	13.38
740.914	-1.62
740.938	-1.62
740.961	12.38
740.985	3.38
741.009	5.38
741.033	19.38
741.056	4.38
741.08	-2.62
741.104	-2.62
741.128	11.38
741.151	18.38
741.175	-1.62
741.199	11.38
741.223	22.38
741.246	-5.62
741.27	5.38
741.294	20.38
741.318	-5.62
741.341	2.38
741.365	13.38
741.389	14.38
741.413	13.38
741.436	18.38
741.46	2.38
741.484	9.38
741.507	-9.62
741.531	16.38
741.555	19.38
741.579	6.38
741.602	11.38
741.626	5.38
741.65	6.38
741.673	9.38
741.697	8.38
741.721	2.38
741.744	-14.62
741.768	2.38
741.792	8.38
741.815	1.38
741.839	9.38
741.863	13.38
741.886	19.38
741.91	20.38
741.934	13.38
741.957	4.38
741.981	10.38
742.005	2.38
742.028	-4.62
742.052	-1.62
742.075	1.38
742.099	27.38
742.123	8.38
742.146	6.38
742.17	19.38
742.194	3.38
742.217	-2.62
742.241	-2.62
742.264	-9.62
742.288	18.38
742.312	1.38
742.335	-3.62
742.359	-2.62
742.382	31.38
742.406	46.38
742.43	-6.62
742.453	18.38
742.477	-0.62
742.5	3.38
742.524	8.38
742.548	6.38
742.571	-11.62
742.595	-6.62
742.618	-1.62
742.642	5.38
742.665	7.38
742.689	1.38
742.712	12.38
742.736	4.38
742.76	7.38
742.783	1.38
742.807	20.38
742.83	11.38
742.854	2.38
742.877	2.38
742.901	4.38
742.924	-6.62
742.948	16.38
742.971	10.38
742.995	5.38
743.018	-13.62
743.042	7.38
743.065	23.38
743.089	-7.62
743.112	3.38
743.136	4.38
743.159	11.38
743.183	-4.62
743.206	15.38
743.23	3.38
743.253	-4.62
743.277	2.38
743.3	-2.62
743.324	15.38
743.347	2.38
743.371	9.38
743.394	-2.62
743.418	6.38
743.441	15.38
743.465	12.38
743.488	-0.62
743.512	-1.62
743.535	17.38
743.558	-4.62
743.582	2.38
743.605	15.38
743.629	17.38
743.652	6.38
743.676	-1.62
743.699	12.38
743.723	22.38
743.746	9.38
743.769	11.38
743.793	16.38
743.816	6.38
743.84	26.38
743.863	-2.62
743.886	5.38
743.91	14.38
743.933	11.38
743.957	17.38
743.98	-1.62
744.003	16.38
744.027	26.38
744.05	12.38
744.074	14.38
744.097	1.38
744.12	9.38
744.144	14.38
744.167	4.38
744.19	9.38
744.214	-16.62
744.237	-10.62
744.26	15.38
744.284	-1.62
744.307	-4.62
744.331	9.38
744.354	-9.62
744.377	-11.62
744.401	-4.62
744.424	12.38
744.447	-3.62
744.471	-1.62
