Data from HighRes_mercury_15_13_11_07_2024_HR4C61891__9__15-14-24-086.txt Node

Date: Thu Nov 07 15:14:24 EST 2024
User: crc00042
Spectrometer: HR4C6189
Trigger mode: 4
Integration Time (sec): 1.000000E-1
Scans to average: 1
Electric dark correction enabled: true
Nonlinearity correction enabled: false
Boxcar width: 0
XAxis mode: Wavelengths
Number of Pixels in Spectrum: 3648
>>>>>Begin Spectral Data<<<<<
639.567	-81.31
639.602	-81.31
639.636	-81.31
639.67	-39.31
639.704	-11.31
639.738	-2.31
639.773	10.69
639.807	-23.31
639.841	4.69
639.875	13.69
639.909	3.69
639.943	-1.31
639.978	-7.31
640.012	-7.31
640.046	13.69
640.08	2.69
640.114	2.69
640.148	-10.31
640.182	-15.31
640.217	-0.31
640.251	15.69
640.285	6.69
640.319	-21.31
640.353	-4.31
640.387	1.69
640.421	12.69
640.455	3.69
640.49	4.69
640.524	-7.31
640.558	17.69
640.592	2.69
640.626	1.69
640.66	-5.31
640.694	-18.31
640.728	3.69
640.762	17.69
640.796	4.69
640.83	15.69
640.865	0.69
640.899	-0.31
640.933	-7.31
640.967	-15.31
641.001	-2.31
641.035	-6.31
641.069	-2.31
641.103	-5.31
641.137	1.69
641.171	-4.31
641.205	-3.31
641.239	11.69
641.273	26.69
641.307	-2.31
641.341	-4.31
641.375	3.69
641.409	4.69
641.443	-7.31
641.477	4.69
641.511	9.69
641.545	11.69
641.579	6.69
641.614	6.69
641.648	15.69
641.682	-5.31
641.716	3.69
641.75	2.69
641.784	-7.31
641.818	-2.31
641.852	6.69
641.886	-14.31
641.919	17.69
641.953	-7.31
641.987	-21.31
642.021	-5.31
642.055	1.69
642.089	13.69
642.123	-14.31
642.157	7.69
642.191	-1.31
642.225	21.69
642.259	-0.31
642.293	1.69
642.327	-0.31
642.361	-1.31
642.395	8.69
642.429	8.69
642.463	11.69
642.497	15.69
642.531	18.69
642.565	4.69
642.599	13.69
642.633	-10.31
642.666	8.69
642.7	16.69
642.734	10.69
642.768	-5.31
642.802	3.69
642.836	2.69
642.87	13.69
642.904	-10.31
642.938	13.69
642.972	-1.31
643.005	-2.31
643.039	26.69
643.073	0.69
643.107	0.69
643.141	-2.31
643.175	0.69
643.209	1.69
643.243	-6.31
643.276	11.69
643.31	4.69
643.344	-2.31
643.378	2.69
643.412	17.69
643.446	8.69
643.48	-9.31
643.513	0.69
643.547	-0.31
643.581	0.69
643.615	0.69
643.649	-0.31
643.683	-2.31
643.716	-0.31
643.75	10.69
643.784	-17.31
643.818	16.69
643.852	-6.31
643.886	-2.31
643.919	3.69
643.953	-4.31
643.987	0.69
644.021	7.69
644.055	7.69
644.088	8.69
644.122	-21.31
644.156	-13.31
644.19	-12.31
644.224	4.69
644.257	6.69
644.291	6.69
644.325	1.69
644.359	-9.31
644.392	12.69
644.426	-13.31
644.46	-6.31
644.494	-3.31
644.527	-7.31
644.561	6.69
644.595	-2.31
644.629	-16.31
644.662	0.69
644.696	22.69
644.73	-7.31
644.764	4.69
644.797	15.69
644.831	-4.31
644.865	7.69
644.899	1.69
644.932	13.69
644.966	-2.31
645	11.69
645.033	27.69
645.067	2.69
645.101	0.69
645.135	1.69
645.168	2.69
645.202	5.69
645.236	-8.31
645.269	11.69
645.303	8.69
645.337	-2.31
645.37	11.69
645.404	5.69
645.438	9.69
645.471	4.69
645.505	-4.31
645.539	1.69
645.572	-12.31
645.606	5.69
645.64	4.69
645.673	1.69
645.707	28.69
645.741	8.69
645.774	-9.31
645.808	15.69
645.842	11.69
645.875	14.69
645.909	-2.31
645.943	-15.31
645.976	-5.31
646.01	-2.31
646.043	-11.31
646.077	-7.31
646.111	6.69
646.144	7.69
646.178	14.69
646.212	6.69
646.245	-9.31
646.279	1.69
646.312	-5.31
646.346	-0.31
646.38	0.69
646.413	4.69
646.447	-1.31
646.48	-1.31
646.514	21.69
646.547	3.69
646.581	4.69
646.615	-18.31
646.648	0.69
646.682	-0.31
646.715	0.69
646.749	3.69
646.782	5.69
646.816	0.69
646.85	4.69
646.883	-5.31
646.917	13.69
646.95	17.69
646.984	16.69
647.017	1.69
647.051	7.69
647.084	11.69
647.118	3.69
647.151	3.69
647.185	18.69
647.218	0.69
647.252	6.69
647.285	-11.31
647.319	-21.31
647.353	1.69
647.386	18.69
647.42	4.69
647.453	-3.31
647.487	7.69
647.52	-1.31
647.553	4.69
647.587	-3.31
647.62	2.69
647.654	5.69
647.687	-8.31
647.721	15.69
647.754	15.69
647.788	8.69
647.821	-3.31
647.855	4.69
647.888	3.69
647.922	9.69
647.955	6.69
647.989	-12.31
648.022	1.69
648.055	10.69
648.089	-2.31
648.122	17.69
648.156	-6.31
648.189	3.69
648.223	6.69
648.256	9.69
648.29	-8.31
648.323	5.69
648.356	11.69
648.39	17.69
648.423	13.69
648.457	1.69
648.49	10.69
648.523	6.69
648.557	0.69
648.59	-12.31
648.624	0.69
648.657	5.69
648.69	29.69
648.724	20.69
648.757	25.69
648.791	9.69
648.824	6.69
648.857	10.69
648.891	18.69
648.924	3.69
648.957	36.69
648.991	-8.31
649.024	8.69
649.057	4.69
649.091	3.69
649.124	5.69
649.158	5.69
649.191	17.69
649.224	13.69
649.258	9.69
649.291	6.69
649.324	-6.31
649.358	8.69
649.391	3.69
649.424	-0.31
649.458	-19.31
649.491	-0.31
649.524	4.69
649.557	-2.31
649.591	-23.31
649.624	4.69
649.657	4.69
649.691	17.69
649.724	12.69
649.757	8.69
649.791	7.69
649.824	25.69
649.857	14.69
649.89	12.69
649.924	-10.31
649.957	3.69
649.99	-12.31
650.023	2.69
650.057	-3.31
650.09	-1.31
650.123	-3.31
650.157	14.69
650.19	20.69
650.223	-6.31
650.256	-3.31
650.29	-2.31
650.323	-8.31
650.356	22.69
650.389	7.69
650.423	-1.31
650.456	14.69
650.489	4.69
650.522	16.69
650.555	7.69
650.589	10.69
650.622	8.69
650.655	11.69
650.688	-4.31
650.721	6.69
650.755	1.69
650.788	10.69
650.821	-9.31
650.854	15.69
650.887	3.69
650.921	-11.31
650.954	-10.31
650.987	-13.31
651.02	-4.31
651.053	-12.31
651.087	-14.31
651.12	30.69
651.153	5.69
651.186	-10.31
651.219	-7.31
651.252	3.69
651.286	24.69
651.319	-4.31
651.352	-0.31
651.385	9.69
651.418	3.69
651.451	19.69
651.484	16.69
651.518	-14.31
651.551	6.69
651.584	-16.31
651.617	5.69
651.65	15.69
651.683	16.69
651.716	1.69
651.749	-14.31
651.783	1.69
651.816	-11.31
651.849	3.69
651.882	-4.31
651.915	-3.31
651.948	0.69
651.981	-17.31
652.014	-21.31
652.047	-10.31
652.08	-19.31
652.114	10.69
652.147	-2.31
652.18	-8.31
652.213	1.69
652.246	-5.31
652.279	-0.31
652.312	10.69
652.345	-12.31
652.378	9.69
652.411	20.69
652.444	13.69
652.477	-2.31
652.51	-14.31
652.543	-11.31
652.576	3.69
652.609	5.69
652.642	1.69
652.675	6.69
652.709	1.69
652.742	9.69
652.775	12.69
652.808	10.69
652.841	-5.31
652.874	-1.31
652.907	-10.31
652.94	1.69
652.973	-24.31
653.006	7.69
653.039	11.69
653.072	11.69
653.105	3.69
653.138	-17.31
653.171	-6.31
653.204	-6.31
653.237	6.69
653.27	-7.31
653.303	8.69
653.336	7.69
653.368	-2.31
653.401	5.69
653.434	-11.31
653.467	1.69
653.5	0.69
653.533	-18.31
653.566	6.69
653.599	-12.31
653.632	4.69
653.665	-2.31
653.698	-13.31
653.731	5.69
653.764	2.69
653.797	0.69
653.83	-4.31
653.863	8.69
653.896	2.69
653.929	-5.31
653.961	5.69
653.994	2.69
654.027	9.69
654.06	-8.31
654.093	5.69
654.126	12.69
654.159	-3.31
654.192	-5.31
654.225	-7.31
654.258	6.69
654.29	-1.31
654.323	3.69
654.356	-7.31
654.389	-16.31
654.422	-3.31
654.455	0.69
654.488	1.69
654.521	-14.31
654.553	-5.31
654.586	5.69
654.619	-0.31
654.652	-8.31
654.685	15.69
654.718	17.69
654.751	8.69
654.783	-6.31
654.816	8.69
654.849	-13.31
654.882	1.69
654.915	-18.31
654.948	2.69
654.98	0.69
655.013	-2.31
655.046	-3.31
655.079	-11.31
655.112	22.69
655.144	-4.31
655.177	15.69
655.21	29.69
655.243	20.69
655.276	5.69
655.308	0.69
655.341	-10.31
655.374	5.69
655.407	6.69
655.44	2.69
655.472	17.69
655.505	-5.31
655.538	0.69
655.571	20.69
655.603	4.69
655.636	-10.31
655.669	-4.31
655.702	-11.31
655.734	-8.31
655.767	-14.31
655.8	0.69
655.833	-8.31
655.865	11.69
655.898	-2.31
655.931	-5.31
655.964	0.69
655.996	-0.31
656.029	7.69
656.062	2.69
656.095	-4.31
656.127	5.69
656.16	0.69
656.193	-7.31
656.225	6.69
656.258	22.69
656.291	1.69
656.324	-1.31
656.356	16.69
656.389	8.69
656.422	20.69
656.454	-6.31
656.487	8.69
656.52	13.69
656.552	-13.31
656.585	1.69
656.618	8.69
656.65	14.69
656.683	5.69
656.716	2.69
656.748	-10.31
656.781	-15.31
656.814	-0.31
656.846	14.69
656.879	-1.31
656.912	-3.31
656.944	-13.31
656.977	-8.31
657.01	-5.31
657.042	5.69
657.075	9.69
657.108	-4.31
657.14	7.69
657.173	23.69
657.205	34.69
657.238	11.69
657.271	-6.31
657.303	-3.31
657.336	0.69
657.369	10.69
657.401	5.69
657.434	-11.31
657.466	9.69
657.499	10.69
657.532	-0.31
657.564	16.69
657.597	3.69
657.629	7.69
657.662	0.69
657.694	-8.31
657.727	-4.31
657.76	9.69
657.792	-22.31
657.825	-9.31
657.857	-18.31
657.89	14.69
657.922	11.69
657.955	-7.31
657.987	3.69
658.02	15.69
658.053	8.69
658.085	5.69
658.118	1.69
658.15	-3.31
658.183	21.69
658.215	-4.31
658.248	1.69
658.28	1.69
658.313	14.69
658.345	-0.31
658.378	-10.31
658.41	-2.31
658.443	22.69
658.475	-0.31
658.508	-4.31
658.54	0.69
658.573	7.69
658.605	1.69
658.638	10.69
658.67	1.69
658.703	2.69
658.735	5.69
658.768	-7.31
658.8	-30.31
658.833	16.69
658.865	11.69
658.898	-12.31
658.93	-0.31
658.963	-6.31
658.995	-3.31
659.028	-8.31
659.06	12.69
659.092	4.69
659.125	-9.31
659.157	-7.31
659.19	-8.31
659.222	-6.31
659.255	3.69
659.287	2.69
659.32	1.69
659.352	12.69
659.384	13.69
659.417	-2.31
659.449	19.69
659.482	5.69
659.514	-1.31
659.546	1.69
659.579	-7.31
659.611	-8.31
659.644	-2.31
659.676	-10.31
659.708	-11.31
659.741	-7.31
659.773	10.69
659.806	15.69
659.838	1.69
659.87	22.69
659.903	-14.31
659.935	-5.31
659.967	-9.31
660	-4.31
660.032	-9.31
660.065	10.69
660.097	-11.31
660.129	-6.31
660.162	-21.31
660.194	-8.31
660.226	-4.31
660.259	12.69
660.291	1.69
660.323	4.69
660.356	8.69
660.388	0.69
660.42	-12.31
660.453	3.69
660.485	6.69
660.517	5.69
660.55	10.69
660.582	-0.31
660.614	9.69
660.647	10.69
660.679	-11.31
660.711	18.69
660.743	-4.31
660.776	0.69
660.808	1.69
660.84	5.69
660.873	-9.31
660.905	1.69
660.937	11.69
660.969	6.69
661.002	8.69
661.034	10.69
661.066	5.69
661.099	2.69
661.131	-1.31
661.163	3.69
661.195	8.69
661.228	13.69
661.26	6.69
661.292	-5.31
661.324	-5.31
661.357	9.69
661.389	4.69
661.421	5.69
661.453	9.69
661.485	-14.31
661.518	-6.31
661.55	-16.31
661.582	-29.31
661.614	-11.31
661.647	-16.31
661.679	-7.31
661.711	9.69
661.743	-18.31
661.775	2.69
661.808	15.69
661.84	-5.31
661.872	5.69
661.904	-1.31
661.936	3.69
661.969	-7.31
662.001	-0.31
662.033	3.69
662.065	3.69
662.097	14.69
662.129	2.69
662.162	-24.31
662.194	-5.31
662.226	-15.31
662.258	-1.31
662.29	-1.31
662.322	-1.31
662.355	-4.31
662.387	21.69
662.419	17.69
662.451	16.69
662.483	7.69
662.515	12.69
662.547	12.69
662.58	1.69
662.612	-6.31
662.644	-8.31
662.676	-14.31
662.708	20.69
662.74	-5.31
662.772	6.69
662.804	-3.31
662.836	-5.31
662.869	12.69
662.901	17.69
662.933	-12.31
662.965	13.69
662.997	7.69
663.029	-8.31
663.061	-19.31
663.093	-8.31
663.125	18.69
663.157	14.69
663.189	-11.31
663.221	-0.31
663.254	9.69
663.286	5.69
663.318	-11.31
663.35	-11.31
663.382	-13.31
663.414	3.69
663.446	6.69
663.478	-20.31
663.51	6.69
663.542	-5.31
663.574	-9.31
663.606	12.69
663.638	-14.31
663.67	0.69
663.702	9.69
663.734	11.69
663.766	11.69
663.798	3.69
663.83	3.69
663.862	27.69
663.894	2.69
663.926	7.69
663.958	16.69
663.99	-8.31
664.022	-14.31
664.054	0.69
664.086	2.69
664.118	-11.31
664.15	-29.31
664.182	4.69
664.214	0.69
664.246	13.69
664.278	3.69
664.31	15.69
664.342	11.69
664.374	15.69
664.406	-1.31
664.438	-5.31
664.47	16.69
664.502	-11.31
664.534	-14.31
664.566	-13.31
664.598	6.69
664.63	-7.31
664.662	16.69
664.693	1.69
664.725	-9.31
664.757	-17.31
664.789	-5.31
664.821	5.69
664.853	5.69
664.885	1.69
664.917	2.69
664.949	7.69
664.981	13.69
665.013	17.69
665.045	3.69
665.076	-7.31
665.108	-0.31
665.14	4.69
665.172	-5.31
665.204	-4.31
665.236	-5.31
665.268	15.69
665.3	-2.31
665.331	-16.31
665.363	5.69
665.395	-1.31
665.427	1.69
665.459	7.69
665.491	2.69
665.523	-6.31
665.555	-12.31
665.586	13.69
665.618	8.69
665.65	-8.31
665.682	7.69
665.714	-0.31
665.746	0.69
665.777	2.69
665.809	-3.31
665.841	8.69
665.873	0.69
665.905	-4.31
665.937	1.69
665.968	1.69
666	6.69
666.032	4.69
666.064	2.69
666.096	-11.31
666.127	3.69
666.159	5.69
666.191	7.69
666.223	9.69
666.255	0.69
666.286	2.69
666.318	-3.31
666.35	25.69
666.382	4.69
666.413	-3.31
666.445	-8.31
666.477	-6.31
666.509	-10.31
666.54	8.69
666.572	-3.31
666.604	-6.31
666.636	-6.31
666.667	22.69
666.699	20.69
666.731	1.69
666.763	-1.31
666.794	-3.31
666.826	2.69
666.858	-18.31
666.89	0.69
666.921	-1.31
666.953	4.69
666.985	5.69
667.017	11.69
667.048	21.69
667.08	-6.31
667.112	-0.31
667.143	-4.31
667.175	5.69
667.207	3.69
667.238	14.69
667.27	3.69
667.302	-17.31
667.334	20.69
667.365	21.69
667.397	9.69
667.429	-11.31
667.46	4.69
667.492	6.69
667.524	-10.31
667.555	-1.31
667.587	8.69
667.619	-0.31
667.65	2.69
667.682	15.69
667.714	-4.31
667.745	-1.31
667.777	7.69
667.808	6.69
667.84	2.69
667.872	3.69
667.903	12.69
667.935	1.69
667.967	7.69
667.998	8.69
668.03	-0.31
668.061	-1.31
668.093	-5.31
668.125	3.69
668.156	6.69
668.188	1.69
668.22	-2.31
668.251	8.69
668.283	7.69
668.314	17.69
668.346	9.69
668.377	15.69
668.409	21.69
668.441	22.69
668.472	8.69
668.504	6.69
668.535	5.69
668.567	25.69
668.599	3.69
668.63	7.69
668.662	-11.31
668.693	-4.31
668.725	5.69
668.756	-1.31
668.788	-6.31
668.819	-4.31
668.851	17.69
668.882	15.69
668.914	-0.31
668.946	-5.31
668.977	4.69
669.009	-2.31
669.04	-1.31
669.072	17.69
669.103	13.69
669.135	3.69
669.166	0.69
669.198	-3.31
669.229	20.69
669.261	-1.31
669.292	-26.31
669.324	-0.31
669.355	11.69
669.387	-10.31
669.418	-0.31
669.45	-3.31
669.481	-2.31
669.513	17.69
669.544	-2.31
669.576	8.69
669.607	10.69
669.639	26.69
669.67	-5.31
669.701	10.69
669.733	-18.31
669.764	-1.31
669.796	0.69
669.827	-17.31
669.859	4.69
669.89	-1.31
669.922	18.69
669.953	8.69
669.985	3.69
670.016	11.69
670.047	5.69
670.079	-3.31
670.11	12.69
670.142	2.69
670.173	-2.31
670.204	-7.31
670.236	0.69
670.267	1.69
670.299	-7.31
670.33	3.69
670.362	7.69
670.393	-5.31
670.424	0.69
670.456	-15.31
670.487	-1.31
670.518	-8.31
670.55	13.69
670.581	-13.31
670.613	-1.31
670.644	-3.31
670.675	-5.31
670.707	9.69
670.738	1.69
670.769	1.69
670.801	-13.31
670.832	6.69
670.864	8.69
670.895	-12.31
670.926	2.69
670.958	-3.31
670.989	-7.31
671.02	5.69
671.052	-5.31
671.083	-4.31
671.114	11.69
671.146	9.69
671.177	-2.31
671.208	-4.31
671.24	-2.31
671.271	-1.31
671.302	11.69
671.333	-16.31
671.365	-7.31
671.396	-12.31
671.427	0.69
671.459	5.69
671.49	2.69
671.521	-2.31
671.553	8.69
671.584	17.69
671.615	-9.31
671.646	1.69
671.678	-4.31
671.709	-6.31
671.74	-21.31
671.771	-17.31
671.803	8.69
671.834	-0.31
671.865	-4.31
671.896	16.69
671.928	-7.31
671.959	5.69
671.99	-1.31
672.021	-5.31
672.053	-3.31
672.084	6.69
672.115	21.69
672.146	9.69
672.178	-17.31
672.209	3.69
672.24	-0.31
672.271	32.69
672.303	2.69
672.334	-14.31
672.365	-7.31
672.396	4.69
672.427	7.69
672.459	25.69
672.49	19.69
672.521	6.69
672.552	-5.31
672.583	0.69
672.615	-15.31
672.646	1.69
672.677	-14.31
672.708	11.69
672.739	0.69
672.77	12.69
672.802	1.69
672.833	-3.31
672.864	-2.31
672.895	-6.31
672.926	5.69
672.957	-9.31
672.989	3.69
673.02	-2.31
673.051	-10.31
673.082	-9.31
673.113	-12.31
673.144	8.69
673.175	-3.31
673.206	-12.31
673.238	2.69
673.269	1.69
673.3	-15.31
673.331	-0.31
673.362	-0.31
673.393	14.69
673.424	-6.31
673.455	21.69
673.487	1.69
673.518	16.69
673.549	-0.31
673.58	17.69
673.611	10.69
673.642	1.69
673.673	-6.31
673.704	-16.31
673.735	2.69
673.766	-1.31
673.797	-0.31
673.828	1.69
673.86	-8.31
673.891	-10.31
673.922	-4.31
673.953	3.69
673.984	13.69
674.015	-1.31
674.046	17.69
674.077	11.69
674.108	0.69
674.139	-2.31
674.17	-5.31
674.201	-16.31
674.232	-12.31
674.263	-5.31
674.294	-10.31
674.325	0.69
674.356	16.69
674.387	15.69
674.418	-0.31
674.449	-8.31
674.48	7.69
674.511	-0.31
674.542	1.69
674.573	-8.31
674.604	-10.31
674.635	4.69
674.666	22.69
674.697	-0.31
674.728	-0.31
674.759	-8.31
674.79	-10.31
674.821	-19.31
674.852	-0.31
674.883	6.69
674.914	17.69
674.945	12.69
674.976	-2.31
675.007	-2.31
675.038	-4.31
675.069	-14.31
675.1	3.69
675.131	4.69
675.162	-10.31
675.193	-15.31
675.224	6.69
675.254	-7.31
675.285	4.69
675.316	18.69
675.347	19.69
675.378	-10.31
675.409	-3.31
675.44	7.69
675.471	3.69
675.502	-7.31
675.533	-3.31
675.564	-1.31
675.595	2.69
675.625	12.69
675.656	15.69
675.687	6.69
675.718	-25.31
675.749	9.69
675.78	7.69
675.811	-14.31
675.842	5.69
675.873	0.69
675.903	-0.31
675.934	-1.31
675.965	-0.31
675.996	-7.31
676.027	-2.31
676.058	-7.31
676.089	-20.31
676.119	-2.31
676.15	-3.31
676.181	0.69
676.212	-8.31
676.243	-7.31
676.274	-7.31
676.304	25.69
676.335	-15.31
676.366	-6.31
676.397	-23.31
676.428	-14.31
676.459	-4.31
676.489	7.69
676.52	21.69
676.551	-5.31
676.582	-9.31
676.613	1.69
676.643	-12.31
676.674	-2.31
676.705	-10.31
676.736	3.69
676.767	12.69
676.797	12.69
676.828	4.69
676.859	-0.31
676.89	-6.31
676.92	6.69
676.951	11.69
676.982	18.69
677.013	1.69
677.044	8.69
677.074	15.69
677.105	-5.31
677.136	4.69
677.167	13.69
677.197	6.69
677.228	-11.31
677.259	-9.31
677.289	-6.31
677.32	-20.31
677.351	-14.31
677.382	8.69
677.412	-2.31
677.443	4.69
677.474	5.69
677.505	-6.31
677.535	8.69
677.566	-4.31
677.597	-7.31
677.627	-14.31
677.658	-5.31
677.689	3.69
677.72	-1.31
677.75	-6.31
677.781	-7.31
677.812	-6.31
677.842	-1.31
677.873	5.69
677.904	-4.31
677.934	9.69
677.965	-2.31
677.996	-25.31
678.026	-14.31
678.057	0.69
678.088	-12.31
678.118	0.69
678.149	-0.31
678.18	-17.31
678.21	-6.31
678.241	-0.31
678.272	1.69
678.302	-4.31
678.333	-3.31
678.363	1.69
678.394	1.69
678.425	11.69
678.455	-10.31
678.486	14.69
678.517	-6.31
678.547	-15.31
678.578	17.69
678.608	8.69
678.639	4.69
678.67	4.69
678.7	-6.31
678.731	-1.31
678.761	-10.31
678.792	2.69
678.823	-6.31
678.853	0.69
678.884	-18.31
678.914	10.69
678.945	-6.31
678.975	-13.31
679.006	3.69
679.037	-1.31
679.067	20.69
679.098	-11.31
679.128	-15.31
679.159	-5.31
679.189	26.69
679.22	-10.31
679.25	-9.31
679.281	-10.31
679.312	4.69
679.342	14.69
679.373	17.69
679.403	-1.31
679.434	0.69
679.464	-12.31
679.495	0.69
679.525	-6.31
679.556	-0.31
679.586	3.69
679.617	1.69
679.647	-6.31
679.678	-1.31
679.708	9.69
679.739	-16.31
679.769	-6.31
679.8	-4.31
679.83	5.69
679.861	7.69
679.891	-14.31
679.922	-28.31
679.952	-9.31
679.983	-0.31
680.013	-4.31
680.044	-4.31
680.074	-4.31
680.105	-1.31
680.135	3.69
680.165	14.69
680.196	7.69
680.226	1.69
680.257	-1.31
680.287	-11.31
680.318	-1.31
680.348	-6.31
680.379	9.69
680.409	12.69
680.439	7.69
680.47	-7.31
680.5	-10.31
680.531	0.69
680.561	1.69
680.592	13.69
680.622	6.69
680.652	6.69
680.683	12.69
680.713	-4.31
680.744	-7.31
680.774	-12.31
680.804	20.69
680.835	-8.31
680.865	-19.31
680.896	4.69
680.926	7.69
680.956	-1.31
680.987	0.69
681.017	-11.31
681.047	1.69
681.078	-0.31
681.108	2.69
681.139	0.69
681.169	-7.31
681.199	-1.31
681.23	19.69
681.26	13.69
681.29	-6.31
681.321	-27.31
681.351	3.69
681.381	-4.31
681.412	-6.31
681.442	-2.31
681.472	13.69
681.503	-0.31
681.533	8.69
681.563	-5.31
681.594	-1.31
681.624	0.69
681.654	-9.31
681.685	-13.31
681.715	5.69
681.745	8.69
681.775	4.69
681.806	-2.31
681.836	-6.31
681.866	-21.31
681.897	9.69
681.927	-6.31
681.957	-18.31
681.987	-0.31
682.018	-4.31
682.048	-5.31
682.078	-15.31
682.109	19.69
682.139	21.69
682.169	-9.31
682.199	-3.31
682.23	1.69
682.26	2.69
682.29	-7.31
682.32	-15.31
682.351	0.69
682.381	6.69
682.411	-2.31
682.441	8.69
682.472	-2.31
682.502	3.69
682.532	0.69
682.562	9.69
682.592	-0.31
682.623	10.69
682.653	-9.31
682.683	0.69
682.713	-7.31
682.743	-6.31
682.774	2.69
682.804	4.69
682.834	13.69
682.864	3.69
682.894	5.69
682.925	8.69
682.955	-1.31
682.985	-4.31
683.015	7.69
683.045	7.69
683.076	-1.31
683.106	0.69
683.136	-6.31
683.166	0.69
683.196	-1.31
683.226	0.69
683.257	-18.31
683.287	-8.31
683.317	3.69
683.347	-6.31
683.377	-4.31
683.407	8.69
683.437	0.69
683.468	4.69
683.498	-13.31
683.528	-7.31
683.558	-5.31
683.588	-10.31
683.618	15.69
683.648	-0.31
683.678	-5.31
683.708	9.69
683.739	1.69
683.769	-19.31
683.799	-0.31
683.829	9.69
683.859	21.69
683.889	11.69
683.919	6.69
683.949	-12.31
683.979	-9.31
684.009	-4.31
684.039	-0.31
684.07	-7.31
684.1	6.69
684.13	13.69
684.16	-0.31
684.19	5.69
684.22	0.69
684.25	4.69
684.28	-11.31
684.31	21.69
684.34	18.69
684.37	13.69
684.4	2.69
684.43	15.69
684.46	8.69
684.49	0.69
684.52	6.69
684.55	27.69
684.58	-3.31
684.61	-6.31
684.64	11.69
684.67	12.69
684.7	4.69
684.73	3.69
684.76	2.69
684.79	32.69
684.82	-5.31
684.85	-13.31
684.88	-0.31
684.91	4.69
684.94	-11.31
684.97	-9.31
685	-1.31
685.03	-4.31
685.06	-13.31
685.09	-2.31
685.12	-11.31
685.15	-6.31
685.18	20.69
685.21	8.69
685.24	14.69
685.27	-3.31
685.3	-15.31
685.33	10.69
685.36	7.69
685.39	-2.31
685.42	6.69
685.45	-16.31
685.48	-0.31
685.51	-1.31
685.54	9.69
685.569	2.69
685.599	3.69
685.629	12.69
685.659	-3.31
685.689	-15.31
685.719	2.69
685.749	-6.31
685.779	8.69
685.809	4.69
685.839	-1.31
685.869	6.69
685.898	0.69
685.928	-1.31
685.958	-25.31
685.988	2.69
686.018	-1.31
686.048	3.69
686.078	-4.31
686.108	9.69
686.137	3.69
686.167	10.69
686.197	-15.31
686.227	11.69
686.257	25.69
686.287	18.69
686.317	6.69
686.346	-14.31
686.376	-5.31
686.406	-11.31
686.436	24.69
686.466	-10.31
686.496	-2.31
686.525	6.69
686.555	4.69
686.585	24.69
686.615	26.69
686.645	12.69
686.675	7.69
686.704	0.69
686.734	1.69
686.764	-4.31
686.794	-3.31
686.824	-2.31
686.853	6.69
686.883	1.69
686.913	12.69
686.943	-11.31
686.973	-3.31
687.002	9.69
687.032	1.69
687.062	-3.31
687.092	1.69
687.121	-9.31
687.151	16.69
687.181	10.69
687.211	17.69
687.24	4.69
687.27	6.69
687.3	-2.31
687.33	-3.31
687.359	-18.31
687.389	-1.31
687.419	-3.31
687.449	11.69
687.478	10.69
687.508	-0.31
687.538	-6.31
687.568	-3.31
687.597	-10.31
687.627	-19.31
687.657	-1.31
687.686	2.69
687.716	25.69
687.746	-5.31
687.776	0.69
687.805	9.69
687.835	-5.31
687.865	9.69
687.894	28.69
687.924	-5.31
687.954	0.69
687.983	-4.31
688.013	12.69
688.043	7.69
688.072	2.69
688.102	-3.31
688.132	-6.31
688.161	11.69
688.191	-1.31
688.221	21.69
688.25	-3.31
688.28	-20.31
688.31	-11.31
688.339	-14.31
688.369	-7.31
688.399	-26.31
688.428	-2.31
688.458	-0.31
688.488	-4.31
688.517	-3.31
688.547	1.69
688.576	23.69
688.606	0.69
688.636	-3.31
688.665	3.69
688.695	5.69
688.725	4.69
688.754	7.69
688.784	12.69
688.813	3.69
688.843	-10.31
688.873	-10.31
688.902	-3.31
688.932	-3.31
688.961	9.69
688.991	22.69
689.02	15.69
689.05	-5.31
689.08	7.69
689.109	4.69
689.139	-0.31
689.168	4.69
689.198	-10.31
689.227	-7.31
689.257	0.69
689.287	7.69
689.316	-5.31
689.346	2.69
689.375	-2.31
689.405	10.69
689.434	-8.31
689.464	14.69
689.493	7.69
689.523	5.69
689.552	3.69
689.582	-1.31
689.611	-5.31
689.641	9.69
689.67	4.69
689.7	4.69
689.73	11.69
689.759	1.69
689.789	16.69
689.818	-5.31
689.848	2.69
689.877	24.69
689.906	4.69
689.936	-2.31
689.965	-7.31
689.995	13.69
690.024	18.69
690.054	-0.31
690.083	1.69
690.113	-5.31
690.142	-2.31
690.172	4.69
690.201	29.69
690.231	2.69
690.26	15.69
690.29	-1.31
690.319	20.69
690.348	3.69
690.378	13.69
690.407	3.69
690.437	7.69
690.466	7.69
690.496	3.69
690.525	9.69
690.555	-2.31
690.584	-5.31
690.613	-2.31
690.643	0.69
690.672	14.69
690.702	29.69
690.731	3.69
690.76	17.69
690.79	46.69
690.819	28.69
690.849	54.69
690.878	35.69
690.907	19.69
690.937	21.69
690.966	13.69
690.996	5.69
691.025	1.69
691.054	6.69
691.084	5.69
691.113	7.69
691.142	7.69
691.172	-7.31
691.201	17.69
691.23	4.69
691.26	18.69
691.289	6.69
691.319	-4.31
691.348	1.69
691.377	29.69
691.407	10.69
691.436	-7.31
691.465	11.69
691.495	7.69
691.524	2.69
691.553	6.69
691.583	-4.31
691.612	13.69
691.641	14.69
691.67	1.69
691.7	13.69
691.729	-6.31
691.758	1.69
691.788	0.69
691.817	4.69
691.846	-8.31
691.876	1.69
691.905	-4.31
691.934	-15.31
691.963	2.69
691.993	3.69
692.022	-11.31
692.051	-10.31
692.081	5.69
692.11	30.69
692.139	22.69
692.168	9.69
692.198	12.69
692.227	1.69
692.256	-9.31
692.285	2.69
692.315	2.69
692.344	9.69
692.373	2.69
692.402	-12.31
692.432	-3.31
692.461	12.69
692.49	5.69
692.519	-3.31
692.548	11.69
692.578	9.69
692.607	0.69
692.636	-5.31
692.665	10.69
692.694	8.69
692.724	1.69
692.753	5.69
692.782	12.69
692.811	-15.31
692.84	-10.31
692.87	4.69
692.899	-7.31
692.928	4.69
692.957	5.69
692.986	4.69
693.016	-7.31
693.045	6.69
693.074	11.69
693.103	8.69
693.132	7.69
693.161	-2.31
693.191	-2.31
693.22	-3.31
693.249	0.69
693.278	2.69
693.307	8.69
693.336	-14.31
693.365	-10.31
693.395	-7.31
693.424	19.69
693.453	24.69
693.482	14.69
693.511	10.69
693.54	-8.31
693.569	3.69
693.598	-4.31
693.628	16.69
693.657	10.69
693.686	20.69
693.715	1.69
693.744	2.69
693.773	16.69
693.802	13.69
693.831	3.69
693.86	6.69
693.889	-12.31
693.919	8.69
693.948	-5.31
693.977	12.69
694.006	17.69
694.035	10.69
694.064	-7.31
694.093	-6.31
694.122	14.69
694.151	1.69
694.18	12.69
694.209	21.69
694.238	2.69
694.267	32.69
694.296	7.69
694.325	5.69
694.354	15.69
694.383	-0.31
694.412	-7.31
694.441	-2.31
694.471	5.69
694.5	-11.31
694.529	-3.31
694.558	2.69
694.587	9.69
694.616	8.69
694.645	-7.31
694.674	18.69
694.703	33.69
694.732	2.69
694.761	1.69
694.79	9.69
694.819	-5.31
694.848	-8.31
694.877	1.69
694.906	27.69
694.935	0.69
694.963	22.69
694.992	21.69
695.021	9.69
695.05	14.69
695.079	1.69
695.108	12.69
695.137	16.69
695.166	10.69
695.195	-8.31
695.224	4.69
695.253	-4.31
695.282	1.69
695.311	10.69
695.34	8.69
695.369	4.69
695.398	1.69
695.427	25.69
695.456	0.69
695.485	18.69
695.513	12.69
695.542	7.69
695.571	6.69
695.6	13.69
695.629	11.69
695.658	9.69
695.687	-8.31
695.716	13.69
695.745	28.69
695.774	-9.31
695.802	-4.31
695.831	0.69
695.86	21.69
695.889	13.69
695.918	21.69
695.947	-3.31
695.976	6.69
696.005	2.69
696.033	13.69
696.062	23.69
696.091	-8.31
696.12	-0.31
696.149	2.69
696.178	8.69
696.207	6.69
696.235	-24.31
696.264	6.69
696.293	17.69
696.322	10.69
696.351	8.69
696.38	10.69
696.408	9.69
696.437	8.69
696.466	1.69
696.495	15.69
696.524	22.69
696.553	7.69
696.581	6.69
696.61	8.69
696.639	15.69
696.668	25.69
696.697	-0.31
696.725	-4.31
696.754	10.69
696.783	4.69
696.812	5.69
696.84	18.69
696.869	13.69
696.898	2.69
696.927	10.69
696.956	15.69
696.984	5.69
697.013	9.69
697.042	10.69
697.071	1.69
697.099	1.69
697.128	14.69
697.157	-4.31
697.186	5.69
697.214	9.69
697.243	-11.31
697.272	6.69
697.301	5.69
697.329	9.69
697.358	6.69
697.387	21.69
697.415	5.69
697.444	7.69
697.473	-2.31
697.502	-16.31
697.53	7.69
697.559	3.69
697.588	-1.31
697.616	-3.31
697.645	8.69
697.674	35.69
697.703	-2.31
697.731	-1.31
697.76	5.69
697.789	12.69
697.817	3.69
697.846	11.69
697.875	5.69
697.903	16.69
697.932	2.69
697.961	15.69
697.989	15.69
698.018	1.69
698.047	3.69
698.075	7.69
698.104	0.69
698.133	-4.31
698.161	-11.31
698.19	6.69
698.218	2.69
698.247	15.69
698.276	8.69
698.304	23.69
698.333	25.69
698.362	17.69
698.39	12.69
698.419	20.69
698.447	7.69
698.476	7.69
698.505	14.69
698.533	6.69
698.562	3.69
698.591	0.69
698.619	-10.31
698.648	11.69
698.676	8.69
698.705	-2.31
698.733	-0.31
698.762	14.69
698.791	-3.31
698.819	5.69
698.848	10.69
698.876	18.69
698.905	1.69
698.933	4.69
698.962	19.69
698.991	16.69
699.019	8.69
699.048	-8.31
699.076	3.69
699.105	-15.31
699.133	-3.31
699.162	-6.31
699.19	27.69
699.219	5.69
699.248	0.69
699.276	-13.31
699.305	-5.31
699.333	12.69
699.362	0.69
699.39	3.69
699.419	0.69
699.447	10.69
699.476	18.69
699.504	-10.31
699.533	1.69
699.561	-5.31
699.59	17.69
699.618	6.69
699.647	4.69
699.675	5.69
699.704	14.69
699.732	4.69
699.761	8.69
699.789	-7.31
699.818	0.69
699.846	-2.31
699.874	3.69
699.903	1.69
699.931	-3.31
699.96	4.69
699.988	1.69
700.017	-3.31
700.045	-16.31
700.074	-18.31
700.102	-6.31
700.13	-0.31
700.159	11.69
700.187	6.69
700.216	-7.31
700.244	-6.31
700.273	2.69
700.301	-1.31
700.329	10.69
700.358	15.69
700.386	-19.31
700.415	-7.31
700.443	4.69
700.472	3.69
700.5	-7.31
700.528	-2.31
700.557	1.69
700.585	-8.31
700.614	6.69
700.642	7.69
700.67	17.69
700.699	-5.31
700.727	-6.31
700.755	2.69
700.784	-3.31
700.812	-3.31
700.841	-4.31
700.869	-2.31
700.897	-9.31
700.926	-10.31
700.954	7.69
700.982	3.69
701.011	7.69
701.039	1.69
701.067	-10.31
701.096	9.69
701.124	-2.31
701.152	20.69
701.181	-4.31
701.209	-1.31
701.237	-13.31
701.266	1.69
701.294	-24.31
701.322	11.69
701.351	3.69
701.379	-1.31
701.407	-2.31
701.435	20.69
701.464	30.69
701.492	45.69
701.52	12.69
701.549	20.69
701.577	-16.31
701.605	-7.31
701.634	-2.31
701.662	14.69
701.69	-8.31
701.718	-10.31
701.747	-3.31
701.775	13.69
701.803	-12.31
701.831	20.69
701.86	-6.31
701.888	10.69
701.916	0.69
701.944	5.69
701.973	-3.31
702.001	4.69
702.029	-5.31
702.057	-8.31
702.086	-15.31
702.114	-6.31
702.142	20.69
702.17	-7.31
702.199	-2.31
702.227	-3.31
702.255	2.69
702.283	-21.31
702.311	-8.31
702.34	1.69
702.368	-4.31
702.396	-9.31
702.424	-5.31
702.452	-7.31
702.481	-11.31
702.509	-7.31
702.537	-3.31
702.565	-1.31
702.593	-5.31
702.621	-2.31
702.65	17.69
702.678	4.69
702.706	20.69
702.734	-1.31
702.762	12.69
702.79	-1.31
702.819	3.69
702.847	14.69
702.875	5.69
702.903	1.69
702.931	-4.31
702.959	11.69
702.988	19.69
703.016	-19.31
703.044	3.69
703.072	-7.31
703.1	-8.31
703.128	1.69
703.156	-13.31
703.184	-14.31
703.212	10.69
703.241	-1.31
703.269	-1.31
703.297	-5.31
703.325	3.69
703.353	-13.31
703.381	-3.31
703.409	-2.31
703.437	-12.31
703.465	-0.31
703.493	-9.31
703.522	2.69
703.55	13.69
703.578	12.69
703.606	-14.31
703.634	-6.31
703.662	-13.31
703.69	0.69
703.718	-7.31
703.746	15.69
703.774	2.69
703.802	21.69
703.83	-11.31
703.858	7.69
703.886	-4.31
703.914	-7.31
703.942	7.69
703.97	-1.31
703.998	10.69
704.027	29.69
704.055	15.69
704.083	-7.31
704.111	-14.31
704.139	12.69
704.167	5.69
704.195	-2.31
704.223	-10.31
704.251	1.69
704.279	-2.31
704.307	-5.31
704.335	-6.31
704.363	-1.31
704.391	-19.31
704.419	-6.31
704.447	-1.31
704.475	-2.31
704.503	-5.31
704.531	5.69
704.558	4.69
704.586	9.69
704.614	5.69
704.642	6.69
704.67	-3.31
704.698	1.69
704.726	-3.31
704.754	-14.31
704.782	1.69
704.81	-2.31
704.838	12.69
704.866	18.69
704.894	-1.31
704.922	-9.31
704.95	8.69
704.978	2.69
705.006	1.69
705.034	13.69
705.061	-7.31
705.089	13.69
705.117	8.69
705.145	7.69
705.173	4.69
705.201	12.69
705.229	2.69
705.257	1.69
705.285	-3.31
705.313	0.69
705.34	-0.31
705.368	-6.31
705.396	-3.31
705.424	-6.31
705.452	2.69
705.48	-3.31
705.508	-8.31
705.536	-12.31
705.563	-9.31
705.591	-4.31
705.619	20.69
705.647	-8.31
705.675	-0.31
705.703	13.69
705.731	8.69
705.758	10.69
705.786	7.69
705.814	23.69
705.842	9.69
705.87	17.69
705.898	12.69
705.925	-8.31
705.953	-5.31
705.981	-5.31
706.009	-4.31
706.037	6.69
706.065	0.69
706.092	-1.31
706.12	14.69
706.148	-3.31
706.176	5.69
706.204	7.69
706.231	-2.31
706.259	-11.31
706.287	-12.31
706.315	0.69
706.342	0.69
706.37	10.69
706.398	7.69
706.426	0.69
706.454	15.69
706.481	20.69
706.509	3.69
706.537	-2.31
706.565	-3.31
706.592	-5.31
706.62	4.69
706.648	15.69
706.676	6.69
706.703	-3.31
706.731	2.69
706.759	-16.31
706.787	6.69
706.814	3.69
706.842	-4.31
706.87	-5.31
706.897	-10.31
706.925	-2.31
706.953	19.69
706.981	20.69
707.008	9.69
707.036	1.69
707.064	0.69
707.091	-12.31
707.119	-3.31
707.147	-10.31
707.174	-19.31
707.202	18.69
707.23	-5.31
707.258	18.69
707.285	-6.31
707.313	-4.31
707.341	-13.31
707.368	-3.31
707.396	-0.31
707.424	18.69
707.451	1.69
707.479	-0.31
707.507	-5.31
707.534	-11.31
707.562	-10.31
707.59	-18.31
707.617	-18.31
707.645	-7.31
707.672	-4.31
707.7	-11.31
707.728	-5.31
707.755	-0.31
707.783	-3.31
707.811	-8.31
707.838	-18.31
707.866	-2.31
707.893	16.69
707.921	-13.31
707.949	-6.31
707.976	15.69
708.004	9.69
708.031	-0.31
708.059	-24.31
708.087	0.69
708.114	-1.31
708.142	-9.31
708.169	-21.31
708.197	-21.31
708.225	1.69
708.252	3.69
708.28	20.69
708.307	15.69
708.335	-4.31
708.362	-11.31
708.39	-8.31
708.418	2.69
708.445	-11.31
708.473	-14.31
708.5	1.69
708.528	-0.31
708.555	2.69
708.583	13.69
708.61	-14.31
708.638	13.69
708.665	-4.31
708.693	-1.31
708.72	-1.31
708.748	-15.31
708.776	-3.31
708.803	18.69
708.831	-3.31
708.858	22.69
708.886	-0.31
708.913	2.69
708.941	-8.31
708.968	7.69
708.996	-1.31
709.023	4.69
709.051	-11.31
709.078	-20.31
709.105	-9.31
709.133	-8.31
709.16	-11.31
709.188	17.69
709.215	4.69
709.243	-13.31
709.27	-6.31
709.298	2.69
709.325	-1.31
709.353	0.69
709.38	13.69
709.408	-2.31
709.435	0.69
709.462	12.69
709.49	-0.31
709.517	-2.31
709.545	-7.31
709.572	-3.31
709.6	1.69
709.627	5.69
709.655	-1.31
709.682	-6.31
709.709	4.69
709.737	16.69
709.764	4.69
709.792	24.69
709.819	14.69
709.846	-8.31
709.874	5.69
709.901	23.69
709.929	20.69
709.956	10.69
709.983	-3.31
710.011	-5.31
710.038	-0.31
710.066	20.69
710.093	30.69
710.12	4.69
710.148	-3.31
710.175	-3.31
710.202	7.69
710.23	4.69
710.257	-17.31
710.284	16.69
710.312	2.69
710.339	-1.31
710.366	2.69
710.394	-22.31
710.421	-5.31
710.448	5.69
710.476	-11.31
710.503	-5.31
710.53	2.69
710.558	11.69
710.585	13.69
710.612	-7.31
710.64	-0.31
710.667	5.69
710.694	-3.31
710.722	-3.31
710.749	-6.31
710.776	-6.31
710.804	12.69
710.831	-2.31
710.858	9.69
710.885	-7.31
710.913	5.69
710.94	19.69
710.967	-12.31
710.995	10.69
711.022	-3.31
711.049	2.69
711.076	-9.31
711.104	0.69
711.131	-6.31
711.158	-7.31
711.185	-5.31
711.213	-23.31
711.24	-8.31
711.267	-15.31
711.294	-4.31
711.322	2.69
711.349	10.69
711.376	-0.31
711.403	12.69
711.431	-8.31
711.458	0.69
711.485	-5.31
711.512	11.69
711.54	4.69
711.567	-6.31
711.594	-5.31
711.621	2.69
711.648	1.69
711.676	-16.31
711.703	-1.31
711.73	-9.31
711.757	-9.31
711.784	6.69
711.812	7.69
711.839	-8.31
711.866	-13.31
711.893	-11.31
711.92	7.69
711.947	13.69
711.975	9.69
712.002	2.69
712.029	2.69
712.056	-2.31
712.083	14.69
712.11	-23.31
712.138	-2.31
712.165	-1.31
712.192	6.69
712.219	-21.31
712.246	-18.31
712.273	-17.31
712.3	-24.31
712.328	-2.31
712.355	-1.31
712.382	-11.31
712.409	-5.31
712.436	-19.31
712.463	-9.31
712.49	-0.31
712.517	-7.31
712.544	-9.31
712.572	-1.31
712.599	-4.31
712.626	6.69
712.653	-10.31
712.68	-7.31
712.707	-7.31
712.734	-6.31
712.761	-5.31
712.788	6.69
712.815	8.69
712.842	27.69
712.87	-4.31
712.897	-8.31
712.924	-12.31
712.951	-9.31
712.978	17.69
713.005	7.69
713.032	21.69
713.059	1.69
713.086	-10.31
713.113	-2.31
713.14	-16.31
713.167	-0.31
713.194	17.69
713.221	-9.31
713.248	20.69
713.275	3.69
713.302	-12.31
713.329	8.69
713.356	2.69
713.383	8.69
713.41	-6.31
713.437	-5.31
713.464	-1.31
713.491	12.69
713.518	13.69
713.545	-14.31
713.572	-7.31
713.599	18.69
713.626	-1.31
713.653	-3.31
713.68	-1.31
713.707	6.69
713.734	5.69
713.761	-3.31
713.788	-10.31
713.815	6.69
713.842	0.69
713.869	-4.31
713.896	-10.31
713.923	-1.31
713.95	-1.31
713.977	1.69
714.004	-5.31
714.031	2.69
714.058	-11.31
714.085	-3.31
714.112	3.69
714.139	-10.31
714.165	-3.31
714.192	-5.31
714.219	0.69
714.246	-4.31
714.273	5.69
714.3	17.69
714.327	-3.31
714.354	11.69
714.381	3.69
714.408	-6.31
714.435	-5.31
714.461	-2.31
714.488	13.69
714.515	-2.31
714.542	-6.31
714.569	-7.31
714.596	-14.31
714.623	-16.31
714.65	-15.31
714.677	-0.31
714.703	1.69
714.73	13.69
714.757	-2.31
714.784	11.69
714.811	-4.31
714.838	6.69
714.865	2.69
714.891	4.69
714.918	-5.31
714.945	-18.31
714.972	-2.31
714.999	8.69
715.026	-5.31
715.052	3.69
715.079	-3.31
715.106	9.69
715.133	0.69
715.16	-2.31
715.187	9.69
715.213	12.69
715.24	1.69
715.267	4.69
715.294	13.69
715.321	-7.31
715.347	1.69
715.374	-2.31
715.401	12.69
715.428	-3.31
715.455	-0.31
715.481	-2.31
715.508	5.69
715.535	2.69
715.562	21.69
715.588	16.69
715.615	-2.31
715.642	-16.31
715.669	7.69
715.695	6.69
715.722	1.69
715.749	0.69
715.776	31.69
715.802	8.69
715.829	14.69
715.856	-14.31
715.883	16.69
715.909	-7.31
715.936	4.69
715.963	-19.31
715.99	-16.31
716.016	2.69
716.043	-1.31
716.07	-8.31
716.096	-18.31
716.123	0.69
716.15	1.69
716.177	0.69
716.203	10.69
716.23	7.69
716.257	-6.31
716.283	9.69
716.31	15.69
716.337	-5.31
716.363	1.69
716.39	6.69
716.417	21.69
716.443	1.69
716.47	6.69
716.497	7.69
716.523	14.69
716.55	4.69
716.577	8.69
716.603	4.69
716.63	1.69
716.657	9.69
716.683	-7.31
716.71	5.69
716.737	-0.31
716.763	7.69
716.79	16.69
716.817	8.69
716.843	-1.31
716.87	-19.31
716.897	7.69
716.923	18.69
716.95	4.69
716.976	-7.31
717.003	-12.31
717.03	-2.31
717.056	1.69
717.083	0.69
717.109	14.69
717.136	0.69
717.163	-16.31
717.189	17.69
717.216	9.69
717.242	-8.31
717.269	-2.31
717.296	8.69
717.322	18.69
717.349	18.69
717.375	-1.31
717.402	-10.31
717.428	-7.31
717.455	14.69
717.481	14.69
717.508	8.69
717.535	3.69
717.561	-9.31
717.588	-3.31
717.614	15.69
717.641	0.69
717.667	5.69
717.694	4.69
717.72	6.69
717.747	-2.31
717.773	-7.31
717.8	22.69
717.826	-1.31
717.853	7.69
717.88	2.69
717.906	6.69
717.933	12.69
717.959	8.69
717.986	2.69
718.012	-0.31
718.039	1.69
718.065	8.69
718.092	1.69
718.118	-11.31
718.144	7.69
718.171	18.69
718.197	30.69
718.224	9.69
718.25	1.69
718.277	6.69
718.303	-0.31
718.33	5.69
718.356	-7.31
718.383	-9.31
718.409	-1.31
718.436	3.69
718.462	-21.31
718.489	-6.31
718.515	35.69
718.541	16.69
718.568	4.69
718.594	12.69
718.621	10.69
718.647	-3.31
718.674	10.69
718.7	0.69
718.726	-4.31
718.753	-2.31
718.779	3.69
718.806	-2.31
718.832	-15.31
718.858	-5.31
718.885	3.69
718.911	6.69
718.938	21.69
718.964	1.69
718.99	-0.31
719.017	3.69
719.043	16.69
719.07	31.69
719.096	0.69
719.122	-3.31
719.149	-1.31
719.175	16.69
719.201	0.69
719.228	0.69
719.254	-3.31
719.281	10.69
719.307	2.69
719.333	5.69
719.36	7.69
719.386	3.69
719.412	6.69
719.439	-11.31
719.465	-0.31
719.491	-10.31
719.518	9.69
719.544	1.69
719.57	27.69
719.597	8.69
719.623	-3.31
719.649	6.69
719.675	2.69
719.702	6.69
719.728	12.69
719.754	-10.31
719.781	-7.31
719.807	5.69
719.833	7.69
719.86	0.69
719.886	-2.31
719.912	10.69
719.938	-10.31
719.965	4.69
719.991	1.69
720.017	6.69
720.044	4.69
720.07	0.69
720.096	7.69
720.122	-9.31
720.149	6.69
720.175	8.69
720.201	10.69
720.227	3.69
720.254	-6.31
720.28	8.69
720.306	3.69
720.332	3.69
720.359	6.69
720.385	18.69
720.411	8.69
720.437	-0.31
720.463	1.69
720.49	10.69
720.516	-17.31
720.542	-3.31
720.568	-5.31
720.595	3.69
720.621	-5.31
720.647	0.69
720.673	11.69
720.699	-16.31
720.725	-2.31
720.752	12.69
720.778	1.69
720.804	1.69
720.83	8.69
720.856	0.69
720.883	-7.31
720.909	-0.31
720.935	0.69
720.961	2.69
720.987	8.69
721.013	6.69
721.04	-10.31
721.066	-8.31
721.092	1.69
721.118	4.69
721.144	15.69
721.17	-11.31
721.196	-10.31
721.223	-7.31
721.249	-7.31
721.275	14.69
721.301	-3.31
721.327	24.69
721.353	6.69
721.379	-9.31
721.405	10.69
721.432	13.69
721.458	3.69
721.484	16.69
721.51	-14.31
721.536	5.69
721.562	-3.31
721.588	1.69
721.614	-6.31
721.64	-0.31
721.666	-5.31
721.693	-3.31
721.719	1.69
721.745	-3.31
721.771	-8.31
721.797	-7.31
721.823	4.69
721.849	9.69
721.875	3.69
721.901	-6.31
721.927	-9.31
721.953	-7.31
721.979	7.69
722.005	0.69
722.031	-4.31
722.057	13.69
722.083	6.69
722.109	24.69
722.135	16.69
722.161	22.69
722.187	-3.31
722.214	12.69
722.24	-2.31
722.266	-11.31
722.292	7.69
722.318	21.69
722.344	3.69
722.37	5.69
722.396	20.69
722.422	-2.31
722.448	-10.31
722.474	-13.31
722.5	11.69
722.526	5.69
722.552	5.69
722.578	3.69
722.603	2.69
722.629	-16.31
722.655	4.69
722.681	-15.31
722.707	-1.31
722.733	5.69
722.759	-20.31
722.785	-3.31
722.811	1.69
722.837	-1.31
722.863	2.69
722.889	4.69
722.915	-3.31
722.941	1.69
722.967	0.69
722.993	1.69
723.019	-10.31
723.045	7.69
723.071	13.69
723.097	4.69
723.122	-1.31
723.148	-5.31
723.174	-2.31
723.2	-2.31
723.226	-0.31
723.252	-1.31
723.278	5.69
723.304	3.69
723.33	12.69
723.356	-2.31
723.381	1.69
723.407	-17.31
723.433	11.69
723.459	-2.31
723.485	-5.31
723.511	10.69
723.537	1.69
723.563	-10.31
723.588	9.69
723.614	16.69
723.64	11.69
723.666	-3.31
723.692	8.69
723.718	-7.31
723.744	6.69
723.769	5.69
723.795	-3.31
723.821	-3.31
723.847	-9.31
723.873	6.69
723.899	-6.31
723.924	-9.31
723.95	0.69
723.976	1.69
724.002	5.69
724.028	7.69
724.053	2.69
724.079	-13.31
724.105	7.69
724.131	16.69
724.157	-4.31
724.182	-14.31
724.208	2.69
724.234	-0.31
724.26	2.69
724.286	11.69
724.311	5.69
724.337	-11.31
724.363	-18.31
724.389	4.69
724.415	1.69
724.44	18.69
724.466	0.69
724.492	-12.31
724.518	-1.31
724.543	-12.31
724.569	4.69
724.595	-8.31
724.621	-3.31
724.646	-21.31
724.672	-0.31
724.698	-6.31
724.723	-17.31
724.749	-5.31
724.775	16.69
724.801	-7.31
724.826	-19.31
724.852	-2.31
724.878	-8.31
724.904	-13.31
724.929	-3.31
724.955	-8.31
724.981	-2.31
725.006	-4.31
725.032	17.69
725.058	20.69
725.083	-11.31
725.109	-3.31
725.135	9.69
725.161	8.69
725.186	8.69
725.212	-5.31
725.238	10.69
725.263	-11.31
725.289	-17.31
725.315	-10.31
725.34	-3.31
725.366	4.69
725.392	-8.31
725.417	4.69
725.443	-10.31
725.468	8.69
725.494	-6.31
725.52	4.69
725.545	-10.31
725.571	-7.31
725.597	0.69
725.622	-8.31
725.648	1.69
725.674	5.69
725.699	4.69
725.725	6.69
725.75	17.69
725.776	0.69
725.802	-2.31
725.827	10.69
725.853	-1.31
725.878	3.69
725.904	8.69
725.93	8.69
725.955	-13.31
725.981	-11.31
726.006	-3.31
726.032	8.69
726.057	4.69
726.083	-3.31
726.109	11.69
726.134	-6.31
726.16	4.69
726.185	1.69
726.211	-6.31
726.236	2.69
726.262	-7.31
726.288	16.69
726.313	8.69
726.339	13.69
726.364	4.69
726.39	5.69
726.415	-4.31
726.441	9.69
726.466	-6.31
726.492	9.69
726.517	9.69
726.543	5.69
726.568	5.69
726.594	1.69
726.619	2.69
726.645	0.69
726.67	21.69
726.696	17.69
726.721	-0.31
726.747	-8.31
726.772	-15.31
726.798	11.69
726.823	9.69
726.849	-9.31
726.874	-3.31
726.9	15.69
726.925	13.69
726.951	-8.31
726.976	0.69
727.002	-6.31
727.027	2.69
727.053	35.69
727.078	-1.31
727.104	-2.31
727.129	-28.31
727.155	-14.31
727.18	-1.31
727.205	1.69
727.231	-5.31
727.256	-0.31
727.282	7.69
727.307	5.69
727.333	6.69
727.358	-6.31
727.383	-0.31
727.409	-11.31
727.434	2.69
727.46	-4.31
727.485	-7.31
727.511	12.69
727.536	-8.31
727.561	7.69
727.587	6.69
727.612	2.69
727.637	-4.31
727.663	-7.31
727.688	5.69
727.714	-2.31
727.739	-0.31
727.764	-14.31
727.79	1.69
727.815	8.69
727.841	8.69
727.866	-3.31
727.891	11.69
727.917	-12.31
727.942	-5.31
727.967	2.69
727.993	-17.31
728.018	-11.31
728.043	-3.31
728.069	-4.31
728.094	16.69
728.119	7.69
728.145	17.69
728.17	13.69
728.195	-2.31
728.221	9.69
728.246	1.69
728.271	-14.31
728.297	0.69
728.322	2.69
728.347	1.69
728.373	1.69
728.398	5.69
728.423	0.69
728.448	-8.31
728.474	9.69
728.499	4.69
728.524	0.69
728.55	-4.31
728.575	-3.31
728.6	16.69
728.625	-2.31
728.651	11.69
728.676	7.69
728.701	7.69
728.727	-4.31
728.752	-7.31
728.777	10.69
728.802	9.69
728.828	0.69
728.853	0.69
728.878	-2.31
728.903	-3.31
728.929	-8.31
728.954	-9.31
728.979	13.69
729.004	-2.31
729.03	-9.31
729.055	1.69
729.08	-9.31
729.105	-20.31
729.13	13.69
729.156	2.69
729.181	4.69
729.206	-18.31
729.231	-9.31
729.256	0.69
729.282	0.69
729.307	-12.31
729.332	-13.31
729.357	-0.31
729.382	-7.31
729.408	2.69
729.433	2.69
729.458	-0.31
729.483	8.69
729.508	21.69
729.533	1.69
729.559	13.69
729.584	-14.31
729.609	-6.31
729.634	0.69
729.659	-0.31
729.684	-2.31
729.71	13.69
729.735	9.69
729.76	-7.31
729.785	7.69
729.81	9.69
729.835	-4.31
729.86	-6.31
729.886	9.69
729.911	1.69
729.936	10.69
729.961	27.69
729.986	15.69
730.011	70.69
730.036	225.69
730.061	1027.69
730.086	2724.69
730.112	3461.69
730.137	2912.69
730.162	2156.69
730.187	1665.69
730.212	1293.69
730.237	819.69
730.262	470.69
730.287	245.69
730.312	162.69
730.337	71.69
730.362	64.69
730.387	43.69
730.413	30.69
730.438	12.69
730.463	24.69
730.488	19.69
730.513	-7.31
730.538	-7.31
730.563	19.69
730.588	6.69
730.613	23.69
730.638	1.69
730.663	-0.31
730.688	25.69
730.713	8.69
730.738	18.69
730.763	1.69
730.788	0.69
730.813	9.69
730.838	0.69
730.863	5.69
730.888	11.69
730.913	-6.31
730.938	-16.31
730.963	25.69
730.988	121.69
731.013	411.69
731.038	644.69
731.063	599.69
731.088	473.69
731.113	348.69
731.138	272.69
731.163	183.69
731.188	111.69
731.213	44.69
731.238	33.69
731.263	16.69
731.288	4.69
731.313	2.69
731.338	3.69
731.363	0.69
731.388	-1.31
731.413	11.69
731.438	19.69
731.463	-7.31
731.487	-1.31
731.512	-11.31
731.537	-6.31
731.562	-4.31
731.587	0.69
731.612	0.69
731.637	9.69
731.662	6.69
731.687	-6.31
731.712	-16.31
731.737	-12.31
731.762	3.69
731.786	6.69
731.811	-7.31
731.836	1.69
731.861	5.69
731.886	-5.31
731.911	9.69
731.936	2.69
731.961	0.69
731.986	-7.31
732.01	9.69
732.035	1.69
732.06	2.69
732.085	-3.31
732.11	3.69
732.135	-6.31
732.16	-7.31
732.184	5.69
732.209	2.69
732.234	2.69
732.259	6.69
732.284	17.69
732.309	-0.31
732.334	0.69
732.358	-7.31
732.383	-6.31
732.408	-20.31
732.433	-17.31
732.458	-15.31
732.482	-3.31
732.507	-5.31
732.532	0.69
732.557	18.69
732.582	18.69
732.607	9.69
732.631	57.69
732.656	77.69
732.681	153.69
732.706	322.69
732.73	438.69
732.755	401.69
732.78	319.69
732.805	254.69
732.83	183.69
732.854	120.69
732.879	93.69
732.904	36.69
732.929	19.69
732.953	21.69
732.978	18.69
733.003	10.69
733.028	-0.31
733.052	13.69
733.077	19.69
733.102	12.69
733.127	13.69
733.151	3.69
733.176	26.69
733.201	17.69
733.226	-0.31
733.25	-2.31
733.275	-1.31
733.3	-5.31
733.324	8.69
733.349	8.69
733.374	2.69
733.399	-1.31
733.423	-17.31
733.448	-11.31
733.473	2.69
733.497	12.69
733.522	-0.31
733.547	6.69
733.571	5.69
733.596	2.69
733.621	8.69
733.646	11.69
733.67	9.69
733.695	4.69
733.72	5.69
733.744	22.69
733.769	14.69
733.794	7.69
733.818	-0.31
733.843	16.69
733.867	2.69
733.892	-8.31
733.917	-7.31
733.941	15.69
733.966	-18.31
733.991	-19.31
734.015	20.69
734.04	6.69
734.065	10.69
734.089	11.69
734.114	-9.31
734.138	7.69
734.163	6.69
734.188	5.69
734.212	7.69
734.237	-0.31
734.261	-2.31
734.286	-2.31
734.311	-25.31
734.335	2.69
734.36	6.69
734.384	2.69
734.409	13.69
734.434	1.69
734.458	-10.31
734.483	-13.31
734.507	-18.31
734.532	-6.31
734.556	2.69
734.581	-1.31
734.606	6.69
734.63	-2.31
734.655	15.69
734.679	-2.31
734.704	-10.31
734.728	-21.31
734.753	-6.31
734.777	12.69
734.802	3.69
734.826	-9.31
734.851	6.69
734.876	9.69
734.9	6.69
734.925	13.69
734.949	-5.31
734.974	0.69
734.998	7.69
735.023	-4.31
735.047	-12.31
735.072	17.69
735.096	4.69
735.121	-11.31
735.145	2.69
735.17	0.69
735.194	-5.31
735.219	10.69
735.243	5.69
735.268	10.69
735.292	6.69
735.317	6.69
735.341	11.69
735.365	-23.31
735.39	25.69
735.414	16.69
735.439	-6.31
735.463	0.69
735.488	3.69
735.512	4.69
735.537	-5.31
735.561	1.69
735.586	7.69
735.61	9.69
735.634	-1.31
735.659	6.69
735.683	11.69
735.708	-5.31
735.732	-13.31
735.757	-10.31
735.781	6.69
735.805	17.69
735.83	-18.31
735.854	-1.31
735.879	2.69
735.903	5.69
735.927	16.69
735.952	-2.31
735.976	4.69
736.001	9.69
736.025	-5.31
736.049	-0.31
736.074	4.69
736.098	2.69
736.123	5.69
736.147	12.69
736.171	12.69
736.196	1.69
736.22	-10.31
736.244	-6.31
736.269	5.69
736.293	9.69
736.317	9.69
736.342	9.69
736.366	21.69
736.39	7.69
736.415	6.69
736.439	0.69
736.463	-3.31
736.488	0.69
736.512	0.69
736.536	20.69
736.561	24.69
736.585	-22.31
736.609	7.69
736.634	1.69
736.658	-4.31
736.682	-8.31
736.707	-0.31
736.731	-4.31
736.755	5.69
736.78	12.69
736.804	17.69
736.828	-3.31
736.852	-6.31
736.877	-2.31
736.901	7.69
736.925	0.69
736.949	15.69
736.974	4.69
736.998	-15.31
737.022	1.69
737.047	0.69
737.071	-1.31
737.095	15.69
737.119	27.69
737.144	-0.31
737.168	-21.31
737.192	-7.31
737.216	18.69
737.241	-5.31
737.265	-1.31
737.289	-0.31
737.313	-9.31
737.337	3.69
737.362	-6.31
737.386	-12.31
737.41	-5.31
737.434	17.69
737.459	12.69
737.483	14.69
737.507	20.69
737.531	19.69
737.555	0.69
737.58	-16.31
737.604	-2.31
737.628	-1.31
737.652	-4.31
737.676	-13.31
737.701	2.69
737.725	2.69
737.749	9.69
737.773	4.69
737.797	-1.31
737.821	-6.31
737.846	-7.31
737.87	14.69
737.894	6.69
737.918	7.69
737.942	-0.31
737.966	10.69
737.99	12.69
738.015	9.69
738.039	8.69
738.063	-8.31
738.087	7.69
738.111	10.69
738.135	8.69
738.159	8.69
738.184	5.69
738.208	9.69
738.232	2.69
738.256	19.69
738.28	15.69
738.304	6.69
738.328	1.69
738.352	6.69
738.376	0.69
738.4	0.69
738.425	-2.31
738.449	2.69
738.473	21.69
738.497	13.69
738.521	4.69
738.545	-4.31
738.569	-4.31
738.593	8.69
738.617	-0.31
738.641	-3.31
738.665	4.69
738.689	16.69
738.713	-8.31
738.737	2.69
738.762	6.69
738.786	-0.31
738.81	-10.31
738.834	24.69
738.858	9.69
738.882	-15.31
738.906	-13.31
738.93	0.69
738.954	0.69
738.978	10.69
739.002	8.69
739.026	10.69
739.05	-2.31
739.074	-1.31
739.098	17.69
739.122	10.69
739.146	3.69
739.17	13.69
739.194	9.69
739.218	-1.31
739.242	-8.31
739.266	-2.31
739.29	13.69
739.314	10.69
739.338	4.69
739.362	3.69
739.386	16.69
739.41	-6.31
739.434	-10.31
739.458	14.69
739.482	3.69
739.506	9.69
739.53	-8.31
739.554	7.69
739.577	-8.31
739.601	4.69
739.625	6.69
739.649	0.69
739.673	-7.31
739.697	8.69
739.721	12.69
739.745	14.69
739.769	15.69
739.793	5.69
739.817	22.69
739.841	-15.31
739.865	-2.31
739.889	-4.31
739.912	-3.31
739.936	-0.31
739.96	-5.31
739.984	6.69
740.008	-1.31
740.032	8.69
740.056	6.69
740.08	0.69
740.104	-8.31
740.127	9.69
740.151	6.69
740.175	16.69
740.199	3.69
740.223	32.69
740.247	17.69
740.271	6.69
740.295	-10.31
740.318	-15.31
740.342	-10.31
740.366	-14.31
740.39	8.69
740.414	-5.31
740.438	-7.31
740.461	21.69
740.485	21.69
740.509	-2.31
740.533	10.69
740.557	-7.31
740.581	-3.31
740.604	0.69
740.628	-2.31
740.652	15.69
740.676	2.69
740.7	13.69
740.723	-7.31
740.747	-11.31
740.771	-0.31
740.795	-10.31
740.819	12.69
740.842	1.69
740.866	9.69
740.89	2.69
740.914	6.69
740.938	-19.31
740.961	-0.31
740.985	9.69
741.009	-14.31
741.033	5.69
741.056	-0.31
741.08	-11.31
741.104	-0.31
741.128	3.69
741.151	9.69
741.175	16.69
741.199	4.69
741.223	8.69
741.246	-5.31
741.27	-2.31
741.294	-0.31
741.318	-17.31
741.341	-6.31
741.365	5.69
741.389	5.69
741.413	16.69
741.436	23.69
741.46	10.69
741.484	15.69
741.507	4.69
741.531	20.69
741.555	22.69
741.579	-1.31
741.602	19.69
741.626	1.69
741.65	-13.31
741.673	2.69
741.697	6.69
741.721	0.69
741.744	-1.31
741.768	0.69
741.792	7.69
741.815	-0.31
741.839	17.69
741.863	21.69
741.886	13.69
741.91	25.69
741.934	2.69
741.957	-9.31
741.981	2.69
742.005	-3.31
742.028	-11.31
742.052	-6.31
742.075	-8.31
742.099	1.69
742.123	-7.31
742.146	6.69
742.17	-0.31
742.194	-10.31
742.217	-12.31
742.241	9.69
742.264	3.69
742.288	13.69
742.312	15.69
742.335	-7.31
742.359	2.69
742.382	15.69
742.406	9.69
742.43	1.69
742.453	16.69
742.477	-7.31
742.5	6.69
742.524	-6.31
742.548	-7.31
742.571	-2.31
742.595	0.69
742.618	2.69
742.642	-14.31
742.665	0.69
742.689	-3.31
742.712	12.69
742.736	-5.31
742.76	1.69
742.783	-5.31
742.807	1.69
742.83	15.69
742.854	-7.31
742.877	23.69
742.901	2.69
742.924	-10.31
742.948	5.69
742.971	5.69
742.995	0.69
743.018	-7.31
743.042	1.69
743.065	-1.31
743.089	1.69
743.112	7.69
743.136	-5.31
743.159	-0.31
743.183	-5.31
743.206	0.69
743.23	2.69
743.253	9.69
743.277	9.69
743.3	10.69
743.324	-2.31
743.347	-14.31
743.371	11.69
743.394	7.69
743.418	7.69
743.441	4.69
743.465	9.69
743.488	2.69
743.512	-6.31
743.535	-1.31
743.558	-3.31
743.582	5.69
743.605	11.69
743.629	22.69
743.652	9.69
743.676	11.69
743.699	6.69
743.723	-0.31
743.746	6.69
743.769	-10.31
743.793	-4.31
743.816	-11.31
743.84	2.69
743.863	15.69
743.886	3.69
743.91	6.69
743.933	10.69
743.957	18.69
743.98	8.69
744.003	12.69
744.027	-2.31
744.05	6.69
744.074	11.69
744.097	-5.31
744.12	-3.31
744.144	-22.31
744.167	6.69
744.19	1.69
744.214	-6.31
744.237	-7.31
744.26	-2.31
744.284	-13.31
744.307	-11.31
744.331	-8.31
744.354	-7.31
744.377	-3.31
744.401	-3.31
744.424	-3.31
744.447	-13.31
744.471	0.69
