Data from HighRes_mercury_15_13_11_07_2024_HR4C61891__87__15-14-31-886.txt Node

Date: Thu Nov 07 15:14:31 EST 2024
User: crc00042
Spectrometer: HR4C6189
Trigger mode: 4
Integration Time (sec): 1.000000E-1
Scans to average: 1
Electric dark correction enabled: true
Nonlinearity correction enabled: false
Boxcar width: 0
XAxis mode: Wavelengths
Number of Pixels in Spectrum: 3648
>>>>>Begin Spectral Data<<<<<
639.567	-53.31
639.602	-53.31
639.636	-53.31
639.67	-41.31
639.704	-14.31
639.738	-2.31
639.773	10.69
639.807	-16.31
639.841	-4.31
639.875	3.69
639.909	0.69
639.943	-2.31
639.978	-10.31
640.012	7.69
640.046	8.69
640.08	12.69
640.114	9.69
640.148	-18.31
640.182	-11.31
640.217	1.69
640.251	25.69
640.285	6.69
640.319	-4.31
640.353	1.69
640.387	4.69
640.421	-5.31
640.455	-7.31
640.49	-8.31
640.524	-7.31
640.558	15.69
640.592	-4.31
640.626	-1.31
640.66	-17.31
640.694	-16.31
640.728	-0.31
640.762	12.69
640.796	19.69
640.83	0.69
640.865	-10.31
640.899	-8.31
640.933	-4.31
640.967	-12.31
641.001	-0.31
641.035	8.69
641.069	-0.31
641.103	-1.31
641.137	-1.31
641.171	-16.31
641.205	-4.31
641.239	-16.31
641.273	16.69
641.307	9.69
641.341	-3.31
641.375	-5.31
641.409	15.69
641.443	3.69
641.477	11.69
641.511	14.69
641.545	15.69
641.579	7.69
641.614	-0.31
641.648	21.69
641.682	-2.31
641.716	1.69
641.75	5.69
641.784	0.69
641.818	1.69
641.852	6.69
641.886	-7.31
641.919	20.69
641.953	1.69
641.987	-12.31
642.021	-19.31
642.055	-0.31
642.089	-7.31
642.123	-7.31
642.157	-10.31
642.191	-8.31
642.225	7.69
642.259	-10.31
642.293	4.69
642.327	8.69
642.361	-6.31
642.395	3.69
642.429	3.69
642.463	-0.31
642.497	3.69
642.531	-15.31
642.565	-2.31
642.599	0.69
642.633	16.69
642.666	17.69
642.7	4.69
642.734	1.69
642.768	-20.31
642.802	-4.31
642.836	3.69
642.87	-2.31
642.904	8.69
642.938	21.69
642.972	1.69
643.005	-3.31
643.039	5.69
643.073	3.69
643.107	7.69
643.141	-2.31
643.175	-9.31
643.209	-16.31
643.243	3.69
643.276	17.69
643.31	-1.31
643.344	-8.31
643.378	1.69
643.412	6.69
643.446	-0.31
643.48	-6.31
643.513	-4.31
643.547	-7.31
643.581	-14.31
643.615	-17.31
643.649	-11.31
643.683	5.69
643.716	12.69
643.75	-0.31
643.784	-4.31
643.818	0.69
643.852	-1.31
643.886	-7.31
643.919	-7.31
643.953	0.69
643.987	-9.31
644.021	5.69
644.055	5.69
644.088	-2.31
644.122	-16.31
644.156	-10.31
644.19	-0.31
644.224	-5.31
644.257	5.69
644.291	16.69
644.325	-3.31
644.359	0.69
644.392	33.69
644.426	16.69
644.46	-6.31
644.494	-2.31
644.527	-8.31
644.561	-0.31
644.595	-1.31
644.629	-9.31
644.662	-10.31
644.696	12.69
644.73	27.69
644.764	-0.31
644.797	1.69
644.831	3.69
644.865	5.69
644.899	4.69
644.932	29.69
644.966	5.69
645	19.69
645.033	13.69
645.067	-10.31
645.101	19.69
645.135	10.69
645.168	-11.31
645.202	-7.31
645.236	-12.31
645.269	-6.31
645.303	-1.31
645.337	-28.31
645.37	-19.31
645.404	-5.31
645.438	3.69
645.471	-4.31
645.505	1.69
645.539	5.69
645.572	-10.31
645.606	-8.31
645.64	6.69
645.673	-0.31
645.707	23.69
645.741	1.69
645.774	-29.31
645.808	7.69
645.842	-5.31
645.875	-1.31
645.909	-1.31
645.943	-14.31
645.976	-7.31
646.01	11.69
646.043	13.69
646.077	12.69
646.111	13.69
646.144	10.69
646.178	-6.31
646.212	-17.31
646.245	-13.31
646.279	6.69
646.312	17.69
646.346	4.69
646.38	-5.31
646.413	-5.31
646.447	-8.31
646.48	-0.31
646.514	-2.31
646.547	1.69
646.581	-4.31
646.615	0.69
646.648	-1.31
646.682	-11.31
646.715	-27.31
646.749	-0.31
646.782	-5.31
646.816	-8.31
646.85	2.69
646.883	-18.31
646.917	-11.31
646.95	-5.31
646.984	7.69
647.017	-2.31
647.051	-8.31
647.084	-0.31
647.118	-19.31
647.151	6.69
647.185	11.69
647.218	5.69
647.252	8.69
647.285	-12.31
647.319	-17.31
647.353	2.69
647.386	5.69
647.42	-6.31
647.453	-15.31
647.487	0.69
647.52	-3.31
647.553	1.69
647.587	2.69
647.62	0.69
647.654	14.69
647.687	1.69
647.721	-0.31
647.754	0.69
647.788	-3.31
647.821	-20.31
647.855	0.69
647.888	16.69
647.922	19.69
647.955	2.69
647.989	-12.31
648.022	0.69
648.055	1.69
648.089	-11.31
648.122	4.69
648.156	-4.31
648.189	-8.31
648.223	0.69
648.256	13.69
648.29	3.69
648.323	-1.31
648.356	-10.31
648.39	0.69
648.423	-4.31
648.457	-9.31
648.49	1.69
648.523	5.69
648.557	16.69
648.59	-14.31
648.624	-3.31
648.657	-4.31
648.69	22.69
648.724	7.69
648.757	-13.31
648.791	-4.31
648.824	3.69
648.857	23.69
648.891	0.69
648.924	-0.31
648.957	10.69
648.991	-5.31
649.024	9.69
649.057	-13.31
649.091	0.69
649.124	15.69
649.158	3.69
649.191	18.69
649.224	15.69
649.258	6.69
649.291	16.69
649.324	20.69
649.358	6.69
649.391	5.69
649.424	3.69
649.458	-7.31
649.491	-4.31
649.524	-4.31
649.557	-5.31
649.591	-21.31
649.624	1.69
649.657	-23.31
649.691	3.69
649.724	0.69
649.757	-0.31
649.791	-6.31
649.824	30.69
649.857	13.69
649.89	-5.31
649.924	-27.31
649.957	-8.31
649.99	-17.31
650.023	-5.31
650.057	-4.31
650.09	4.69
650.123	-1.31
650.157	9.69
650.19	23.69
650.223	5.69
650.256	-5.31
650.29	-2.31
650.323	1.69
650.356	1.69
650.389	3.69
650.423	-1.31
650.456	-3.31
650.489	-10.31
650.522	-3.31
650.555	18.69
650.589	11.69
650.622	14.69
650.655	21.69
650.688	14.69
650.721	2.69
650.755	-1.31
650.788	21.69
650.821	4.69
650.854	7.69
650.887	-15.31
650.921	7.69
650.954	-14.31
650.987	-10.31
651.02	-10.31
651.053	-23.31
651.087	-17.31
651.12	9.69
651.153	2.69
651.186	-6.31
651.219	-3.31
651.252	11.69
651.286	0.69
651.319	3.69
651.352	-11.31
651.385	-8.31
651.418	2.69
651.451	12.69
651.484	15.69
651.518	-10.31
651.551	23.69
651.584	-16.31
651.617	7.69
651.65	11.69
651.683	7.69
651.716	3.69
651.749	-6.31
651.783	0.69
651.816	-13.31
651.849	3.69
651.882	-8.31
651.915	-2.31
651.948	3.69
651.981	-23.31
652.014	-8.31
652.047	-14.31
652.08	1.69
652.114	8.69
652.147	2.69
652.18	7.69
652.213	28.69
652.246	-4.31
652.279	-19.31
652.312	3.69
652.345	-5.31
652.378	-1.31
652.411	14.69
652.444	6.69
652.477	-0.31
652.51	-13.31
652.543	-14.31
652.576	-9.31
652.609	-9.31
652.642	-3.31
652.675	-1.31
652.709	4.69
652.742	3.69
652.775	-12.31
652.808	1.69
652.841	-0.31
652.874	5.69
652.907	1.69
652.94	-1.31
652.973	-3.31
653.006	-8.31
653.039	-16.31
653.072	-3.31
653.105	0.69
653.138	-10.31
653.171	-14.31
653.204	-3.31
653.237	11.69
653.27	-15.31
653.303	-0.31
653.336	15.69
653.368	-11.31
653.401	0.69
653.434	-16.31
653.467	1.69
653.5	2.69
653.533	-13.31
653.566	-13.31
653.599	3.69
653.632	2.69
653.665	23.69
653.698	4.69
653.731	0.69
653.764	19.69
653.797	-9.31
653.83	-7.31
653.863	-6.31
653.896	-11.31
653.929	0.69
653.961	2.69
653.994	-11.31
654.027	-16.31
654.06	9.69
654.093	-2.31
654.126	8.69
654.159	-1.31
654.192	0.69
654.225	-1.31
654.258	3.69
654.29	-11.31
654.323	-0.31
654.356	-7.31
654.389	-6.31
654.422	-1.31
654.455	13.69
654.488	0.69
654.521	-13.31
654.553	-12.31
654.586	6.69
654.619	4.69
654.652	-7.31
654.685	14.69
654.718	6.69
654.751	6.69
654.783	-7.31
654.816	2.69
654.849	-11.31
654.882	-9.31
654.915	-29.31
654.948	-0.31
654.98	-15.31
655.013	-21.31
655.046	-10.31
655.079	-7.31
655.112	0.69
655.144	-14.31
655.177	-1.31
655.21	-8.31
655.243	9.69
655.276	6.69
655.308	-13.31
655.341	-20.31
655.374	-1.31
655.407	0.69
655.44	-7.31
655.472	18.69
655.505	1.69
655.538	-21.31
655.571	3.69
655.603	-4.31
655.636	1.69
655.669	0.69
655.702	1.69
655.734	-5.31
655.767	-6.31
655.8	-21.31
655.833	-5.31
655.865	0.69
655.898	-16.31
655.931	0.69
655.964	8.69
655.996	-1.31
656.029	5.69
656.062	-10.31
656.095	-11.31
656.127	-11.31
656.16	-1.31
656.193	-6.31
656.225	-3.31
656.258	3.69
656.291	4.69
656.324	8.69
656.356	8.69
656.389	5.69
656.422	7.69
656.454	-15.31
656.487	-9.31
656.52	1.69
656.552	-11.31
656.585	-4.31
656.618	2.69
656.65	8.69
656.683	11.69
656.716	2.69
656.748	-17.31
656.781	-13.31
656.814	-11.31
656.846	1.69
656.879	-15.31
656.912	5.69
656.944	-21.31
656.977	-0.31
657.01	-8.31
657.042	-1.31
657.075	11.69
657.108	-8.31
657.14	-3.31
657.173	24.69
657.205	27.69
657.238	13.69
657.271	2.69
657.303	-11.31
657.336	18.69
657.369	-4.31
657.401	-1.31
657.434	-10.31
657.466	9.69
657.499	-5.31
657.532	-6.31
657.564	14.69
657.597	6.69
657.629	-5.31
657.662	1.69
657.694	2.69
657.727	-11.31
657.76	4.69
657.792	-15.31
657.825	-15.31
657.857	-11.31
657.89	-7.31
657.922	5.69
657.955	-4.31
657.987	-2.31
658.02	6.69
658.053	11.69
658.085	-13.31
658.118	-6.31
658.15	9.69
658.183	4.69
658.215	0.69
658.248	-4.31
658.28	-0.31
658.313	6.69
658.345	0.69
658.378	-12.31
658.41	1.69
658.443	7.69
658.475	-8.31
658.508	-3.31
658.54	4.69
658.573	3.69
658.605	-15.31
658.638	-3.31
658.67	6.69
658.703	-3.31
658.735	-13.31
658.768	1.69
658.8	-7.31
658.833	22.69
658.865	5.69
658.898	4.69
658.93	-11.31
658.963	9.69
658.995	-20.31
659.028	-8.31
659.06	-1.31
659.092	1.69
659.125	-10.31
659.157	-2.31
659.19	3.69
659.222	-20.31
659.255	4.69
659.287	-5.31
659.32	1.69
659.352	4.69
659.384	7.69
659.417	-4.31
659.449	1.69
659.482	16.69
659.514	2.69
659.546	2.69
659.579	-5.31
659.611	-2.31
659.644	-3.31
659.676	-14.31
659.708	-18.31
659.741	-4.31
659.773	1.69
659.806	-3.31
659.838	-12.31
659.87	-3.31
659.903	-16.31
659.935	-1.31
659.967	-9.31
660	11.69
660.032	-18.31
660.065	9.69
660.097	1.69
660.129	8.69
660.162	-7.31
660.194	1.69
660.226	-4.31
660.259	10.69
660.291	-1.31
660.323	-4.31
660.356	-13.31
660.388	0.69
660.42	-9.31
660.453	8.69
660.485	5.69
660.517	1.69
660.55	9.69
660.582	-2.31
660.614	18.69
660.647	-0.31
660.679	-15.31
660.711	16.69
660.743	-17.31
660.776	-8.31
660.808	-0.31
660.84	-15.31
660.873	-0.31
660.905	2.69
660.937	8.69
660.969	-6.31
661.002	2.69
661.034	9.69
661.066	8.69
661.099	-4.31
661.131	15.69
661.163	11.69
661.195	13.69
661.228	7.69
661.26	-2.31
661.292	-1.31
661.324	-0.31
661.357	0.69
661.389	9.69
661.421	0.69
661.453	1.69
661.485	12.69
661.518	14.69
661.55	0.69
661.582	5.69
661.614	3.69
661.647	2.69
661.679	-8.31
661.711	-6.31
661.743	-31.31
661.775	-0.31
661.808	13.69
661.84	-14.31
661.872	3.69
661.904	-2.31
661.936	2.69
661.969	-0.31
662.001	-6.31
662.033	4.69
662.065	-5.31
662.097	8.69
662.129	11.69
662.162	2.69
662.194	-14.31
662.226	1.69
662.258	-1.31
662.29	4.69
662.322	-27.31
662.355	-20.31
662.387	27.69
662.419	18.69
662.451	9.69
662.483	2.69
662.515	-5.31
662.547	-11.31
662.58	-10.31
662.612	-18.31
662.644	-24.31
662.676	-10.31
662.708	9.69
662.74	-5.31
662.772	-8.31
662.804	-0.31
662.836	18.69
662.869	9.69
662.901	11.69
662.933	8.69
662.965	17.69
662.997	7.69
663.029	-21.31
663.061	-23.31
663.093	-7.31
663.125	5.69
663.157	-2.31
663.189	-10.31
663.221	-1.31
663.254	-8.31
663.286	6.69
663.318	-7.31
663.35	-16.31
663.382	-10.31
663.414	-4.31
663.446	-2.31
663.478	1.69
663.51	13.69
663.542	-1.31
663.574	-4.31
663.606	7.69
663.638	-23.31
663.67	-25.31
663.702	-17.31
663.734	-16.31
663.766	1.69
663.798	-9.31
663.83	-2.31
663.862	-18.31
663.894	-0.31
663.926	-11.31
663.958	13.69
663.99	-2.31
664.022	-4.31
664.054	11.69
664.086	-4.31
664.118	-9.31
664.15	-8.31
664.182	-5.31
664.214	-7.31
664.246	6.69
664.278	-1.31
664.31	12.69
664.342	10.69
664.374	3.69
664.406	12.69
664.438	-3.31
664.47	8.69
664.502	-18.31
664.534	-13.31
664.566	-22.31
664.598	1.69
664.63	-17.31
664.662	-7.31
664.693	-16.31
664.725	-9.31
664.757	3.69
664.789	-14.31
664.821	-7.31
664.853	15.69
664.885	-2.31
664.917	0.69
664.949	8.69
664.981	23.69
665.013	2.69
665.045	-12.31
665.076	-6.31
665.108	6.69
665.14	4.69
665.172	1.69
665.204	-2.31
665.236	6.69
665.268	5.69
665.3	-12.31
665.331	-20.31
665.363	4.69
665.395	0.69
665.427	-19.31
665.459	1.69
665.491	-0.31
665.523	-1.31
665.555	-2.31
665.586	1.69
665.618	-2.31
665.65	-4.31
665.682	7.69
665.714	20.69
665.746	-7.31
665.777	-9.31
665.809	-25.31
665.841	-0.31
665.873	-14.31
665.905	6.69
665.937	3.69
665.968	0.69
666	-21.31
666.032	3.69
666.064	-11.31
666.096	-5.31
666.127	8.69
666.159	9.69
666.191	15.69
666.223	5.69
666.255	3.69
666.286	2.69
666.318	-7.31
666.35	24.69
666.382	-0.31
666.413	-7.31
666.445	-16.31
666.477	-14.31
666.509	-4.31
666.54	-14.31
666.572	-22.31
666.604	-1.31
666.636	0.69
666.667	8.69
666.699	27.69
666.731	12.69
666.763	5.69
666.794	1.69
666.826	9.69
666.858	-6.31
666.89	14.69
666.921	0.69
666.953	-2.31
666.985	3.69
667.017	13.69
667.048	1.69
667.08	9.69
667.112	-12.31
667.143	-10.31
667.175	-1.31
667.207	14.69
667.238	23.69
667.27	5.69
667.302	0.69
667.334	3.69
667.365	-0.31
667.397	3.69
667.429	-7.31
667.46	18.69
667.492	6.69
667.524	3.69
667.555	-11.31
667.587	1.69
667.619	-8.31
667.65	-28.31
667.682	6.69
667.714	8.69
667.745	-9.31
667.777	-3.31
667.808	5.69
667.84	1.69
667.872	-18.31
667.903	20.69
667.935	-0.31
667.967	-9.31
667.998	-5.31
668.03	-1.31
668.061	-0.31
668.093	-7.31
668.125	6.69
668.156	11.69
668.188	-8.31
668.22	-14.31
668.251	2.69
668.283	13.69
668.314	22.69
668.346	-12.31
668.377	-4.31
668.409	8.69
668.441	24.69
668.472	7.69
668.504	6.69
668.535	16.69
668.567	9.69
668.599	4.69
668.63	-0.31
668.662	0.69
668.693	9.69
668.725	9.69
668.756	7.69
668.788	-7.31
668.819	-2.31
668.851	0.69
668.882	0.69
668.914	-16.31
668.946	-15.31
668.977	-19.31
669.009	-4.31
669.04	-13.31
669.072	18.69
669.103	0.69
669.135	-9.31
669.166	1.69
669.198	-13.31
669.229	1.69
669.261	-13.31
669.292	3.69
669.324	5.69
669.355	0.69
669.387	-11.31
669.418	3.69
669.45	-23.31
669.481	3.69
669.513	17.69
669.544	4.69
669.576	-10.31
669.607	0.69
669.639	2.69
669.67	-4.31
669.701	-1.31
669.733	-15.31
669.764	-9.31
669.796	-12.31
669.827	-18.31
669.859	4.69
669.89	5.69
669.922	8.69
669.953	-9.31
669.985	5.69
670.016	2.69
670.047	5.69
670.079	4.69
670.11	4.69
670.142	-6.31
670.173	1.69
670.204	-3.31
670.236	7.69
670.267	-15.31
670.299	0.69
670.33	-5.31
670.362	5.69
670.393	-21.31
670.424	4.69
670.456	-16.31
670.487	-1.31
670.518	1.69
670.55	3.69
670.581	0.69
670.613	4.69
670.644	-4.31
670.675	-6.31
670.707	-11.31
670.738	4.69
670.769	-9.31
670.801	-9.31
670.832	-2.31
670.864	-2.31
670.895	8.69
670.926	-11.31
670.958	-10.31
670.989	-3.31
671.02	-6.31
671.052	-4.31
671.083	11.69
671.114	9.69
671.146	6.69
671.177	-8.31
671.208	1.69
671.24	-9.31
671.271	-10.31
671.302	22.69
671.333	-2.31
671.365	-4.31
671.396	-6.31
671.427	6.69
671.459	2.69
671.49	1.69
671.521	3.69
671.553	-14.31
671.584	3.69
671.615	-10.31
671.646	-1.31
671.678	12.69
671.709	-2.31
671.74	-12.31
671.771	-13.31
671.803	-16.31
671.834	-3.31
671.865	-15.31
671.896	0.69
671.928	-6.31
671.959	-4.31
671.99	-3.31
672.021	-8.31
672.053	-3.31
672.084	-3.31
672.115	-5.31
672.146	-13.31
672.178	-10.31
672.209	-12.31
672.24	-9.31
672.271	3.69
672.303	-4.31
672.334	-7.31
672.365	-14.31
672.396	1.69
672.427	3.69
672.459	-0.31
672.49	13.69
672.521	15.69
672.552	-3.31
672.583	1.69
672.615	6.69
672.646	11.69
672.677	-14.31
672.708	-18.31
672.739	-10.31
672.77	6.69
672.802	7.69
672.833	-10.31
672.864	7.69
672.895	-10.31
672.926	-0.31
672.957	-13.31
672.989	-20.31
673.02	3.69
673.051	-1.31
673.082	6.69
673.113	-5.31
673.144	-0.31
673.175	-2.31
673.206	1.69
673.238	1.69
673.269	-11.31
673.3	3.69
673.331	4.69
673.362	-9.31
673.393	-4.31
673.424	-8.31
673.455	32.69
673.487	7.69
673.518	-8.31
673.549	5.69
673.58	-8.31
673.611	6.69
673.642	3.69
673.673	-10.31
673.704	-1.31
673.735	-8.31
673.766	-2.31
673.797	-2.31
673.828	5.69
673.86	4.69
673.891	-26.31
673.922	-7.31
673.953	0.69
673.984	4.69
674.015	8.69
674.046	-15.31
674.077	-3.31
674.108	-13.31
674.139	-9.31
674.17	-5.31
674.201	-16.31
674.232	3.69
674.263	-0.31
674.294	-2.31
674.325	-30.31
674.356	-8.31
674.387	11.69
674.418	-15.31
674.449	-3.31
674.48	-15.31
674.511	-9.31
674.542	-0.31
674.573	-5.31
674.604	10.69
674.635	5.69
674.666	-5.31
674.697	5.69
674.728	-16.31
674.759	1.69
674.79	-11.31
674.821	0.69
674.852	-5.31
674.883	-16.31
674.914	-15.31
674.945	1.69
674.976	8.69
675.007	9.69
675.038	-8.31
675.069	-10.31
675.1	-4.31
675.131	0.69
675.162	-11.31
675.193	-22.31
675.224	-14.31
675.254	-1.31
675.285	-4.31
675.316	-8.31
675.347	2.69
675.378	2.69
675.409	-12.31
675.44	-0.31
675.471	2.69
675.502	-4.31
675.533	-0.31
675.564	-8.31
675.595	3.69
675.625	15.69
675.656	11.69
675.687	12.69
675.718	-8.31
675.749	18.69
675.78	-0.31
675.811	5.69
675.842	-0.31
675.873	-16.31
675.903	2.69
675.934	-6.31
675.965	-15.31
675.996	-15.31
676.027	-2.31
676.058	-3.31
676.089	-7.31
676.119	-5.31
676.15	-13.31
676.181	-5.31
676.212	19.69
676.243	-3.31
676.274	-10.31
676.304	2.69
676.335	-13.31
676.366	1.69
676.397	5.69
676.428	3.69
676.459	-9.31
676.489	-4.31
676.52	-0.31
676.551	-9.31
676.582	-19.31
676.613	-3.31
676.643	-3.31
676.674	4.69
676.705	-5.31
676.736	-1.31
676.767	11.69
676.797	10.69
676.828	22.69
676.859	-3.31
676.89	4.69
676.92	5.69
676.951	4.69
676.982	-2.31
677.013	-4.31
677.044	14.69
677.074	23.69
677.105	-2.31
677.136	-4.31
677.167	-1.31
677.197	14.69
677.228	5.69
677.259	-4.31
677.289	5.69
677.32	-20.31
677.351	-15.31
677.382	-12.31
677.412	-19.31
677.443	-15.31
677.474	-12.31
677.505	-8.31
677.535	-7.31
677.566	-0.31
677.597	-8.31
677.627	-31.31
677.658	-14.31
677.689	-0.31
677.72	0.69
677.75	3.69
677.781	-9.31
677.812	-0.31
677.842	-0.31
677.873	-14.31
677.904	-19.31
677.934	-8.31
677.965	-5.31
677.996	-17.31
678.026	2.69
678.057	-0.31
678.088	-1.31
678.118	7.69
678.149	-9.31
678.18	-6.31
678.21	-0.31
678.241	9.69
678.272	4.69
678.302	-12.31
678.333	-0.31
678.363	8.69
678.394	4.69
678.425	-12.31
678.455	-2.31
678.486	11.69
678.517	-10.31
678.547	9.69
678.578	2.69
678.608	-5.31
678.639	2.69
678.67	-9.31
678.7	-6.31
678.731	-5.31
678.761	-2.31
678.792	-1.31
678.823	0.69
678.853	1.69
678.884	-13.31
678.914	3.69
678.945	-3.31
678.975	7.69
679.006	-0.31
679.037	-6.31
679.067	22.69
679.098	-6.31
679.128	-9.31
679.159	-15.31
679.189	9.69
679.22	3.69
679.25	-4.31
679.281	-3.31
679.312	-9.31
679.342	2.69
679.373	19.69
679.403	-4.31
679.434	-0.31
679.464	-0.31
679.495	-1.31
679.525	19.69
679.556	-0.31
679.586	5.69
679.617	3.69
679.647	5.69
679.678	-12.31
679.708	-3.31
679.739	-9.31
679.769	-8.31
679.8	-12.31
679.83	-21.31
679.861	9.69
679.891	1.69
679.922	-17.31
679.952	-6.31
679.983	7.69
680.013	4.69
680.044	-2.31
680.074	8.69
680.105	7.69
680.135	6.69
680.165	2.69
680.196	4.69
680.226	12.69
680.257	5.69
680.287	2.69
680.318	-0.31
680.348	-4.31
680.379	-3.31
680.409	-1.31
680.439	-4.31
680.47	6.69
680.5	-2.31
680.531	4.69
680.561	21.69
680.592	16.69
680.622	3.69
680.652	12.69
680.683	21.69
680.713	-6.31
680.744	-4.31
680.774	-17.31
680.804	17.69
680.835	-3.31
680.865	-13.31
680.896	12.69
680.926	10.69
680.956	1.69
680.987	-3.31
681.017	-0.31
681.047	-5.31
681.078	-14.31
681.108	3.69
681.139	3.69
681.169	-4.31
681.199	-0.31
681.23	-3.31
681.26	-4.31
681.29	-2.31
681.321	-8.31
681.351	3.69
681.381	-17.31
681.412	6.69
681.442	-1.31
681.472	-2.31
681.503	-10.31
681.533	-3.31
681.563	-8.31
681.594	-9.31
681.624	1.69
681.654	-0.31
681.685	5.69
681.715	-12.31
681.745	3.69
681.775	-15.31
681.806	-0.31
681.836	20.69
681.866	-9.31
681.897	-11.31
681.927	-1.31
681.957	-7.31
681.987	3.69
682.018	-3.31
682.048	-21.31
682.078	-10.31
682.109	6.69
682.139	7.69
682.169	3.69
682.199	-1.31
682.23	-8.31
682.26	-0.31
682.29	-1.31
682.32	-11.31
682.351	-11.31
682.381	-0.31
682.411	-5.31
682.441	2.69
682.472	-8.31
682.502	-3.31
682.532	-7.31
682.562	1.69
682.592	9.69
682.623	14.69
682.653	-8.31
682.683	-7.31
682.713	-8.31
682.743	-11.31
682.774	-3.31
682.804	-11.31
682.834	10.69
682.864	-2.31
682.894	-6.31
682.925	-7.31
682.955	-6.31
682.985	-18.31
683.015	12.69
683.045	5.69
683.076	-4.31
683.106	9.69
683.136	4.69
683.166	11.69
683.196	2.69
683.226	-0.31
683.257	-8.31
683.287	-1.31
683.317	-6.31
683.347	-8.31
683.377	-4.31
683.407	-3.31
683.437	6.69
683.468	3.69
683.498	10.69
683.528	3.69
683.558	6.69
683.588	1.69
683.618	-16.31
683.648	-7.31
683.678	-11.31
683.708	18.69
683.739	9.69
683.769	0.69
683.799	-1.31
683.829	5.69
683.859	5.69
683.889	0.69
683.919	-1.31
683.949	-2.31
683.979	-7.31
684.009	-15.31
684.039	-11.31
684.07	12.69
684.1	8.69
684.13	1.69
684.16	-0.31
684.19	-7.31
684.22	-0.31
684.25	6.69
684.28	-2.31
684.31	18.69
684.34	3.69
684.37	9.69
684.4	-10.31
684.43	-0.31
684.46	7.69
684.49	14.69
684.52	2.69
684.55	12.69
684.58	0.69
684.61	-7.31
684.64	12.69
684.67	9.69
684.7	3.69
684.73	-0.31
684.76	-15.31
684.79	18.69
684.82	-8.31
684.85	-15.31
684.88	3.69
684.91	2.69
684.94	3.69
684.97	-0.31
685	-5.31
685.03	-14.31
685.06	-16.31
685.09	-1.31
685.12	2.69
685.15	-20.31
685.18	6.69
685.21	16.69
685.24	3.69
685.27	12.69
685.3	-7.31
685.33	7.69
685.36	-7.31
685.39	16.69
685.42	-7.31
685.45	-11.31
685.48	9.69
685.51	-1.31
685.54	0.69
685.569	11.69
685.599	5.69
685.629	16.69
685.659	-2.31
685.689	8.69
685.719	10.69
685.749	-13.31
685.779	-2.31
685.809	-1.31
685.839	0.69
685.869	8.69
685.898	16.69
685.928	23.69
685.958	5.69
685.988	16.69
686.018	7.69
686.048	5.69
686.078	7.69
686.108	3.69
686.137	5.69
686.167	28.69
686.197	-21.31
686.227	-13.31
686.257	15.69
686.287	16.69
686.317	7.69
686.346	4.69
686.376	1.69
686.406	-16.31
686.436	2.69
686.466	11.69
686.496	2.69
686.525	0.69
686.555	14.69
686.585	-0.31
686.615	23.69
686.645	18.69
686.675	3.69
686.704	4.69
686.734	3.69
686.764	-7.31
686.794	-9.31
686.824	-6.31
686.853	24.69
686.883	9.69
686.913	11.69
686.943	-5.31
686.973	-8.31
687.002	11.69
687.032	10.69
687.062	-8.31
687.092	3.69
687.121	-4.31
687.151	14.69
687.181	2.69
687.211	1.69
687.24	-18.31
687.27	-12.31
687.3	-8.31
687.33	-10.31
687.359	-13.31
687.389	2.69
687.419	2.69
687.449	-9.31
687.478	5.69
687.508	9.69
687.538	-2.31
687.568	-0.31
687.597	-9.31
687.627	-9.31
687.657	-5.31
687.686	2.69
687.716	29.69
687.746	2.69
687.776	-6.31
687.805	-0.31
687.835	0.69
687.865	15.69
687.894	-7.31
687.924	-14.31
687.954	-6.31
687.983	5.69
688.013	18.69
688.043	12.69
688.072	5.69
688.102	8.69
688.132	-1.31
688.161	-1.31
688.191	-7.31
688.221	17.69
688.25	-14.31
688.28	-0.31
688.31	-15.31
688.339	-4.31
688.369	-30.31
688.399	-13.31
688.428	5.69
688.458	-3.31
688.488	2.69
688.517	2.69
688.547	-3.31
688.576	26.69
688.606	7.69
688.636	-13.31
688.665	-14.31
688.695	18.69
688.725	7.69
688.754	1.69
688.784	5.69
688.813	6.69
688.843	0.69
688.873	-1.31
688.902	-10.31
688.932	-0.31
688.961	-7.31
688.991	13.69
689.02	13.69
689.05	-4.31
689.08	-0.31
689.109	24.69
689.139	4.69
689.168	8.69
689.198	-11.31
689.227	-2.31
689.257	-0.31
689.287	8.69
689.316	8.69
689.346	-21.31
689.375	-16.31
689.405	-9.31
689.434	-17.31
689.464	6.69
689.493	5.69
689.523	1.69
689.552	-9.31
689.582	-0.31
689.611	-12.31
689.641	10.69
689.67	0.69
689.7	-10.31
689.73	15.69
689.759	11.69
689.789	18.69
689.818	-3.31
689.848	4.69
689.877	11.69
689.906	6.69
689.936	-2.31
689.965	-0.31
689.995	10.69
690.024	-4.31
690.054	0.69
690.083	-11.31
690.113	-20.31
690.142	-11.31
690.172	8.69
690.201	-4.31
690.231	-7.31
690.26	-4.31
690.29	-1.31
690.319	4.69
690.348	-6.31
690.378	0.69
690.407	2.69
690.437	4.69
690.466	-3.31
690.496	-5.31
690.525	10.69
690.555	-4.31
690.584	-6.31
690.613	-7.31
690.643	7.69
690.672	7.69
690.702	19.69
690.731	18.69
690.76	22.69
690.79	56.69
690.819	55.69
690.849	52.69
690.878	32.69
690.907	37.69
690.937	20.69
690.966	1.69
690.996	-0.31
691.025	10.69
691.054	7.69
691.084	6.69
691.113	-4.31
691.142	3.69
691.172	2.69
691.201	2.69
691.23	9.69
691.26	14.69
691.289	-4.31
691.319	3.69
691.348	2.69
691.377	27.69
691.407	20.69
691.436	10.69
691.465	-12.31
691.495	-2.31
691.524	-5.31
691.553	-12.31
691.583	-2.31
691.612	6.69
691.641	-10.31
691.67	4.69
691.7	15.69
691.729	-16.31
691.758	8.69
691.788	-3.31
691.817	-2.31
691.846	-7.31
691.876	-10.31
691.905	1.69
691.934	-8.31
691.963	21.69
691.993	-3.31
692.022	-13.31
692.051	-9.31
692.081	4.69
692.11	26.69
692.139	1.69
692.168	-4.31
692.198	15.69
692.227	11.69
692.256	12.69
692.285	7.69
692.315	-6.31
692.344	-1.31
692.373	-5.31
692.402	-12.31
692.432	-6.31
692.461	-1.31
692.49	5.69
692.519	-4.31
692.548	6.69
692.578	17.69
692.607	-2.31
692.636	-2.31
692.665	0.69
692.694	-8.31
692.724	10.69
692.753	3.69
692.782	15.69
692.811	-2.31
692.84	19.69
692.87	7.69
692.899	-13.31
692.928	10.69
692.957	12.69
692.986	5.69
693.016	10.69
693.045	4.69
693.074	13.69
693.103	-0.31
693.132	10.69
693.161	4.69
693.191	-3.31
693.22	-13.31
693.249	-3.31
693.278	5.69
693.307	1.69
693.336	-7.31
693.365	-6.31
693.395	-0.31
693.424	5.69
693.453	14.69
693.482	-6.31
693.511	7.69
693.54	-3.31
693.569	7.69
693.598	5.69
693.628	20.69
693.657	3.69
693.686	5.69
693.715	18.69
693.744	9.69
693.773	12.69
693.802	-5.31
693.831	4.69
693.86	2.69
693.889	5.69
693.919	29.69
693.948	-11.31
693.977	5.69
694.006	-7.31
694.035	-13.31
694.064	-8.31
694.093	-0.31
694.122	-2.31
694.151	-14.31
694.18	16.69
694.209	22.69
694.238	-5.31
694.267	9.69
694.296	12.69
694.325	13.69
694.354	8.69
694.383	2.69
694.412	-6.31
694.441	-11.31
694.471	-8.31
694.5	-6.31
694.529	8.69
694.558	22.69
694.587	6.69
694.616	4.69
694.645	0.69
694.674	3.69
694.703	5.69
694.732	-2.31
694.761	15.69
694.79	3.69
694.819	-14.31
694.848	-2.31
694.877	5.69
694.906	12.69
694.935	4.69
694.963	25.69
694.992	2.69
695.021	27.69
695.05	18.69
695.079	-0.31
695.108	-12.31
695.137	22.69
695.166	-0.31
695.195	0.69
695.224	18.69
695.253	0.69
695.282	-7.31
695.311	8.69
695.34	-1.31
695.369	2.69
695.398	10.69
695.427	14.69
695.456	0.69
695.485	13.69
695.513	4.69
695.542	-0.31
695.571	-0.31
695.6	16.69
695.629	10.69
695.658	13.69
695.687	15.69
695.716	12.69
695.745	10.69
695.774	-2.31
695.802	-9.31
695.831	-8.31
695.86	16.69
695.889	13.69
695.918	8.69
695.947	-4.31
695.976	7.69
696.005	-1.31
696.033	-3.31
696.062	16.69
696.091	-6.31
696.12	2.69
696.149	19.69
696.178	7.69
696.207	15.69
696.235	-13.31
696.264	13.69
696.293	12.69
696.322	12.69
696.351	22.69
696.38	11.69
696.408	-1.31
696.437	7.69
696.466	15.69
696.495	16.69
696.524	17.69
696.553	9.69
696.581	11.69
696.61	-0.31
696.639	4.69
696.668	20.69
696.697	-0.31
696.725	7.69
696.754	1.69
696.783	-5.31
696.812	2.69
696.84	12.69
696.869	18.69
696.898	-8.31
696.927	-4.31
696.956	17.69
696.984	-1.31
697.013	3.69
697.042	0.69
697.071	2.69
697.099	6.69
697.128	16.69
697.157	10.69
697.186	-13.31
697.214	-3.31
697.243	-4.31
697.272	-7.31
697.301	1.69
697.329	7.69
697.358	10.69
697.387	24.69
697.415	10.69
697.444	-12.31
697.473	-12.31
697.502	-7.31
697.53	5.69
697.559	-4.31
697.588	2.69
697.616	6.69
697.645	-5.31
697.674	-3.31
697.703	-8.31
697.731	8.69
697.76	9.69
697.789	5.69
697.817	5.69
697.846	15.69
697.875	14.69
697.903	10.69
697.932	8.69
697.961	23.69
697.989	2.69
698.018	-4.31
698.047	1.69
698.075	-2.31
698.104	-2.31
698.133	-1.31
698.161	-2.31
698.19	1.69
698.218	6.69
698.247	3.69
698.276	-5.31
698.304	15.69
698.333	10.69
698.362	18.69
698.39	16.69
698.419	17.69
698.447	-1.31
698.476	6.69
698.505	9.69
698.533	2.69
698.562	4.69
698.591	2.69
698.619	-0.31
698.648	-3.31
698.676	-4.31
698.705	-5.31
698.733	10.69
698.762	24.69
698.791	6.69
698.819	17.69
698.848	-7.31
698.876	7.69
698.905	18.69
698.933	-7.31
698.962	-3.31
698.991	4.69
699.019	21.69
699.048	-1.31
699.076	7.69
699.105	-3.31
699.133	10.69
699.162	11.69
699.19	11.69
699.219	-1.31
699.248	8.69
699.276	4.69
699.305	0.69
699.333	9.69
699.362	4.69
699.39	19.69
699.419	-18.31
699.447	-0.31
699.476	6.69
699.504	-7.31
699.533	-1.31
699.561	-8.31
699.59	4.69
699.618	-7.31
699.647	2.69
699.675	3.69
699.704	6.69
699.732	3.69
699.761	-2.31
699.789	6.69
699.818	9.69
699.846	-4.31
699.874	-4.31
699.903	-18.31
699.931	-5.31
699.96	-2.31
699.988	5.69
700.017	6.69
700.045	-7.31
700.074	-6.31
700.102	-8.31
700.13	-4.31
700.159	-4.31
700.187	-0.31
700.216	-9.31
700.244	-8.31
700.273	-6.31
700.301	-6.31
700.329	1.69
700.358	17.69
700.386	1.69
700.415	-3.31
700.443	-0.31
700.472	-5.31
700.5	1.69
700.528	12.69
700.557	-5.31
700.585	-0.31
700.614	-18.31
700.642	-1.31
700.67	30.69
700.699	6.69
700.727	12.69
700.755	9.69
700.784	2.69
700.812	1.69
700.841	16.69
700.869	15.69
700.897	-4.31
700.926	1.69
700.954	1.69
700.982	14.69
701.011	1.69
701.039	11.69
701.067	3.69
701.096	8.69
701.124	-3.31
701.152	6.69
701.181	-1.31
701.209	-7.31
701.237	-5.31
701.266	-4.31
701.294	-0.31
701.322	4.69
701.351	-4.31
701.379	-5.31
701.407	-2.31
701.435	-4.31
701.464	-6.31
701.492	10.69
701.52	-8.31
701.549	-2.31
701.577	-10.31
701.605	3.69
701.634	0.69
701.662	6.69
701.69	-19.31
701.718	1.69
701.747	0.69
701.775	-9.31
701.803	-9.31
701.831	3.69
701.86	4.69
701.888	0.69
701.916	-8.31
701.944	2.69
701.973	-4.31
702.001	-16.31
702.029	-2.31
702.057	-16.31
702.086	-1.31
702.114	-3.31
702.142	5.69
702.17	13.69
702.199	-13.31
702.227	-1.31
702.255	-5.31
702.283	-18.31
702.311	8.69
702.34	7.69
702.368	-5.31
702.396	-2.31
702.424	-1.31
702.452	-0.31
702.481	-5.31
702.509	-17.31
702.537	10.69
702.565	1.69
702.593	-4.31
702.621	-8.31
702.65	16.69
702.678	-4.31
702.706	15.69
702.734	-4.31
702.762	8.69
702.79	-5.31
702.819	-13.31
702.847	0.69
702.875	7.69
702.903	5.69
702.931	4.69
702.959	22.69
702.988	6.69
703.016	-18.31
703.044	2.69
703.072	3.69
703.1	-3.31
703.128	-7.31
703.156	-1.31
703.184	-3.31
703.212	-4.31
703.241	-0.31
703.269	12.69
703.297	3.69
703.325	3.69
703.353	-6.31
703.381	-11.31
703.409	-14.31
703.437	-0.31
703.465	4.69
703.493	-10.31
703.522	7.69
703.55	21.69
703.578	5.69
703.606	8.69
703.634	-2.31
703.662	-19.31
703.69	0.69
703.718	-1.31
703.746	6.69
703.774	-10.31
703.802	15.69
703.83	-15.31
703.858	-6.31
703.886	-27.31
703.914	-17.31
703.942	17.69
703.97	11.69
703.998	-7.31
704.027	16.69
704.055	-0.31
704.083	-4.31
704.111	-10.31
704.139	-2.31
704.167	-3.31
704.195	4.69
704.223	-3.31
704.251	0.69
704.279	17.69
704.307	-3.31
704.335	-11.31
704.363	-7.31
704.391	-5.31
704.419	-11.31
704.447	-8.31
704.475	11.69
704.503	-11.31
704.531	6.69
704.558	2.69
704.586	9.69
704.614	0.69
704.642	10.69
704.67	-17.31
704.698	-12.31
704.726	4.69
704.754	-16.31
704.782	-11.31
704.81	-4.31
704.838	16.69
704.866	5.69
704.894	-16.31
704.922	4.69
704.95	15.69
704.978	7.69
705.006	2.69
705.034	5.69
705.061	-4.31
705.089	-0.31
705.117	-11.31
705.145	-4.31
705.173	-5.31
705.201	5.69
705.229	10.69
705.257	13.69
705.285	-6.31
705.313	2.69
705.34	5.69
705.368	-7.31
705.396	-9.31
705.424	-0.31
705.452	0.69
705.48	-7.31
705.508	-33.31
705.536	-12.31
705.563	-5.31
705.591	2.69
705.619	-3.31
705.647	-11.31
705.675	4.69
705.703	4.69
705.731	1.69
705.758	10.69
705.786	8.69
705.814	14.69
705.842	-4.31
705.87	2.69
705.898	2.69
705.925	-5.31
705.953	6.69
705.981	-9.31
706.009	14.69
706.037	6.69
706.065	-4.31
706.092	7.69
706.12	0.69
706.148	-7.31
706.176	-0.31
706.204	-4.31
706.231	12.69
706.259	-27.31
706.287	-12.31
706.315	8.69
706.342	-7.31
706.37	6.69
706.398	11.69
706.426	-1.31
706.454	12.69
706.481	3.69
706.509	2.69
706.537	3.69
706.565	-9.31
706.592	0.69
706.62	-3.31
706.648	-9.31
706.676	-5.31
706.703	9.69
706.731	-5.31
706.759	0.69
706.787	1.69
706.814	7.69
706.842	-5.31
706.87	1.69
706.897	11.69
706.925	7.69
706.953	11.69
706.981	11.69
707.008	3.69
707.036	-11.31
707.064	-2.31
707.091	-33.31
707.119	9.69
707.147	-6.31
707.174	-11.31
707.202	17.69
707.23	8.69
707.258	-1.31
707.285	-23.31
707.313	-15.31
707.341	-11.31
707.368	-22.31
707.396	-4.31
707.424	19.69
707.451	0.69
707.479	-11.31
707.507	-3.31
707.534	-23.31
707.562	2.69
707.59	-5.31
707.617	1.69
707.645	5.69
707.672	4.69
707.7	-5.31
707.728	22.69
707.755	-10.31
707.783	-9.31
707.811	5.69
707.838	-9.31
707.866	1.69
707.893	6.69
707.921	-9.31
707.949	5.69
707.976	-7.31
708.004	4.69
708.031	-3.31
708.059	-5.31
708.087	2.69
708.114	-4.31
708.142	-7.31
708.169	-15.31
708.197	-11.31
708.225	2.69
708.252	11.69
708.28	14.69
708.307	-6.31
708.335	8.69
708.362	9.69
708.39	-0.31
708.418	-2.31
708.445	-12.31
708.473	-8.31
708.5	-20.31
708.528	-4.31
708.555	-9.31
708.583	-4.31
708.61	-4.31
708.638	14.69
708.665	-11.31
708.693	-6.31
708.72	-11.31
708.748	-3.31
708.776	1.69
708.803	15.69
708.831	7.69
708.858	13.69
708.886	-9.31
708.913	4.69
708.941	-17.31
708.968	18.69
708.996	-2.31
709.023	22.69
709.051	-8.31
709.078	3.69
709.105	6.69
709.133	-15.31
709.16	-1.31
709.188	6.69
709.215	-1.31
709.243	-5.31
709.27	-13.31
709.298	-3.31
709.325	-8.31
709.353	-6.31
709.38	2.69
709.408	13.69
709.435	-2.31
709.462	-9.31
709.49	-5.31
709.517	-8.31
709.545	-10.31
709.572	-3.31
709.6	3.69
709.627	1.69
709.655	-19.31
709.682	-9.31
709.709	-0.31
709.737	-10.31
709.764	-4.31
709.792	18.69
709.819	-8.31
709.846	-10.31
709.874	5.69
709.901	12.69
709.929	13.69
709.956	15.69
709.983	-4.31
710.011	-5.31
710.038	-20.31
710.066	2.69
710.093	-7.31
710.12	-4.31
710.148	-6.31
710.175	-28.31
710.202	-21.31
710.23	0.69
710.257	10.69
710.284	14.69
710.312	10.69
710.339	2.69
710.366	20.69
710.394	-5.31
710.421	2.69
710.448	2.69
710.476	-28.31
710.503	5.69
710.53	8.69
710.558	18.69
710.585	18.69
710.612	6.69
710.64	9.69
710.667	11.69
710.694	-8.31
710.722	-6.31
710.749	-10.31
710.776	0.69
710.804	16.69
710.831	-5.31
710.858	-1.31
710.885	14.69
710.913	-21.31
710.94	5.69
710.967	-2.31
710.995	3.69
711.022	-1.31
711.049	-8.31
711.076	-22.31
711.104	-11.31
711.131	-9.31
711.158	1.69
711.185	7.69
711.213	-12.31
711.24	-1.31
711.267	-5.31
711.294	-1.31
711.322	16.69
711.349	-9.31
711.376	4.69
711.403	11.69
711.431	-7.31
711.458	10.69
711.485	2.69
711.512	-10.31
711.54	-6.31
711.567	6.69
711.594	-5.31
711.621	-6.31
711.648	-0.31
711.676	-3.31
711.703	8.69
711.73	-17.31
711.757	4.69
711.784	-9.31
711.812	-7.31
711.839	-11.31
711.866	-3.31
711.893	-6.31
711.92	-1.31
711.947	-1.31
711.975	-3.31
712.002	-18.31
712.029	3.69
712.056	-0.31
712.083	-0.31
712.11	-8.31
712.138	2.69
712.165	-7.31
712.192	-5.31
712.219	-9.31
712.246	-9.31
712.273	-15.31
712.3	-5.31
712.328	6.69
712.355	6.69
712.382	-9.31
712.409	32.69
712.436	-7.31
712.463	2.69
712.49	9.69
712.517	1.69
712.544	6.69
712.572	-0.31
712.599	-5.31
712.626	0.69
712.653	-1.31
712.68	-10.31
712.707	0.69
712.734	4.69
712.761	-16.31
712.788	3.69
712.815	-1.31
712.842	-0.31
712.87	-8.31
712.897	-11.31
712.924	-17.31
712.951	1.69
712.978	0.69
713.005	17.69
713.032	16.69
713.059	5.69
713.086	-0.31
713.113	-14.31
713.14	-20.31
713.167	-7.31
713.194	9.69
713.221	-3.31
713.248	-1.31
713.275	-0.31
713.302	-2.31
713.329	2.69
713.356	1.69
713.383	-1.31
713.41	21.69
713.437	-14.31
713.464	-5.31
713.491	12.69
713.518	-2.31
713.545	-9.31
713.572	-10.31
713.599	15.69
713.626	-13.31
713.653	9.69
713.68	-6.31
713.707	-4.31
713.734	-1.31
713.761	2.69
713.788	7.69
713.815	8.69
713.842	6.69
713.869	4.69
713.896	4.69
713.923	-8.31
713.95	11.69
713.977	-1.31
714.004	-5.31
714.031	-14.31
714.058	-8.31
714.085	2.69
714.112	20.69
714.139	4.69
714.165	-5.31
714.192	-7.31
714.219	5.69
714.246	6.69
714.273	-0.31
714.3	-2.31
714.327	5.69
714.354	-3.31
714.381	-7.31
714.408	0.69
714.435	19.69
714.461	-1.31
714.488	-0.31
714.515	4.69
714.542	-12.31
714.569	-3.31
714.596	-26.31
714.623	-0.31
714.65	-14.31
714.677	4.69
714.703	5.69
714.73	9.69
714.757	-5.31
714.784	3.69
714.811	-20.31
714.838	-3.31
714.865	-20.31
714.891	-7.31
714.918	-14.31
714.945	-15.31
714.972	-2.31
714.999	-0.31
715.026	-12.31
715.052	12.69
715.079	-5.31
715.106	6.69
715.133	-8.31
715.16	-7.31
715.187	-2.31
715.213	3.69
715.24	-9.31
715.267	-1.31
715.294	-6.31
715.321	-11.31
715.347	7.69
715.374	4.69
715.401	13.69
715.428	-0.31
715.455	5.69
715.481	-8.31
715.508	-0.31
715.535	-7.31
715.562	15.69
715.588	5.69
715.615	-9.31
715.642	-5.31
715.669	4.69
715.695	-9.31
715.722	-0.31
715.749	-2.31
715.776	11.69
715.802	-4.31
715.829	6.69
715.856	-13.31
715.883	-1.31
715.909	-16.31
715.936	-8.31
715.963	0.69
715.99	-7.31
716.016	-0.31
716.043	0.69
716.07	-2.31
716.096	-22.31
716.123	-7.31
716.15	-18.31
716.177	-11.31
716.203	-1.31
716.23	-5.31
716.257	2.69
716.283	0.69
716.31	20.69
716.337	8.69
716.363	-6.31
716.39	-3.31
716.417	10.69
716.443	-5.31
716.47	3.69
716.497	3.69
716.523	3.69
716.55	-0.31
716.577	15.69
716.603	-15.31
716.63	-3.31
716.657	12.69
716.683	-16.31
716.71	-7.31
716.737	-9.31
716.763	4.69
716.79	-5.31
716.817	-3.31
716.843	7.69
716.87	-11.31
716.897	-10.31
716.923	12.69
716.95	-0.31
716.976	-18.31
717.003	1.69
717.03	-0.31
717.056	-3.31
717.083	2.69
717.109	7.69
717.136	13.69
717.163	-8.31
717.189	-1.31
717.216	-7.31
717.242	-4.31
717.269	-10.31
717.296	13.69
717.322	10.69
717.349	4.69
717.375	2.69
717.402	-9.31
717.428	-4.31
717.455	4.69
717.481	-9.31
717.508	2.69
717.535	6.69
717.561	1.69
717.588	-2.31
717.614	1.69
717.641	-3.31
717.667	4.69
717.694	0.69
717.72	-18.31
717.747	-4.31
717.773	-5.31
717.8	9.69
717.826	8.69
717.853	-0.31
717.88	-4.31
717.906	-1.31
717.933	15.69
717.959	9.69
717.986	7.69
718.012	-7.31
718.039	12.69
718.065	7.69
718.092	3.69
718.118	-14.31
718.144	-11.31
718.171	9.69
718.197	11.69
718.224	-11.31
718.25	-18.31
718.277	-0.31
718.303	-4.31
718.33	4.69
718.356	-13.31
718.383	-11.31
718.409	-1.31
718.436	-2.31
718.462	0.69
718.489	-11.31
718.515	17.69
718.541	6.69
718.568	-2.31
718.594	7.69
718.621	-7.31
718.647	-10.31
718.674	7.69
718.7	2.69
718.726	-8.31
718.753	-12.31
718.779	9.69
718.806	-1.31
718.832	-8.31
718.858	-6.31
718.885	-10.31
718.911	2.69
718.938	2.69
718.964	-6.31
718.99	9.69
719.017	1.69
719.043	4.69
719.07	-5.31
719.096	-3.31
719.122	10.69
719.149	-0.31
719.175	0.69
719.201	3.69
719.228	7.69
719.254	-3.31
719.281	-5.31
719.307	-1.31
719.333	-7.31
719.36	-1.31
719.386	9.69
719.412	0.69
719.439	-23.31
719.465	-2.31
719.491	-15.31
719.518	23.69
719.544	6.69
719.57	15.69
719.597	3.69
719.623	-15.31
719.649	1.69
719.675	-3.31
719.702	-2.31
719.728	8.69
719.754	-2.31
719.781	-0.31
719.807	-11.31
719.833	-1.31
719.86	-0.31
719.886	0.69
719.912	-0.31
719.938	-14.31
719.965	0.69
719.991	6.69
720.017	-3.31
720.044	-12.31
720.07	3.69
720.096	19.69
720.122	-0.31
720.149	3.69
720.175	20.69
720.201	-5.31
720.227	8.69
720.254	15.69
720.28	-4.31
720.306	-6.31
720.332	3.69
720.359	4.69
720.385	14.69
720.411	3.69
720.437	9.69
720.463	5.69
720.49	4.69
720.516	-8.31
720.542	-11.31
720.568	-13.31
720.595	4.69
720.621	-4.31
720.647	2.69
720.673	15.69
720.699	4.69
720.725	10.69
720.752	2.69
720.778	3.69
720.804	0.69
720.83	15.69
720.856	-7.31
720.883	-19.31
720.909	0.69
720.935	0.69
720.961	-0.31
720.987	9.69
721.013	-11.31
721.04	-6.31
721.066	-12.31
721.092	-11.31
721.118	3.69
721.144	-3.31
721.17	-2.31
721.196	1.69
721.223	-2.31
721.249	1.69
721.275	22.69
721.301	-5.31
721.327	-3.31
721.353	4.69
721.379	2.69
721.405	14.69
721.432	0.69
721.458	3.69
721.484	1.69
721.51	-7.31
721.536	16.69
721.562	-1.31
721.588	2.69
721.614	2.69
721.64	6.69
721.666	1.69
721.693	-14.31
721.719	-6.31
721.745	-8.31
721.771	-8.31
721.797	0.69
721.823	3.69
721.849	20.69
721.875	-0.31
721.901	11.69
721.927	-10.31
721.953	-8.31
721.979	4.69
722.005	2.69
722.031	7.69
722.057	3.69
722.083	-11.31
722.109	19.69
722.135	0.69
722.161	9.69
722.187	2.69
722.214	-9.31
722.24	6.69
722.266	-7.31
722.292	-4.31
722.318	7.69
722.344	3.69
722.37	0.69
722.396	13.69
722.422	-6.31
722.448	1.69
722.474	-15.31
722.5	5.69
722.526	-8.31
722.552	9.69
722.578	-1.31
722.603	8.69
722.629	-15.31
722.655	3.69
722.681	-8.31
722.707	-10.31
722.733	-8.31
722.759	-13.31
722.785	-2.31
722.811	-4.31
722.837	-12.31
722.863	4.69
722.889	4.69
722.915	-1.31
722.941	-5.31
722.967	-7.31
722.993	1.69
723.019	4.69
723.045	1.69
723.071	-14.31
723.097	6.69
723.122	-4.31
723.148	-7.31
723.174	-5.31
723.2	3.69
723.226	-6.31
723.252	-11.31
723.278	-35.31
723.304	-11.31
723.33	5.69
723.356	-8.31
723.381	15.69
723.407	-5.31
723.433	6.69
723.459	-13.31
723.485	-8.31
723.511	13.69
723.537	-0.31
723.563	4.69
723.588	5.69
723.614	6.69
723.64	3.69
723.666	16.69
723.692	1.69
723.718	2.69
723.744	5.69
723.769	-0.31
723.795	-2.31
723.821	1.69
723.847	-11.31
723.873	6.69
723.899	-5.31
723.924	-9.31
723.95	0.69
723.976	-10.31
724.002	-1.31
724.028	-4.31
724.053	-14.31
724.079	-9.31
724.105	-9.31
724.131	-0.31
724.157	-5.31
724.182	0.69
724.208	-3.31
724.234	-11.31
724.26	-0.31
724.286	14.69
724.311	-5.31
724.337	-12.31
724.363	-11.31
724.389	17.69
724.415	-1.31
724.44	19.69
724.466	0.69
724.492	7.69
724.518	12.69
724.543	3.69
724.569	-0.31
724.595	-4.31
724.621	-10.31
724.646	-15.31
724.672	-18.31
724.698	-9.31
724.723	-5.31
724.749	0.69
724.775	9.69
724.801	4.69
724.826	5.69
724.852	-7.31
724.878	0.69
724.904	-10.31
724.929	1.69
724.955	-1.31
724.981	-1.31
725.006	2.69
725.032	1.69
725.058	3.69
725.083	-8.31
725.109	-7.31
725.135	-2.31
725.161	8.69
725.186	-8.31
725.212	0.69
725.238	6.69
725.263	-5.31
725.289	-14.31
725.315	0.69
725.34	-2.31
725.366	0.69
725.392	-9.31
725.417	-2.31
725.443	7.69
725.468	7.69
725.494	16.69
725.52	12.69
725.545	-0.31
725.571	-6.31
725.597	-5.31
725.622	6.69
725.648	-5.31
725.674	-6.31
725.699	1.69
725.725	-2.31
725.75	15.69
725.776	-1.31
725.802	-8.31
725.827	8.69
725.853	2.69
725.878	-3.31
725.904	-13.31
725.93	-9.31
725.955	-12.31
725.981	-20.31
726.006	-6.31
726.032	12.69
726.057	3.69
726.083	-15.31
726.109	-0.31
726.134	-9.31
726.16	4.69
726.185	-6.31
726.211	5.69
726.236	5.69
726.262	8.69
726.288	15.69
726.313	23.69
726.339	-1.31
726.364	-17.31
726.39	-9.31
726.415	-9.31
726.441	4.69
726.466	1.69
726.492	-4.31
726.517	-0.31
726.543	-8.31
726.568	-9.31
726.594	-1.31
726.619	-1.31
726.645	14.69
726.67	14.69
726.696	6.69
726.721	6.69
726.747	-12.31
726.772	3.69
726.798	-6.31
726.823	11.69
726.849	-0.31
726.874	-3.31
726.9	17.69
726.925	8.69
726.951	4.69
726.976	14.69
727.002	1.69
727.027	-8.31
727.053	-8.31
727.078	1.69
727.104	10.69
727.129	-14.31
727.155	-10.31
727.18	-7.31
727.205	-9.31
727.231	-3.31
727.256	-3.31
727.282	-0.31
727.307	5.69
727.333	-0.31
727.358	-4.31
727.383	-10.31
727.409	1.69
727.434	13.69
727.46	7.69
727.485	-11.31
727.511	-14.31
727.536	-23.31
727.561	-20.31
727.587	-20.31
727.612	2.69
727.637	11.69
727.663	-0.31
727.688	11.69
727.714	-7.31
727.739	-5.31
727.764	0.69
727.79	-5.31
727.815	0.69
727.841	1.69
727.866	12.69
727.891	-12.31
727.917	-16.31
727.942	-19.31
727.967	0.69
727.993	-13.31
728.018	-3.31
728.043	-5.31
728.069	8.69
728.094	19.69
728.119	3.69
728.145	8.69
728.17	-7.31
728.195	2.69
728.221	10.69
728.246	2.69
728.271	-7.31
728.297	-5.31
728.322	11.69
728.347	3.69
728.373	26.69
728.398	5.69
728.423	-1.31
728.448	-1.31
728.474	4.69
728.499	23.69
728.524	0.69
728.55	-3.31
728.575	0.69
728.6	-7.31
728.625	-8.31
728.651	2.69
728.676	-4.31
728.701	-6.31
728.727	-2.31
728.752	-9.31
728.777	-12.31
728.802	-9.31
728.828	16.69
728.853	-5.31
728.878	-11.31
728.903	-10.31
728.929	-4.31
728.954	-9.31
728.979	13.69
729.004	2.69
729.03	-25.31
729.055	-8.31
729.08	-12.31
729.105	-4.31
729.13	18.69
729.156	8.69
729.181	6.69
729.206	-5.31
729.231	-13.31
729.256	2.69
729.282	-5.31
729.307	-10.31
729.332	-12.31
729.357	-15.31
729.382	-0.31
729.408	3.69
729.433	-3.31
729.458	2.69
729.483	8.69
729.508	8.69
729.533	-3.31
729.559	11.69
729.584	-4.31
729.609	3.69
729.634	6.69
729.659	-3.31
729.684	-4.31
729.71	22.69
729.735	10.69
729.76	11.69
729.785	-2.31
729.81	19.69
729.835	-5.31
729.86	4.69
729.886	32.69
729.911	19.69
729.936	5.69
729.961	24.69
729.986	7.69
730.011	63.69
730.036	217.69
730.061	1016.69
730.086	2707.69
730.112	3370.69
730.137	2866.69
730.162	2120.69
730.187	1614.69
730.212	1258.69
730.237	798.69
730.262	459.69
730.287	241.69
730.312	151.69
730.337	67.69
730.362	56.69
730.387	34.69
730.413	10.69
730.438	12.69
730.463	13.69
730.488	12.69
730.513	7.69
730.538	12.69
730.563	27.69
730.588	15.69
730.613	12.69
730.638	0.69
730.663	-2.31
730.688	28.69
730.713	-6.31
730.738	17.69
730.763	0.69
730.788	-2.31
730.813	6.69
730.838	12.69
730.863	18.69
730.888	10.69
730.913	-0.31
730.938	-11.31
730.963	24.69
730.988	122.69
731.013	412.69
731.038	626.69
731.063	592.69
731.088	465.69
731.113	344.69
731.138	276.69
731.163	189.69
731.188	104.69
731.213	64.69
731.238	38.69
731.263	21.69
731.288	6.69
731.313	1.69
731.338	1.69
731.363	9.69
731.388	14.69
731.413	7.69
731.438	13.69
731.463	5.69
731.487	12.69
731.512	-8.31
731.537	-10.31
731.562	13.69
731.587	3.69
731.612	-12.31
731.637	-4.31
731.662	3.69
731.687	-8.31
731.712	5.69
731.737	9.69
731.762	19.69
731.786	16.69
731.811	12.69
731.836	-1.31
731.861	-3.31
731.886	-1.31
731.911	1.69
731.936	3.69
731.961	-2.31
731.986	-3.31
732.01	0.69
732.035	-3.31
732.06	-0.31
732.085	-10.31
732.11	-3.31
732.135	-18.31
732.16	-4.31
732.184	-0.31
732.209	-3.31
732.234	5.69
732.259	-3.31
732.284	5.69
732.309	-11.31
732.334	7.69
732.358	-0.31
732.383	-1.31
732.408	-9.31
732.433	0.69
732.458	-5.31
732.482	4.69
732.507	6.69
732.532	4.69
732.557	28.69
732.582	16.69
732.607	26.69
732.631	53.69
732.656	66.69
732.681	135.69
732.706	349.69
732.73	436.69
732.755	416.69
732.78	306.69
732.805	231.69
732.83	163.69
732.854	116.69
732.879	84.69
732.904	27.69
732.929	19.69
732.953	24.69
732.978	20.69
733.003	2.69
733.028	-9.31
733.052	0.69
733.077	1.69
733.102	16.69
733.127	-6.31
733.151	-2.31
733.176	10.69
733.201	-13.31
733.226	4.69
733.25	-1.31
733.275	9.69
733.3	6.69
733.324	25.69
733.349	22.69
733.374	13.69
733.399	8.69
733.423	3.69
733.448	-2.31
733.473	1.69
733.497	-6.31
733.522	-9.31
733.547	9.69
733.571	8.69
733.596	7.69
733.621	3.69
733.646	3.69
733.67	2.69
733.695	1.69
733.72	-6.31
733.744	9.69
733.769	7.69
733.794	26.69
733.818	-5.31
733.843	-4.31
733.867	-1.31
733.892	-13.31
733.917	-5.31
733.941	-1.31
733.966	-9.31
733.991	-18.31
734.015	11.69
734.04	-1.31
734.065	7.69
734.089	13.69
734.114	-1.31
734.138	4.69
734.163	-16.31
734.188	-11.31
734.212	-11.31
734.237	11.69
734.261	3.69
734.286	-1.31
734.311	-2.31
734.335	-5.31
734.36	-5.31
734.384	11.69
734.409	6.69
734.434	-23.31
734.458	2.69
734.483	-2.31
734.507	-2.31
734.532	6.69
734.556	-2.31
734.581	-0.31
734.606	-2.31
734.63	-5.31
734.655	2.69
734.679	-10.31
734.704	-1.31
734.728	-4.31
734.753	-10.31
734.777	-16.31
734.802	1.69
734.826	7.69
734.851	2.69
734.876	8.69
734.9	2.69
734.925	4.69
734.949	-10.31
734.974	-1.31
734.998	2.69
735.023	-27.31
735.047	-2.31
735.072	6.69
735.096	3.69
735.121	-0.31
735.145	5.69
735.17	17.69
735.194	6.69
735.219	-1.31
735.243	7.69
735.268	9.69
735.292	-0.31
735.317	-4.31
735.341	0.69
735.365	-17.31
735.39	14.69
735.414	18.69
735.439	0.69
735.463	-14.31
735.488	-0.31
735.512	-15.31
735.537	-14.31
735.561	-16.31
735.586	-14.31
735.61	-2.31
735.634	-9.31
735.659	17.69
735.683	18.69
735.708	-4.31
735.732	-21.31
735.757	-11.31
735.781	-8.31
735.805	-5.31
735.83	-12.31
735.854	-3.31
735.879	-2.31
735.903	6.69
735.927	-0.31
735.952	-0.31
735.976	-8.31
736.001	-0.31
736.025	10.69
736.049	6.69
736.074	-7.31
736.098	-2.31
736.123	8.69
736.147	0.69
736.171	7.69
736.196	4.69
736.22	-13.31
736.244	10.69
736.269	-9.31
736.293	-18.31
736.317	-9.31
736.342	-11.31
736.366	4.69
736.39	23.69
736.415	11.69
736.439	5.69
736.463	-3.31
736.488	2.69
736.512	4.69
736.536	-4.31
736.561	13.69
736.585	-16.31
736.609	-2.31
736.634	-4.31
736.658	-3.31
736.682	5.69
736.707	4.69
736.731	-11.31
736.755	6.69
736.78	11.69
736.804	15.69
736.828	1.69
736.852	-10.31
736.877	-0.31
736.901	7.69
736.925	11.69
736.949	12.69
736.974	-3.31
736.998	-13.31
737.022	7.69
737.047	18.69
737.071	-3.31
737.095	13.69
737.119	18.69
737.144	11.69
737.168	-5.31
737.192	-2.31
737.216	19.69
737.241	-4.31
737.265	-1.31
737.289	-10.31
737.313	-2.31
737.337	5.69
737.362	5.69
737.386	-7.31
737.41	-19.31
737.434	5.69
737.459	-9.31
737.483	6.69
737.507	0.69
737.531	7.69
737.555	-4.31
737.58	14.69
737.604	16.69
737.628	-6.31
737.652	-11.31
737.676	0.69
737.701	10.69
737.725	-2.31
737.749	4.69
737.773	-8.31
737.797	-17.31
737.821	-14.31
737.846	19.69
737.87	22.69
737.894	8.69
737.918	-9.31
737.942	-7.31
737.966	5.69
737.99	5.69
738.015	2.69
738.039	-5.31
738.063	-0.31
738.087	22.69
738.111	7.69
738.135	26.69
738.159	-1.31
738.184	2.69
738.208	-1.31
738.232	11.69
738.256	-1.31
738.28	6.69
738.304	19.69
738.328	-13.31
738.352	1.69
738.376	-0.31
738.4	-1.31
738.425	0.69
738.449	6.69
738.473	10.69
738.497	13.69
738.521	10.69
738.545	-4.31
738.569	2.69
738.593	7.69
738.617	3.69
738.641	-4.31
738.665	-7.31
738.689	11.69
738.713	5.69
738.737	4.69
738.762	14.69
738.786	3.69
738.81	-24.31
738.834	12.69
738.858	-6.31
738.882	-5.31
738.906	-7.31
738.93	5.69
738.954	5.69
738.978	-3.31
739.002	-18.31
739.026	4.69
739.05	-9.31
739.074	-12.31
739.098	22.69
739.122	7.69
739.146	-2.31
739.17	6.69
739.194	3.69
739.218	-3.31
739.242	-8.31
739.266	-16.31
739.29	0.69
739.314	-1.31
739.338	-6.31
739.362	1.69
739.386	4.69
739.41	-0.31
739.434	-1.31
739.458	23.69
739.482	12.69
739.506	-3.31
739.53	-12.31
739.554	15.69
739.577	-7.31
739.601	1.69
739.625	-2.31
739.649	-9.31
739.673	-18.31
739.697	3.69
739.721	-9.31
739.745	17.69
739.769	13.69
739.793	18.69
739.817	14.69
739.841	-15.31
739.865	3.69
739.889	-6.31
739.912	20.69
739.936	-4.31
739.96	-4.31
739.984	-4.31
740.008	-0.31
740.032	-0.31
740.056	7.69
740.08	-4.31
740.104	-1.31
740.127	-7.31
740.151	-1.31
740.175	-1.31
740.199	7.69
740.223	46.69
740.247	-0.31
740.271	2.69
740.295	-4.31
740.318	0.69
740.342	-4.31
740.366	6.69
740.39	5.69
740.414	-10.31
740.438	-17.31
740.461	12.69
740.485	9.69
740.509	-7.31
740.533	11.69
740.557	0.69
740.581	10.69
740.604	2.69
740.628	-14.31
740.652	-0.31
740.676	-4.31
740.7	4.69
740.723	-3.31
740.747	-15.31
740.771	-9.31
740.795	-8.31
740.819	-0.31
740.842	-10.31
740.866	12.69
740.89	-7.31
740.914	0.69
740.938	0.69
740.961	13.69
740.985	-5.31
741.009	-8.31
741.033	4.69
741.056	-0.31
741.08	4.69
741.104	-4.31
741.128	8.69
741.151	11.69
741.175	-4.31
741.199	1.69
741.223	3.69
741.246	-2.31
741.27	6.69
741.294	3.69
741.318	8.69
741.341	-4.31
741.365	5.69
741.389	-7.31
741.413	8.69
741.436	19.69
741.46	3.69
741.484	15.69
741.507	2.69
741.531	44.69
741.555	18.69
741.579	-0.31
741.602	3.69
741.626	8.69
741.65	11.69
741.673	-3.31
741.697	4.69
741.721	5.69
741.744	-13.31
741.768	-8.31
741.792	0.69
741.815	-8.31
741.839	19.69
741.863	14.69
741.886	-2.31
741.91	5.69
741.934	0.69
741.957	-18.31
741.981	5.69
742.005	-7.31
742.028	-19.31
742.052	-7.31
742.075	-0.31
742.099	15.69
742.123	7.69
742.146	-8.31
742.17	-8.31
742.194	-10.31
742.217	3.69
742.241	-0.31
742.264	0.69
742.288	12.69
742.312	11.69
742.335	2.69
742.359	-3.31
742.382	12.69
742.406	9.69
742.43	-12.31
742.453	4.69
742.477	-18.31
742.5	-7.31
742.524	4.69
742.548	-10.31
742.571	-8.31
742.595	-0.31
742.618	-9.31
742.642	1.69
742.665	8.69
742.689	-3.31
742.712	0.69
742.736	-9.31
742.76	-7.31
742.783	9.69
742.807	10.69
742.83	7.69
742.854	-4.31
742.877	5.69
742.901	8.69
742.924	-13.31
742.948	-9.31
742.971	7.69
742.995	10.69
743.018	-0.31
743.042	-5.31
743.065	2.69
743.089	-23.31
743.112	10.69
743.136	-4.31
743.159	-8.31
743.183	-1.31
743.206	7.69
743.23	-0.31
743.253	4.69
743.277	12.69
743.3	-11.31
743.324	-5.31
743.347	-8.31
743.371	12.69
743.394	2.69
743.418	14.69
743.441	-0.31
743.465	16.69
743.488	5.69
743.512	-17.31
743.535	-12.31
743.558	-8.31
743.582	-5.31
743.605	8.69
743.629	9.69
743.652	-0.31
743.676	-4.31
743.699	2.69
743.723	-0.31
743.746	-0.31
743.769	-4.31
743.793	-0.31
743.816	4.69
743.84	24.69
743.863	3.69
743.886	-5.31
743.91	-4.31
743.933	-7.31
743.957	-3.31
743.98	-8.31
744.003	-4.31
744.027	-4.31
744.05	-4.31
744.074	-5.31
744.097	-24.31
744.12	5.69
744.144	-7.31
744.167	-5.31
744.19	-10.31
744.214	-14.31
744.237	-4.31
744.26	16.69
744.284	-5.31
744.307	-7.31
744.331	-2.31
744.354	-1.31
744.377	-17.31
744.401	-3.31
744.424	4.69
744.447	-2.31
744.471	3.69
