Data from HighRes_mercury_15_13_11_07_2024_HR4C61891__52__15-14-28-386.txt Node

Date: Thu Nov 07 15:14:28 EST 2024
User: crc00042
Spectrometer: HR4C6189
Trigger mode: 4
Integration Time (sec): 1.000000E-1
Scans to average: 1
Electric dark correction enabled: true
Nonlinearity correction enabled: false
Boxcar width: 0
XAxis mode: Wavelengths
Number of Pixels in Spectrum: 3648
>>>>>Begin Spectral Data<<<<<
639.567	-45.92
639.602	-45.92
639.636	-45.92
639.67	-33.92
639.704	-17.92
639.738	-7.92
639.773	13.08
639.807	-11.92
639.841	-4.92
639.875	10.08
639.909	6.08
639.943	-6.92
639.978	-4.92
640.012	-3.92
640.046	16.08
640.08	5.08
640.114	-2.92
640.148	-6.92
640.182	-3.92
640.217	-6.92
640.251	12.08
640.285	1.08
640.319	-7.92
640.353	2.08
640.387	0.08
640.421	-10.92
640.455	-6.92
640.49	-2.92
640.524	0.08
640.558	3.08
640.592	10.08
640.626	3.08
640.66	3.08
640.694	-14.92
640.728	8.08
640.762	10.08
640.796	16.08
640.83	24.08
640.865	-4.92
640.899	0.08
640.933	16.08
640.967	3.08
641.001	2.08
641.035	5.08
641.069	22.08
641.103	-11.92
641.137	0.08
641.171	-16.92
641.205	9.08
641.239	5.08
641.273	9.08
641.307	2.08
641.341	1.08
641.375	2.08
641.409	-13.92
641.443	-5.92
641.477	11.08
641.511	14.08
641.545	1.08
641.579	-1.92
641.614	15.08
641.648	11.08
641.682	-20.92
641.716	2.08
641.75	18.08
641.784	1.08
641.818	-4.92
641.852	5.08
641.886	0.08
641.919	11.08
641.953	4.08
641.987	-4.92
642.021	17.08
642.055	7.08
642.089	5.08
642.123	-22.92
642.157	-5.92
642.191	1.08
642.225	19.08
642.259	-5.92
642.293	3.08
642.327	1.08
642.361	-11.92
642.395	14.08
642.429	8.08
642.463	9.08
642.497	17.08
642.531	-4.92
642.565	-6.92
642.599	9.08
642.633	-5.92
642.666	20.08
642.7	20.08
642.734	14.08
642.768	-8.92
642.802	13.08
642.836	15.08
642.87	-6.92
642.904	6.08
642.938	7.08
642.972	7.08
643.005	11.08
643.039	27.08
643.073	0.08
643.107	-8.92
643.141	8.08
643.175	4.08
643.209	-9.92
643.243	-0.92
643.276	7.08
643.31	-5.92
643.344	3.08
643.378	4.08
643.412	5.08
643.446	-6.92
643.48	10.08
643.513	14.08
643.547	1.08
643.581	-2.92
643.615	-13.92
643.649	13.08
643.683	11.08
643.716	3.08
643.75	9.08
643.784	-3.92
643.818	10.08
643.852	-0.92
643.886	11.08
643.919	4.08
643.953	-9.92
643.987	7.08
644.021	-1.92
644.055	3.08
644.088	1.08
644.122	-3.92
644.156	-25.92
644.19	5.08
644.224	18.08
644.257	14.08
644.291	-6.92
644.325	3.08
644.359	3.08
644.392	31.08
644.426	3.08
644.46	2.08
644.494	0.08
644.527	-3.92
644.561	6.08
644.595	0.08
644.629	-6.92
644.662	6.08
644.696	4.08
644.73	1.08
644.764	3.08
644.797	10.08
644.831	16.08
644.865	7.08
644.899	18.08
644.932	21.08
644.966	0.08
645	15.08
645.033	5.08
645.067	-1.92
645.101	7.08
645.135	3.08
645.168	4.08
645.202	-2.92
645.236	9.08
645.269	17.08
645.303	-1.92
645.337	-21.92
645.37	4.08
645.404	4.08
645.438	20.08
645.471	-4.92
645.505	9.08
645.539	30.08
645.572	-8.92
645.606	-10.92
645.64	-3.92
645.673	3.08
645.707	25.08
645.741	-2.92
645.774	-11.92
645.808	-0.92
645.842	-8.92
645.875	2.08
645.909	-17.92
645.943	-6.92
645.976	1.08
646.01	11.08
646.043	23.08
646.077	14.08
646.111	4.08
646.144	4.08
646.178	5.08
646.212	-13.92
646.245	0.08
646.279	9.08
646.312	7.08
646.346	7.08
646.38	-13.92
646.413	-0.92
646.447	13.08
646.48	-13.92
646.514	4.08
646.547	-15.92
646.581	-3.92
646.615	-7.92
646.648	1.08
646.682	2.08
646.715	-2.92
646.749	6.08
646.782	-1.92
646.816	4.08
646.85	10.08
646.883	0.08
646.917	-1.92
646.95	6.08
646.984	16.08
647.017	5.08
647.051	6.08
647.084	0.08
647.118	12.08
647.151	-12.92
647.185	-11.92
647.218	-25.92
647.252	-0.92
647.285	-10.92
647.319	-11.92
647.353	-2.92
647.386	10.08
647.42	21.08
647.453	6.08
647.487	-2.92
647.52	-1.92
647.553	8.08
647.587	2.08
647.62	-7.92
647.654	10.08
647.687	3.08
647.721	-0.92
647.754	3.08
647.788	-7.92
647.821	-14.92
647.855	-2.92
647.888	-2.92
647.922	25.08
647.955	3.08
647.989	10.08
648.022	0.08
648.055	7.08
648.089	0.08
648.122	13.08
648.156	-1.92
648.189	6.08
648.223	0.08
648.256	25.08
648.29	5.08
648.323	16.08
648.356	-6.92
648.39	-0.92
648.423	3.08
648.457	-3.92
648.49	1.08
648.523	9.08
648.557	-0.92
648.59	-0.92
648.624	-7.92
648.657	9.08
648.69	14.08
648.724	9.08
648.757	3.08
648.791	0.08
648.824	2.08
648.857	8.08
648.891	2.08
648.924	2.08
648.957	23.08
648.991	-16.92
649.024	11.08
649.057	5.08
649.091	5.08
649.124	16.08
649.158	13.08
649.191	19.08
649.224	-12.92
649.258	15.08
649.291	1.08
649.324	7.08
649.358	-8.92
649.391	9.08
649.424	4.08
649.458	-10.92
649.491	9.08
649.524	-2.92
649.557	3.08
649.591	-10.92
649.624	8.08
649.657	1.08
649.691	-5.92
649.724	-4.92
649.757	4.08
649.791	-6.92
649.824	8.08
649.857	11.08
649.89	6.08
649.924	-15.92
649.957	6.08
649.99	-4.92
650.023	-14.92
650.057	-5.92
650.09	-6.92
650.123	2.08
650.157	19.08
650.19	36.08
650.223	-12.92
650.256	-18.92
650.29	-1.92
650.323	1.08
650.356	17.08
650.389	-7.92
650.423	-9.92
650.456	-5.92
650.489	4.08
650.522	3.08
650.555	16.08
650.589	9.08
650.622	-10.92
650.655	-11.92
650.688	8.08
650.721	2.08
650.755	-4.92
650.788	13.08
650.821	11.08
650.854	-5.92
650.887	0.08
650.921	-6.92
650.954	0.08
650.987	4.08
651.02	-10.92
651.053	1.08
651.087	-15.92
651.12	10.08
651.153	17.08
651.186	6.08
651.219	-15.92
651.252	1.08
651.286	15.08
651.319	-9.92
651.352	-1.92
651.385	-6.92
651.418	3.08
651.451	25.08
651.484	13.08
651.518	-2.92
651.551	3.08
651.584	1.08
651.617	14.08
651.65	20.08
651.683	5.08
651.716	9.08
651.749	-12.92
651.783	-7.92
651.816	-4.92
651.849	7.08
651.882	10.08
651.915	-2.92
651.948	6.08
651.981	13.08
652.014	-12.92
652.047	-17.92
652.08	-8.92
652.114	-9.92
652.147	-7.92
652.18	-1.92
652.213	21.08
652.246	-16.92
652.279	-7.92
652.312	-5.92
652.345	-5.92
652.378	2.08
652.411	22.08
652.444	14.08
652.477	-7.92
652.51	3.08
652.543	-10.92
652.576	-4.92
652.609	-22.92
652.642	-2.92
652.675	16.08
652.709	5.08
652.742	1.08
652.775	-1.92
652.808	21.08
652.841	1.08
652.874	-4.92
652.907	10.08
652.94	-2.92
652.973	-16.92
653.006	-1.92
653.039	2.08
653.072	3.08
653.105	-0.92
653.138	-7.92
653.171	-3.92
653.204	-12.92
653.237	-5.92
653.27	-2.92
653.303	11.08
653.336	1.08
653.368	-22.92
653.401	6.08
653.434	-2.92
653.467	-3.92
653.5	-16.92
653.533	-12.92
653.566	6.08
653.599	-4.92
653.632	3.08
653.665	5.08
653.698	0.08
653.731	5.08
653.764	8.08
653.797	-0.92
653.83	11.08
653.863	12.08
653.896	-7.92
653.929	3.08
653.961	8.08
653.994	5.08
654.027	-19.92
654.06	-11.92
654.093	1.08
654.126	1.08
654.159	-20.92
654.192	-4.92
654.225	-4.92
654.258	3.08
654.29	-9.92
654.323	-6.92
654.356	0.08
654.389	-1.92
654.422	-9.92
654.455	-1.92
654.488	7.08
654.521	-10.92
654.553	-9.92
654.586	-10.92
654.619	-1.92
654.652	-7.92
654.685	5.08
654.718	4.08
654.751	-5.92
654.783	-2.92
654.816	17.08
654.849	13.08
654.882	-7.92
654.915	-5.92
654.948	-11.92
654.98	0.08
655.013	-1.92
655.046	0.08
655.079	-2.92
655.112	-3.92
655.144	-5.92
655.177	11.08
655.21	3.08
655.243	11.08
655.276	23.08
655.308	14.08
655.341	-12.92
655.374	-5.92
655.407	-5.92
655.44	-0.92
655.472	2.08
655.505	-8.92
655.538	9.08
655.571	21.08
655.603	2.08
655.636	-0.92
655.669	-1.92
655.702	7.08
655.734	-25.92
655.767	-2.92
655.8	16.08
655.833	11.08
655.865	9.08
655.898	-6.92
655.931	-1.92
655.964	-2.92
655.996	-0.92
656.029	1.08
656.062	-9.92
656.095	-24.92
656.127	-10.92
656.16	-10.92
656.193	4.08
656.225	4.08
656.258	12.08
656.291	0.08
656.324	14.08
656.356	7.08
656.389	10.08
656.422	10.08
656.454	-26.92
656.487	-0.92
656.52	-5.92
656.552	2.08
656.585	3.08
656.618	8.08
656.65	25.08
656.683	-8.92
656.716	0.08
656.748	6.08
656.781	15.08
656.814	0.08
656.846	14.08
656.879	1.08
656.912	3.08
656.944	2.08
656.977	-14.92
657.01	-2.92
657.042	-8.92
657.075	14.08
657.108	-8.92
657.14	18.08
657.173	23.08
657.205	22.08
657.238	6.08
657.271	-2.92
657.303	-3.92
657.336	2.08
657.369	8.08
657.401	1.08
657.434	-6.92
657.466	1.08
657.499	5.08
657.532	-2.92
657.564	15.08
657.597	-5.92
657.629	19.08
657.662	9.08
657.694	-0.92
657.727	-14.92
657.76	5.08
657.792	-27.92
657.825	-7.92
657.857	5.08
657.89	-1.92
657.922	17.08
657.955	-9.92
657.987	11.08
658.02	20.08
658.053	9.08
658.085	-0.92
658.118	1.08
658.15	14.08
658.183	9.08
658.215	-2.92
658.248	-22.92
658.28	-14.92
658.313	15.08
658.345	-0.92
658.378	-10.92
658.41	-7.92
658.443	16.08
658.475	-5.92
658.508	-4.92
658.54	11.08
658.573	-2.92
658.605	7.08
658.638	2.08
658.67	6.08
658.703	-4.92
658.735	4.08
658.768	-0.92
658.8	-14.92
658.833	9.08
658.865	9.08
658.898	0.08
658.93	9.08
658.963	4.08
658.995	-14.92
659.028	-7.92
659.06	-15.92
659.092	-13.92
659.125	-15.92
659.157	15.08
659.19	-7.92
659.222	-0.92
659.255	5.08
659.287	7.08
659.32	-1.92
659.352	5.08
659.384	22.08
659.417	15.08
659.449	10.08
659.482	3.08
659.514	4.08
659.546	-3.92
659.579	-10.92
659.611	11.08
659.644	8.08
659.676	10.08
659.708	1.08
659.741	-6.92
659.773	4.08
659.806	13.08
659.838	-1.92
659.87	4.08
659.903	3.08
659.935	13.08
659.967	16.08
660	4.08
660.032	-25.92
660.065	9.08
660.097	3.08
660.129	14.08
660.162	-16.92
660.194	3.08
660.226	7.08
660.259	11.08
660.291	-0.92
660.323	-6.92
660.356	0.08
660.388	-9.92
660.42	-0.92
660.453	5.08
660.485	0.08
660.517	17.08
660.55	22.08
660.582	-0.92
660.614	14.08
660.647	1.08
660.679	-10.92
660.711	1.08
660.743	-9.92
660.776	-6.92
660.808	-6.92
660.84	-9.92
660.873	1.08
660.905	-6.92
660.937	-2.92
660.969	-6.92
661.002	-16.92
661.034	13.08
661.066	7.08
661.099	11.08
661.131	8.08
661.163	-2.92
661.195	3.08
661.228	28.08
661.26	-3.92
661.292	-1.92
661.324	18.08
661.357	10.08
661.389	-0.92
661.421	16.08
661.453	-7.92
661.485	-5.92
661.518	4.08
661.55	-3.92
661.582	-8.92
661.614	-6.92
661.647	5.08
661.679	13.08
661.711	5.08
661.743	5.08
661.775	7.08
661.808	20.08
661.84	10.08
661.872	9.08
661.904	-0.92
661.936	-4.92
661.969	-9.92
662.001	-25.92
662.033	7.08
662.065	-1.92
662.097	22.08
662.129	11.08
662.162	-11.92
662.194	2.08
662.226	-2.92
662.258	-0.92
662.29	-6.92
662.322	-0.92
662.355	-15.92
662.387	14.08
662.419	20.08
662.451	11.08
662.483	4.08
662.515	7.08
662.547	1.08
662.58	7.08
662.612	1.08
662.644	-10.92
662.676	-5.92
662.708	2.08
662.74	3.08
662.772	2.08
662.804	23.08
662.836	18.08
662.869	3.08
662.901	23.08
662.933	-0.92
662.965	20.08
662.997	32.08
663.029	10.08
663.061	-2.92
663.093	12.08
663.125	19.08
663.157	2.08
663.189	3.08
663.221	16.08
663.254	1.08
663.286	-6.92
663.318	-4.92
663.35	0.08
663.382	1.08
663.414	17.08
663.446	16.08
663.478	-23.92
663.51	32.08
663.542	-8.92
663.574	-5.92
663.606	-8.92
663.638	-0.92
663.67	-5.92
663.702	9.08
663.734	-0.92
663.766	9.08
663.798	-2.92
663.83	3.08
663.862	15.08
663.894	4.08
663.926	-0.92
663.958	13.08
663.99	7.08
664.022	5.08
664.054	16.08
664.086	-5.92
664.118	-10.92
664.15	-5.92
664.182	17.08
664.214	-2.92
664.246	8.08
664.278	8.08
664.31	2.08
664.342	6.08
664.374	15.08
664.406	1.08
664.438	3.08
664.47	17.08
664.502	-17.92
664.534	-7.92
664.566	-11.92
664.598	3.08
664.63	7.08
664.662	8.08
664.693	-14.92
664.725	1.08
664.757	0.08
664.789	-1.92
664.821	-5.92
664.853	10.08
664.885	-6.92
664.917	-8.92
664.949	9.08
664.981	6.08
665.013	8.08
665.045	7.08
665.076	-1.92
665.108	15.08
665.14	7.08
665.172	2.08
665.204	0.08
665.236	-14.92
665.268	27.08
665.3	-7.92
665.331	-10.92
665.363	4.08
665.395	-12.92
665.427	-4.92
665.459	-2.92
665.491	1.08
665.523	20.08
665.555	2.08
665.586	2.08
665.618	2.08
665.65	-16.92
665.682	0.08
665.714	4.08
665.746	-12.92
665.777	0.08
665.809	-5.92
665.841	3.08
665.873	-2.92
665.905	5.08
665.937	9.08
665.968	24.08
666	1.08
666.032	-7.92
666.064	-4.92
666.096	2.08
666.127	10.08
666.159	11.08
666.191	12.08
666.223	1.08
666.255	9.08
666.286	14.08
666.318	1.08
666.35	3.08
666.382	0.08
666.413	1.08
666.445	-18.92
666.477	-22.92
666.509	-13.92
666.54	-2.92
666.572	-13.92
666.604	-13.92
666.636	-1.92
666.667	6.08
666.699	-0.92
666.731	-0.92
666.763	-11.92
666.794	5.08
666.826	10.08
666.858	-9.92
666.89	19.08
666.921	10.08
666.953	3.08
666.985	2.08
667.017	5.08
667.048	3.08
667.08	-6.92
667.112	-2.92
667.143	4.08
667.175	8.08
667.207	15.08
667.238	6.08
667.27	3.08
667.302	1.08
667.334	-15.92
667.365	7.08
667.397	10.08
667.429	-3.92
667.46	0.08
667.492	9.08
667.524	-5.92
667.555	-16.92
667.587	0.08
667.619	12.08
667.65	-2.92
667.682	7.08
667.714	9.08
667.745	11.08
667.777	9.08
667.808	9.08
667.84	0.08
667.872	-1.92
667.903	26.08
667.935	1.08
667.967	14.08
667.998	8.08
668.03	8.08
668.061	13.08
668.093	-8.92
668.125	19.08
668.156	1.08
668.188	0.08
668.22	-3.92
668.251	5.08
668.283	0.08
668.314	15.08
668.346	9.08
668.377	14.08
668.409	7.08
668.441	12.08
668.472	14.08
668.504	12.08
668.535	4.08
668.567	19.08
668.599	17.08
668.63	1.08
668.662	-8.92
668.693	12.08
668.725	-9.92
668.756	-1.92
668.788	0.08
668.819	-5.92
668.851	5.08
668.882	0.08
668.914	5.08
668.946	-11.92
668.977	-8.92
669.009	-7.92
669.04	-18.92
669.072	2.08
669.103	13.08
669.135	6.08
669.166	-2.92
669.198	-2.92
669.229	3.08
669.261	-10.92
669.292	-4.92
669.324	5.08
669.355	11.08
669.387	-17.92
669.418	6.08
669.45	-7.92
669.481	0.08
669.513	-4.92
669.544	0.08
669.576	-4.92
669.607	10.08
669.639	20.08
669.67	-1.92
669.701	3.08
669.733	-21.92
669.764	10.08
669.796	8.08
669.827	-4.92
669.859	-1.92
669.89	-3.92
669.922	8.08
669.953	3.08
669.985	-4.92
670.016	0.08
670.047	-11.92
670.079	5.08
670.11	10.08
670.142	7.08
670.173	3.08
670.204	10.08
670.236	2.08
670.267	-11.92
670.299	-7.92
670.33	-3.92
670.362	8.08
670.393	2.08
670.424	5.08
670.456	-15.92
670.487	-0.92
670.518	2.08
670.55	-1.92
670.581	-14.92
670.613	-3.92
670.644	5.08
670.675	-7.92
670.707	0.08
670.738	-2.92
670.769	2.08
670.801	-12.92
670.832	-7.92
670.864	-13.92
670.895	4.08
670.926	-3.92
670.958	-10.92
670.989	-11.92
671.02	-10.92
671.052	6.08
671.083	9.08
671.114	-3.92
671.146	6.08
671.177	9.08
671.208	0.08
671.24	-12.92
671.271	0.08
671.302	-9.92
671.333	-4.92
671.365	2.08
671.396	1.08
671.427	26.08
671.459	3.08
671.49	1.08
671.521	-4.92
671.553	-1.92
671.584	-9.92
671.615	-6.92
671.646	9.08
671.678	-6.92
671.709	-11.92
671.74	1.08
671.771	-6.92
671.803	-2.92
671.834	-5.92
671.865	-20.92
671.896	5.08
671.928	4.08
671.959	-15.92
671.99	2.08
672.021	-10.92
672.053	-3.92
672.084	0.08
672.115	15.08
672.146	13.08
672.178	-18.92
672.209	-12.92
672.24	4.08
672.271	13.08
672.303	-0.92
672.334	-2.92
672.365	9.08
672.396	7.08
672.427	19.08
672.459	17.08
672.49	15.08
672.521	-0.92
672.552	7.08
672.583	15.08
672.615	4.08
672.646	21.08
672.677	-15.92
672.708	-7.92
672.739	-0.92
672.77	11.08
672.802	-3.92
672.833	-7.92
672.864	4.08
672.895	-5.92
672.926	0.08
672.957	-10.92
672.989	-8.92
673.02	-5.92
673.051	-16.92
673.082	5.08
673.113	-3.92
673.144	17.08
673.175	18.08
673.206	-4.92
673.238	10.08
673.269	0.08
673.3	-27.92
673.331	5.08
673.362	-7.92
673.393	0.08
673.424	12.08
673.455	25.08
673.487	-2.92
673.518	-8.92
673.549	-2.92
673.58	4.08
673.611	8.08
673.642	3.08
673.673	1.08
673.704	11.08
673.735	1.08
673.766	-1.92
673.797	3.08
673.828	-2.92
673.86	-15.92
673.891	0.08
673.922	-7.92
673.953	-19.92
673.984	3.08
674.015	14.08
674.046	-8.92
674.077	-0.92
674.108	0.08
674.139	-0.92
674.17	0.08
674.201	-8.92
674.232	-1.92
674.263	6.08
674.294	-6.92
674.325	-8.92
674.356	-8.92
674.387	12.08
674.418	11.08
674.449	3.08
674.48	4.08
674.511	-1.92
674.542	16.08
674.573	0.08
674.604	11.08
674.635	5.08
674.666	22.08
674.697	14.08
674.728	5.08
674.759	-2.92
674.79	-2.92
674.821	3.08
674.852	13.08
674.883	-9.92
674.914	-16.92
674.945	3.08
674.976	3.08
675.007	-9.92
675.038	-22.92
675.069	-2.92
675.1	-11.92
675.131	-13.92
675.162	-2.92
675.193	-18.92
675.224	-2.92
675.254	9.08
675.285	5.08
675.316	15.08
675.347	-9.92
675.378	-17.92
675.409	-16.92
675.44	-1.92
675.471	4.08
675.502	0.08
675.533	-15.92
675.564	-3.92
675.595	4.08
675.625	19.08
675.656	6.08
675.687	9.08
675.718	-25.92
675.749	-6.92
675.78	-15.92
675.811	4.08
675.842	13.08
675.873	0.08
675.903	-3.92
675.934	-2.92
675.965	-19.92
675.996	-17.92
676.027	-0.92
676.058	13.08
676.089	-0.92
676.119	-2.92
676.15	-3.92
676.181	-3.92
676.212	-24.92
676.243	28.08
676.274	5.08
676.304	20.08
676.335	-6.92
676.366	-1.92
676.397	-4.92
676.428	-16.92
676.459	-4.92
676.489	-6.92
676.52	8.08
676.551	1.08
676.582	-10.92
676.613	17.08
676.643	-9.92
676.674	2.08
676.705	1.08
676.736	2.08
676.767	13.08
676.797	8.08
676.828	23.08
676.859	5.08
676.89	6.08
676.92	5.08
676.951	-11.92
676.982	10.08
677.013	8.08
677.044	15.08
677.074	27.08
677.105	-2.92
677.136	-4.92
677.167	-6.92
677.197	10.08
677.228	10.08
677.259	-6.92
677.289	14.08
677.32	-14.92
677.351	-8.92
677.382	-5.92
677.412	-10.92
677.443	6.08
677.474	-1.92
677.505	-31.92
677.535	7.08
677.566	-7.92
677.597	-6.92
677.627	-1.92
677.658	-9.92
677.689	0.08
677.72	-9.92
677.75	-15.92
677.781	2.08
677.812	15.08
677.842	9.08
677.873	-5.92
677.904	-4.92
677.934	-2.92
677.965	-0.92
677.996	-22.92
678.026	-9.92
678.057	-4.92
678.088	-20.92
678.118	-5.92
678.149	-16.92
678.18	-6.92
678.21	-2.92
678.241	-0.92
678.272	-7.92
678.302	-14.92
678.333	10.08
678.363	0.08
678.394	-5.92
678.425	-7.92
678.455	2.08
678.486	9.08
678.517	3.08
678.547	1.08
678.578	-5.92
678.608	-1.92
678.639	19.08
678.67	0.08
678.7	-13.92
678.731	-3.92
678.761	9.08
678.792	11.08
678.823	15.08
678.853	3.08
678.884	-3.92
678.914	10.08
678.945	8.08
678.975	6.08
679.006	-1.92
679.037	3.08
679.067	18.08
679.098	5.08
679.128	-8.92
679.159	-1.92
679.189	17.08
679.22	-15.92
679.25	0.08
679.281	-2.92
679.312	-1.92
679.342	-8.92
679.373	20.08
679.403	0.08
679.434	2.08
679.464	-10.92
679.495	-2.92
679.525	-1.92
679.556	-0.92
679.586	16.08
679.617	10.08
679.647	16.08
679.678	-6.92
679.708	-8.92
679.739	-17.92
679.769	-18.92
679.8	5.08
679.83	8.08
679.861	-1.92
679.891	5.08
679.922	-1.92
679.952	-8.92
679.983	20.08
680.013	19.08
680.044	-1.92
680.074	20.08
680.105	10.08
680.135	-2.92
680.165	2.08
680.196	10.08
680.226	22.08
680.257	9.08
680.287	-6.92
680.318	1.08
680.348	-9.92
680.379	16.08
680.409	3.08
680.439	-14.92
680.47	-5.92
680.5	-1.92
680.531	17.08
680.561	13.08
680.592	6.08
680.622	11.08
680.652	2.08
680.683	12.08
680.713	-6.92
680.744	10.08
680.774	-6.92
680.804	7.08
680.835	9.08
680.865	-11.92
680.896	5.08
680.926	14.08
680.956	0.08
680.987	-6.92
681.017	-12.92
681.047	7.08
681.078	-18.92
681.108	-6.92
681.139	-2.92
681.169	-5.92
681.199	8.08
681.23	-4.92
681.26	-2.92
681.29	-14.92
681.321	-23.92
681.351	10.08
681.381	-7.92
681.412	4.08
681.442	-6.92
681.472	1.08
681.503	5.08
681.533	-0.92
681.563	2.08
681.594	1.08
681.624	-1.92
681.654	-11.92
681.685	2.08
681.715	2.08
681.745	-6.92
681.775	-1.92
681.806	2.08
681.836	-0.92
681.866	-3.92
681.897	15.08
681.927	1.08
681.957	-16.92
681.987	-2.92
682.018	-1.92
682.048	-5.92
682.078	-5.92
682.109	19.08
682.139	18.08
682.169	6.08
682.199	10.08
682.23	-1.92
682.26	10.08
682.29	1.08
682.32	-13.92
682.351	11.08
682.381	-10.92
682.411	-6.92
682.441	-10.92
682.472	-6.92
682.502	-14.92
682.532	-0.92
682.562	-0.92
682.592	4.08
682.623	-2.92
682.653	5.08
682.683	7.08
682.713	11.08
682.743	3.08
682.774	2.08
682.804	3.08
682.834	14.08
682.864	-9.92
682.894	5.08
682.925	15.08
682.955	-3.92
682.985	-7.92
683.015	0.08
683.045	10.08
683.076	-16.92
683.106	9.08
683.136	-12.92
683.166	-6.92
683.196	0.08
683.226	5.08
683.257	0.08
683.287	-13.92
683.317	-9.92
683.347	2.08
683.377	-3.92
683.407	0.08
683.437	2.08
683.468	11.08
683.498	-4.92
683.528	2.08
683.558	3.08
683.588	-12.92
683.618	-16.92
683.648	-21.92
683.678	7.08
683.708	1.08
683.739	-11.92
683.769	1.08
683.799	0.08
683.829	3.08
683.859	-11.92
683.889	7.08
683.919	-9.92
683.949	-16.92
683.979	-8.92
684.009	-9.92
684.039	-4.92
684.07	14.08
684.1	17.08
684.13	-1.92
684.16	-10.92
684.19	6.08
684.22	-17.92
684.25	-0.92
684.28	1.08
684.31	6.08
684.34	20.08
684.37	1.08
684.4	-11.92
684.43	11.08
684.46	1.08
684.49	25.08
684.52	9.08
684.55	1.08
684.58	-1.92
684.61	1.08
684.64	20.08
684.67	14.08
684.7	1.08
684.73	-1.92
684.76	-18.92
684.79	16.08
684.82	-3.92
684.85	-6.92
684.88	-5.92
684.91	-20.92
684.94	7.08
684.97	-14.92
685	-18.92
685.03	1.08
685.06	-13.92
685.09	-14.92
685.12	5.08
685.15	-11.92
685.18	11.08
685.21	6.08
685.24	4.08
685.27	5.08
685.3	-20.92
685.33	21.08
685.36	-11.92
685.39	-1.92
685.42	-0.92
685.45	2.08
685.48	-16.92
685.51	-17.92
685.54	4.08
685.569	-5.92
685.599	15.08
685.629	15.08
685.659	-0.92
685.689	6.08
685.719	-8.92
685.749	-8.92
685.779	14.08
685.809	8.08
685.839	2.08
685.869	7.08
685.898	10.08
685.928	6.08
685.958	2.08
685.988	7.08
686.018	-7.92
686.048	-0.92
686.078	7.08
686.108	22.08
686.137	11.08
686.167	16.08
686.197	-2.92
686.227	8.08
686.257	6.08
686.287	9.08
686.317	10.08
686.346	-12.92
686.376	-13.92
686.406	-18.92
686.436	-0.92
686.466	-5.92
686.496	7.08
686.525	6.08
686.555	8.08
686.585	17.08
686.615	26.08
686.645	-9.92
686.675	-2.92
686.704	-1.92
686.734	4.08
686.764	3.08
686.794	-4.92
686.824	-0.92
686.853	-4.92
686.883	-3.92
686.913	13.08
686.943	-2.92
686.973	-9.92
687.002	26.08
687.032	-5.92
687.062	-1.92
687.092	21.08
687.121	-5.92
687.151	-6.92
687.181	5.08
687.211	17.08
687.24	0.08
687.27	1.08
687.3	9.08
687.33	10.08
687.359	-13.92
687.389	10.08
687.419	1.08
687.449	4.08
687.478	0.08
687.508	2.08
687.538	8.08
687.568	19.08
687.597	-18.92
687.627	-2.92
687.657	7.08
687.686	8.08
687.716	17.08
687.746	-6.92
687.776	0.08
687.805	-0.92
687.835	7.08
687.865	7.08
687.894	8.08
687.924	-12.92
687.954	2.08
687.983	8.08
688.013	-5.92
688.043	10.08
688.072	-12.92
688.102	23.08
688.132	-1.92
688.161	8.08
688.191	8.08
688.221	4.08
688.25	-1.92
688.28	-1.92
688.31	-8.92
688.339	-2.92
688.369	-3.92
688.399	2.08
688.428	5.08
688.458	7.08
688.488	11.08
688.517	7.08
688.547	-1.92
688.576	22.08
688.606	11.08
688.636	-14.92
688.665	7.08
688.695	-17.92
688.725	9.08
688.754	3.08
688.784	-3.92
688.813	13.08
688.843	6.08
688.873	-9.92
688.902	6.08
688.932	-8.92
688.961	4.08
688.991	19.08
689.02	4.08
689.05	-2.92
689.08	13.08
689.109	22.08
689.139	0.08
689.168	-6.92
689.198	-0.92
689.227	-6.92
689.257	13.08
689.287	18.08
689.316	-0.92
689.346	-7.92
689.375	-11.92
689.405	4.08
689.434	-0.92
689.464	6.08
689.493	6.08
689.523	4.08
689.552	-0.92
689.582	3.08
689.611	-3.92
689.641	-3.92
689.67	-2.92
689.7	-2.92
689.73	20.08
689.759	5.08
689.789	15.08
689.818	-2.92
689.848	-3.92
689.877	1.08
689.906	-0.92
689.936	-5.92
689.965	14.08
689.995	8.08
690.024	18.08
690.054	3.08
690.083	0.08
690.113	9.08
690.142	-0.92
690.172	-3.92
690.201	10.08
690.231	3.08
690.26	13.08
690.29	1.08
690.319	23.08
690.348	4.08
690.378	5.08
690.407	4.08
690.437	-8.92
690.466	-1.92
690.496	1.08
690.525	13.08
690.555	5.08
690.584	-2.92
690.613	-7.92
690.643	20.08
690.672	15.08
690.702	22.08
690.731	5.08
690.76	22.08
690.79	54.08
690.819	37.08
690.849	30.08
690.878	24.08
690.907	30.08
690.937	21.08
690.966	21.08
690.996	13.08
691.025	12.08
691.054	-4.92
691.084	4.08
691.113	10.08
691.142	-1.92
691.172	9.08
691.201	2.08
691.23	4.08
691.26	12.08
691.289	15.08
691.319	-2.92
691.348	8.08
691.377	6.08
691.407	-1.92
691.436	-4.92
691.465	0.08
691.495	-9.92
691.524	0.08
691.553	0.08
691.583	3.08
691.612	6.08
691.641	0.08
691.67	-9.92
691.7	-0.92
691.729	-11.92
691.758	10.08
691.788	-3.92
691.817	-7.92
691.846	-3.92
691.876	8.08
691.905	-3.92
691.934	-6.92
691.963	23.08
691.993	16.08
692.022	0.08
692.051	-18.92
692.081	3.08
692.11	20.08
692.139	0.08
692.168	-1.92
692.198	24.08
692.227	14.08
692.256	9.08
692.285	3.08
692.315	-17.92
692.344	12.08
692.373	15.08
692.402	-4.92
692.432	-13.92
692.461	-2.92
692.49	-1.92
692.519	6.08
692.548	6.08
692.578	-2.92
692.607	5.08
692.636	-9.92
692.665	7.08
692.694	4.08
692.724	6.08
692.753	8.08
692.782	12.08
692.811	-5.92
692.84	11.08
692.87	9.08
692.899	18.08
692.928	-8.92
692.957	3.08
692.986	2.08
693.016	3.08
693.045	8.08
693.074	-13.92
693.103	2.08
693.132	18.08
693.161	20.08
693.191	-2.92
693.22	-5.92
693.249	-18.92
693.278	-3.92
693.307	5.08
693.336	-2.92
693.365	-21.92
693.395	-3.92
693.424	-6.92
693.453	14.08
693.482	-1.92
693.511	8.08
693.54	-2.92
693.569	11.08
693.598	-8.92
693.628	16.08
693.657	16.08
693.686	16.08
693.715	18.08
693.744	23.08
693.773	17.08
693.802	15.08
693.831	5.08
693.86	9.08
693.889	8.08
693.919	15.08
693.948	5.08
693.977	-2.92
694.006	-5.92
694.035	18.08
694.064	-2.92
694.093	9.08
694.122	-0.92
694.151	3.08
694.18	16.08
694.209	9.08
694.238	-4.92
694.267	20.08
694.296	-2.92
694.325	4.08
694.354	5.08
694.383	17.08
694.412	-1.92
694.441	-3.92
694.471	-5.92
694.5	-14.92
694.529	5.08
694.558	3.08
694.587	13.08
694.616	1.08
694.645	14.08
694.674	17.08
694.703	15.08
694.732	8.08
694.761	13.08
694.79	16.08
694.819	-16.92
694.848	-1.92
694.877	9.08
694.906	11.08
694.935	10.08
694.963	18.08
694.992	3.08
695.021	5.08
695.05	16.08
695.079	20.08
695.108	-3.92
695.137	15.08
695.166	0.08
695.195	-1.92
695.224	10.08
695.253	13.08
695.282	12.08
695.311	10.08
695.34	9.08
695.369	14.08
695.398	4.08
695.427	27.08
695.456	-8.92
695.485	-6.92
695.513	-0.92
695.542	4.08
695.571	3.08
695.6	29.08
695.629	0.08
695.658	-2.92
695.687	-4.92
695.716	0.08
695.745	27.08
695.774	-11.92
695.802	-10.92
695.831	13.08
695.86	-2.92
695.889	4.08
695.918	9.08
695.947	8.08
695.976	2.08
696.005	0.08
696.033	1.08
696.062	7.08
696.091	-10.92
696.12	-2.92
696.149	9.08
696.178	-9.92
696.207	3.08
696.235	-13.92
696.264	1.08
696.293	7.08
696.322	12.08
696.351	12.08
696.38	-11.92
696.408	10.08
696.437	0.08
696.466	9.08
696.495	14.08
696.524	16.08
696.553	1.08
696.581	15.08
696.61	-2.92
696.639	-2.92
696.668	14.08
696.697	7.08
696.725	1.08
696.754	6.08
696.783	-3.92
696.812	-1.92
696.84	11.08
696.869	-1.92
696.898	8.08
696.927	14.08
696.956	13.08
696.984	-1.92
697.013	7.08
697.042	8.08
697.071	15.08
697.099	18.08
697.128	7.08
697.157	-0.92
697.186	2.08
697.214	-0.92
697.243	-2.92
697.272	-8.92
697.301	20.08
697.329	11.08
697.358	12.08
697.387	17.08
697.415	9.08
697.444	-2.92
697.473	9.08
697.502	0.08
697.53	0.08
697.559	4.08
697.588	-0.92
697.616	6.08
697.645	-3.92
697.674	5.08
697.703	-3.92
697.731	10.08
697.76	17.08
697.789	12.08
697.817	-2.92
697.846	15.08
697.875	13.08
697.903	22.08
697.932	26.08
697.961	-3.92
697.989	27.08
698.018	11.08
698.047	10.08
698.075	-2.92
698.104	-2.92
698.133	-22.92
698.161	-7.92
698.19	-1.92
698.218	9.08
698.247	-2.92
698.276	11.08
698.304	13.08
698.333	11.08
698.362	13.08
698.39	4.08
698.419	16.08
698.447	-3.92
698.476	7.08
698.505	20.08
698.533	8.08
698.562	14.08
698.591	-11.92
698.619	-3.92
698.648	6.08
698.676	16.08
698.705	8.08
698.733	14.08
698.762	6.08
698.791	7.08
698.819	7.08
698.848	3.08
698.876	20.08
698.905	1.08
698.933	0.08
698.962	-5.92
698.991	12.08
699.019	21.08
699.048	3.08
699.076	8.08
699.105	-5.92
699.133	-13.92
699.162	2.08
699.19	9.08
699.219	4.08
699.248	9.08
699.276	-0.92
699.305	-8.92
699.333	1.08
699.362	-2.92
699.39	13.08
699.419	-3.92
699.447	-1.92
699.476	17.08
699.504	9.08
699.533	-12.92
699.561	-11.92
699.59	9.08
699.618	1.08
699.647	-1.92
699.675	3.08
699.704	19.08
699.732	-11.92
699.761	5.08
699.789	-1.92
699.818	19.08
699.846	2.08
699.874	9.08
699.903	8.08
699.931	0.08
699.96	-2.92
699.988	-0.92
700.017	5.08
700.045	-8.92
700.074	2.08
700.102	-2.92
700.13	4.08
700.159	-1.92
700.187	18.08
700.216	-3.92
700.244	-2.92
700.273	4.08
700.301	-3.92
700.329	0.08
700.358	19.08
700.386	-5.92
700.415	-1.92
700.443	5.08
700.472	-1.92
700.5	11.08
700.528	16.08
700.557	-0.92
700.585	-13.92
700.614	-11.92
700.642	8.08
700.67	17.08
700.699	4.08
700.727	2.08
700.755	9.08
700.784	9.08
700.812	-5.92
700.841	4.08
700.869	-3.92
700.897	-16.92
700.926	12.08
700.954	1.08
700.982	8.08
701.011	5.08
701.039	8.08
701.067	-1.92
701.096	1.08
701.124	-1.92
701.152	-10.92
701.181	-3.92
701.209	-12.92
701.237	-8.92
701.266	-11.92
701.294	-9.92
701.322	-4.92
701.351	12.08
701.379	20.08
701.407	2.08
701.435	10.08
701.464	28.08
701.492	29.08
701.52	2.08
701.549	2.08
701.577	0.08
701.605	1.08
701.634	-1.92
701.662	2.08
701.69	-18.92
701.718	-11.92
701.747	10.08
701.775	11.08
701.803	1.08
701.831	14.08
701.86	3.08
701.888	14.08
701.916	8.08
701.944	6.08
701.973	-3.92
702.001	-0.92
702.029	4.08
702.057	-9.92
702.086	-6.92
702.114	-2.92
702.142	8.08
702.17	-9.92
702.199	5.08
702.227	-7.92
702.255	-11.92
702.283	-7.92
702.311	14.08
702.34	-12.92
702.368	-9.92
702.396	-3.92
702.424	-16.92
702.452	-3.92
702.481	-2.92
702.509	2.08
702.537	-1.92
702.565	3.08
702.593	-6.92
702.621	-13.92
702.65	-0.92
702.678	9.08
702.706	-5.92
702.734	-3.92
702.762	-2.92
702.79	0.08
702.819	0.08
702.847	-3.92
702.875	6.08
702.903	7.08
702.931	-10.92
702.959	-10.92
702.988	15.08
703.016	-8.92
703.044	0.08
703.072	-11.92
703.1	-20.92
703.128	6.08
703.156	16.08
703.184	-3.92
703.212	21.08
703.241	-6.92
703.269	22.08
703.297	8.08
703.325	15.08
703.353	-9.92
703.381	-2.92
703.409	-7.92
703.437	-8.92
703.465	-3.92
703.493	-3.92
703.522	-8.92
703.55	9.08
703.578	9.08
703.606	0.08
703.634	-1.92
703.662	9.08
703.69	9.08
703.718	7.08
703.746	15.08
703.774	14.08
703.802	9.08
703.83	8.08
703.858	7.08
703.886	2.08
703.914	-3.92
703.942	0.08
703.97	-16.92
703.998	-6.92
704.027	21.08
704.055	10.08
704.083	1.08
704.111	-11.92
704.139	15.08
704.167	-13.92
704.195	-7.92
704.223	-3.92
704.251	10.08
704.279	1.08
704.307	8.08
704.335	-30.92
704.363	7.08
704.391	1.08
704.419	-1.92
704.447	-15.92
704.475	3.08
704.503	-9.92
704.531	3.08
704.558	4.08
704.586	-5.92
704.614	-8.92
704.642	1.08
704.67	0.08
704.698	9.08
704.726	18.08
704.754	2.08
704.782	-7.92
704.81	-2.92
704.838	27.08
704.866	10.08
704.894	-16.92
704.922	-6.92
704.95	-2.92
704.978	-1.92
705.006	1.08
705.034	-0.92
705.061	-10.92
705.089	1.08
705.117	3.08
705.145	-16.92
705.173	-6.92
705.201	9.08
705.229	24.08
705.257	1.08
705.285	1.08
705.313	9.08
705.34	0.08
705.368	-1.92
705.396	9.08
705.424	23.08
705.452	-10.92
705.48	1.08
705.508	-1.92
705.536	0.08
705.563	6.08
705.591	9.08
705.619	6.08
705.647	-6.92
705.675	-4.92
705.703	-2.92
705.731	-15.92
705.758	10.08
705.786	10.08
705.814	17.08
705.842	3.08
705.87	18.08
705.898	17.08
705.925	-8.92
705.953	3.08
705.981	-3.92
706.009	-7.92
706.037	16.08
706.065	-1.92
706.092	-8.92
706.12	10.08
706.148	-3.92
706.176	-2.92
706.204	0.08
706.231	0.08
706.259	-5.92
706.287	5.08
706.315	-3.92
706.342	-4.92
706.37	3.08
706.398	4.08
706.426	-7.92
706.454	0.08
706.481	-5.92
706.509	5.08
706.537	7.08
706.565	-5.92
706.592	3.08
706.62	-9.92
706.648	-10.92
706.676	-12.92
706.703	-1.92
706.731	8.08
706.759	9.08
706.787	11.08
706.814	-3.92
706.842	5.08
706.87	6.08
706.897	10.08
706.925	15.08
706.953	14.08
706.981	19.08
707.008	4.08
707.036	-6.92
707.064	-9.92
707.091	-25.92
707.119	-5.92
707.147	-1.92
707.174	-13.92
707.202	-0.92
707.23	-13.92
707.258	0.08
707.285	-11.92
707.313	-21.92
707.341	-1.92
707.368	-5.92
707.396	8.08
707.424	19.08
707.451	9.08
707.479	5.08
707.507	-1.92
707.534	-5.92
707.562	8.08
707.59	-1.92
707.617	-18.92
707.645	-5.92
707.672	0.08
707.7	-3.92
707.728	6.08
707.755	10.08
707.783	-2.92
707.811	2.08
707.838	-15.92
707.866	-3.92
707.893	-2.92
707.921	-13.92
707.949	1.08
707.976	2.08
708.004	7.08
708.031	10.08
708.059	-21.92
708.087	7.08
708.114	-3.92
708.142	1.08
708.169	-1.92
708.197	-3.92
708.225	-1.92
708.252	-1.92
708.28	35.08
708.307	10.08
708.335	-2.92
708.362	-8.92
708.39	-0.92
708.418	0.08
708.445	3.08
708.473	-3.92
708.5	-11.92
708.528	5.08
708.555	-11.92
708.583	-7.92
708.61	-6.92
708.638	1.08
708.665	-9.92
708.693	-1.92
708.72	-6.92
708.748	-18.92
708.776	-2.92
708.803	-2.92
708.831	-1.92
708.858	13.08
708.886	-0.92
708.913	-1.92
708.941	-2.92
708.968	20.08
708.996	8.08
709.023	24.08
709.051	-3.92
709.078	-7.92
709.105	6.08
709.133	-1.92
709.16	-4.92
709.188	10.08
709.215	-10.92
709.243	3.08
709.27	-0.92
709.298	-4.92
709.325	-11.92
709.353	-11.92
709.38	-5.92
709.408	-5.92
709.435	8.08
709.462	3.08
709.49	-4.92
709.517	1.08
709.545	-5.92
709.572	1.08
709.6	5.08
709.627	11.08
709.655	-2.92
709.682	9.08
709.709	-5.92
709.737	-3.92
709.764	-7.92
709.792	26.08
709.819	-4.92
709.846	7.08
709.874	10.08
709.901	20.08
709.929	18.08
709.956	14.08
709.983	1.08
710.011	-10.92
710.038	-5.92
710.066	-3.92
710.093	-2.92
710.12	-5.92
710.148	-1.92
710.175	-8.92
710.202	-1.92
710.23	13.08
710.257	3.08
710.284	7.08
710.312	5.08
710.339	10.08
710.366	12.08
710.394	-6.92
710.421	-3.92
710.448	8.08
710.476	-13.92
710.503	-2.92
710.53	4.08
710.558	25.08
710.585	14.08
710.612	14.08
710.64	5.08
710.667	-5.92
710.694	-10.92
710.722	-17.92
710.749	-10.92
710.776	-7.92
710.804	24.08
710.831	20.08
710.858	-1.92
710.885	-10.92
710.913	1.08
710.94	33.08
710.967	20.08
710.995	-10.92
711.022	-1.92
711.049	-2.92
711.076	-6.92
711.104	5.08
711.131	-21.92
711.158	17.08
711.185	-1.92
711.213	-22.92
711.24	-3.92
711.267	1.08
711.294	3.08
711.322	9.08
711.349	-9.92
711.376	-9.92
711.403	10.08
711.431	1.08
711.458	2.08
711.485	4.08
711.512	6.08
711.54	-11.92
711.567	-0.92
711.594	4.08
711.621	-10.92
711.648	-6.92
711.676	5.08
711.703	-3.92
711.73	-19.92
711.757	4.08
711.784	-3.92
711.812	-6.92
711.839	-12.92
711.866	-5.92
711.893	-18.92
711.92	14.08
711.947	1.08
711.975	2.08
712.002	-0.92
712.029	9.08
712.056	7.08
712.083	13.08
712.11	-15.92
712.138	9.08
712.165	14.08
712.192	-5.92
712.219	-6.92
712.246	0.08
712.273	-8.92
712.3	8.08
712.328	16.08
712.355	6.08
712.382	-7.92
712.409	12.08
712.436	-9.92
712.463	18.08
712.49	14.08
712.517	5.08
712.544	-0.92
712.572	18.08
712.599	8.08
712.626	19.08
712.653	7.08
712.68	-2.92
712.707	10.08
712.734	-5.92
712.761	-1.92
712.788	9.08
712.815	1.08
712.842	13.08
712.87	-6.92
712.897	-14.92
712.924	5.08
712.951	3.08
712.978	8.08
713.005	6.08
713.032	9.08
713.059	-6.92
713.086	-1.92
713.113	-10.92
713.14	-16.92
713.167	4.08
713.194	0.08
713.221	-0.92
713.248	1.08
713.275	-2.92
713.302	-17.92
713.329	-0.92
713.356	10.08
713.383	12.08
713.41	-7.92
713.437	-9.92
713.464	1.08
713.491	22.08
713.518	-0.92
713.545	-0.92
713.572	-10.92
713.599	6.08
713.626	-2.92
713.653	-1.92
713.68	-6.92
713.707	-5.92
713.734	11.08
713.761	-5.92
713.788	-1.92
713.815	10.08
713.842	4.08
713.869	13.08
713.896	18.08
713.923	-5.92
713.95	-3.92
713.977	-14.92
714.004	-0.92
714.031	-15.92
714.058	-16.92
714.085	-19.92
714.112	9.08
714.139	2.08
714.165	-5.92
714.192	-6.92
714.219	1.08
714.246	-3.92
714.273	3.08
714.3	-12.92
714.327	8.08
714.354	6.08
714.381	-22.92
714.408	-12.92
714.435	-6.92
714.461	5.08
714.488	1.08
714.515	-6.92
714.542	-15.92
714.569	-1.92
714.596	-18.92
714.623	13.08
714.65	7.08
714.677	9.08
714.703	6.08
714.73	-2.92
714.757	16.08
714.784	3.08
714.811	-24.92
714.838	-8.92
714.865	-13.92
714.891	21.08
714.918	3.08
714.945	-5.92
714.972	7.08
714.999	14.08
715.026	-17.92
715.052	7.08
715.079	8.08
715.106	3.08
715.133	26.08
715.16	1.08
715.187	6.08
715.213	10.08
715.24	1.08
715.267	1.08
715.294	-17.92
715.321	-10.92
715.347	9.08
715.374	8.08
715.401	-0.92
715.428	1.08
715.455	8.08
715.481	-12.92
715.508	10.08
715.535	-0.92
715.562	17.08
715.588	-0.92
715.615	-18.92
715.642	-9.92
715.669	8.08
715.695	-2.92
715.722	1.08
715.749	6.08
715.776	1.08
715.802	-0.92
715.829	1.08
715.856	-1.92
715.883	-0.92
715.909	-14.92
715.936	-7.92
715.963	7.08
715.99	2.08
716.016	12.08
716.043	7.08
716.07	4.08
716.096	-11.92
716.123	2.08
716.15	-5.92
716.177	8.08
716.203	7.08
716.23	3.08
716.257	-4.92
716.283	10.08
716.31	0.08
716.337	-9.92
716.363	-18.92
716.39	18.08
716.417	-0.92
716.443	7.08
716.47	10.08
716.497	4.08
716.523	17.08
716.55	-1.92
716.577	-2.92
716.603	-2.92
716.63	-3.92
716.657	4.08
716.683	-5.92
716.71	8.08
716.737	-1.92
716.763	-0.92
716.79	11.08
716.817	23.08
716.843	23.08
716.87	2.08
716.897	5.08
716.923	20.08
716.95	1.08
716.976	-5.92
717.003	4.08
717.03	17.08
717.056	-0.92
717.083	4.08
717.109	2.08
717.136	5.08
717.163	-1.92
717.189	-3.92
717.216	-3.92
717.242	-2.92
717.269	6.08
717.296	8.08
717.322	1.08
717.349	5.08
717.375	2.08
717.402	-7.92
717.428	6.08
717.455	-1.92
717.481	2.08
717.508	2.08
717.535	10.08
717.561	6.08
717.588	0.08
717.614	0.08
717.641	3.08
717.667	-4.92
717.694	4.08
717.72	3.08
717.747	18.08
717.773	-3.92
717.8	20.08
717.826	4.08
717.853	12.08
717.88	11.08
717.906	-2.92
717.933	4.08
717.959	-3.92
717.986	9.08
718.012	1.08
718.039	0.08
718.065	5.08
718.092	4.08
718.118	3.08
718.144	-9.92
718.171	11.08
718.197	15.08
718.224	11.08
718.25	-0.92
718.277	4.08
718.303	8.08
718.33	8.08
718.356	-13.92
718.383	3.08
718.409	7.08
718.436	-18.92
718.462	-12.92
718.489	3.08
718.515	9.08
718.541	-0.92
718.568	11.08
718.594	2.08
718.621	13.08
718.647	3.08
718.674	-1.92
718.7	10.08
718.726	-2.92
718.753	10.08
718.779	-3.92
718.806	-23.92
718.832	6.08
718.858	-2.92
718.885	1.08
718.911	-1.92
718.938	4.08
718.964	-5.92
718.99	11.08
719.017	9.08
719.043	5.08
719.07	18.08
719.096	-1.92
719.122	-1.92
719.149	-0.92
719.175	-14.92
719.201	6.08
719.228	-0.92
719.254	-3.92
719.281	-2.92
719.307	-4.92
719.333	-10.92
719.36	4.08
719.386	10.08
719.412	21.08
719.439	1.08
719.465	-8.92
719.491	-15.92
719.518	7.08
719.544	6.08
719.57	8.08
719.597	-0.92
719.623	4.08
719.649	4.08
719.675	-7.92
719.702	8.08
719.728	16.08
719.754	-17.92
719.781	-3.92
719.807	-10.92
719.833	-10.92
719.86	-2.92
719.886	-1.92
719.912	-1.92
719.938	-17.92
719.965	3.08
719.991	26.08
720.017	3.08
720.044	-2.92
720.07	0.08
720.096	2.08
720.122	0.08
720.149	9.08
720.175	32.08
720.201	9.08
720.227	-19.92
720.254	-6.92
720.28	8.08
720.306	2.08
720.332	3.08
720.359	9.08
720.385	-4.92
720.411	-5.92
720.437	10.08
720.463	-2.92
720.49	12.08
720.516	-1.92
720.542	-2.92
720.568	7.08
720.595	10.08
720.621	6.08
720.647	8.08
720.673	-2.92
720.699	-6.92
720.725	3.08
720.752	-7.92
720.778	-0.92
720.804	-0.92
720.83	4.08
720.856	-3.92
720.883	-2.92
720.909	-6.92
720.935	11.08
720.961	10.08
720.987	3.08
721.013	12.08
721.04	-1.92
721.066	4.08
721.092	15.08
721.118	25.08
721.144	-0.92
721.17	-6.92
721.196	13.08
721.223	-7.92
721.249	-6.92
721.275	10.08
721.301	3.08
721.327	5.08
721.353	21.08
721.379	14.08
721.405	-0.92
721.432	8.08
721.458	-5.92
721.484	24.08
721.51	-15.92
721.536	5.08
721.562	11.08
721.588	-3.92
721.614	1.08
721.64	-1.92
721.666	-2.92
721.693	1.08
721.719	6.08
721.745	-13.92
721.771	-2.92
721.797	-0.92
721.823	-8.92
721.849	15.08
721.875	6.08
721.901	-0.92
721.927	6.08
721.953	10.08
721.979	18.08
722.005	16.08
722.031	1.08
722.057	-2.92
722.083	7.08
722.109	9.08
722.135	15.08
722.161	23.08
722.187	-9.92
722.214	-18.92
722.24	14.08
722.266	-4.92
722.292	-2.92
722.318	13.08
722.344	17.08
722.37	4.08
722.396	3.08
722.422	-2.92
722.448	3.08
722.474	-3.92
722.5	0.08
722.526	1.08
722.552	-1.92
722.578	-5.92
722.603	10.08
722.629	0.08
722.655	3.08
722.681	-3.92
722.707	-1.92
722.733	0.08
722.759	-2.92
722.785	11.08
722.811	-15.92
722.837	5.08
722.863	-2.92
722.889	-2.92
722.915	7.08
722.941	10.08
722.967	-3.92
722.993	5.08
723.019	-7.92
723.045	3.08
723.071	0.08
723.097	-5.92
723.122	0.08
723.148	0.08
723.174	-0.92
723.2	15.08
723.226	4.08
723.252	1.08
723.278	-2.92
723.304	-14.92
723.33	14.08
723.356	-2.92
723.381	-14.92
723.407	-12.92
723.433	8.08
723.459	-1.92
723.485	-8.92
723.511	4.08
723.537	-19.92
723.563	-3.92
723.588	0.08
723.614	-1.92
723.64	-9.92
723.666	2.08
723.692	3.08
723.718	-6.92
723.744	3.08
723.769	16.08
723.795	-2.92
723.821	2.08
723.847	-13.92
723.873	0.08
723.899	2.08
723.924	0.08
723.95	3.08
723.976	4.08
724.002	-0.92
724.028	1.08
724.053	-7.92
724.079	-3.92
724.105	-8.92
724.131	-3.92
724.157	-6.92
724.182	0.08
724.208	10.08
724.234	1.08
724.26	-0.92
724.286	9.08
724.311	-0.92
724.337	-6.92
724.363	-10.92
724.389	-4.92
724.415	10.08
724.44	14.08
724.466	1.08
724.492	-0.92
724.518	10.08
724.543	2.08
724.569	8.08
724.595	5.08
724.621	-15.92
724.646	5.08
724.672	3.08
724.698	3.08
724.723	2.08
724.749	5.08
724.775	20.08
724.801	-10.92
724.826	-15.92
724.852	-3.92
724.878	5.08
724.904	-12.92
724.929	-8.92
724.955	1.08
724.981	10.08
725.006	0.08
725.032	5.08
725.058	6.08
725.083	-8.92
725.109	-3.92
725.135	-11.92
725.161	6.08
725.186	0.08
725.212	10.08
725.238	9.08
725.263	12.08
725.289	-0.92
725.315	-14.92
725.34	1.08
725.366	14.08
725.392	-3.92
725.417	-2.92
725.443	7.08
725.468	-1.92
725.494	-1.92
725.52	0.08
725.545	-2.92
725.571	4.08
725.597	-1.92
725.622	-3.92
725.648	11.08
725.674	25.08
725.699	8.08
725.725	1.08
725.75	27.08
725.776	3.08
725.802	0.08
725.827	14.08
725.853	1.08
725.878	4.08
725.904	3.08
725.93	4.08
725.955	-13.92
725.981	-8.92
726.006	-17.92
726.032	-0.92
726.057	4.08
726.083	2.08
726.109	-5.92
726.134	5.08
726.16	-1.92
726.185	-5.92
726.211	3.08
726.236	0.08
726.262	2.08
726.288	3.08
726.313	4.08
726.339	3.08
726.364	6.08
726.39	16.08
726.415	-2.92
726.441	12.08
726.466	5.08
726.492	-7.92
726.517	6.08
726.543	-3.92
726.568	-5.92
726.594	1.08
726.619	-0.92
726.645	-7.92
726.67	16.08
726.696	-3.92
726.721	-7.92
726.747	-8.92
726.772	0.08
726.798	-2.92
726.823	4.08
726.849	-3.92
726.874	12.08
726.9	30.08
726.925	8.08
726.951	6.08
726.976	17.08
727.002	8.08
727.027	14.08
727.053	2.08
727.078	0.08
727.104	5.08
727.129	-21.92
727.155	3.08
727.18	11.08
727.205	3.08
727.231	0.08
727.256	5.08
727.282	-5.92
727.307	25.08
727.333	12.08
727.358	-7.92
727.383	-8.92
727.409	-5.92
727.434	16.08
727.46	-3.92
727.485	-9.92
727.511	-0.92
727.536	2.08
727.561	9.08
727.587	4.08
727.612	-8.92
727.637	-7.92
727.663	2.08
727.688	20.08
727.714	-7.92
727.739	-8.92
727.764	-1.92
727.79	0.08
727.815	-2.92
727.841	0.08
727.866	7.08
727.891	9.08
727.917	-13.92
727.942	-11.92
727.967	-2.92
727.993	-16.92
728.018	8.08
728.043	7.08
728.069	19.08
728.094	5.08
728.119	-3.92
728.145	7.08
728.17	9.08
728.195	-5.92
728.221	18.08
728.246	-12.92
728.271	-16.92
728.297	-3.92
728.322	-8.92
728.347	-9.92
728.373	2.08
728.398	6.08
728.423	-1.92
728.448	0.08
728.474	5.08
728.499	6.08
728.524	-14.92
728.55	-16.92
728.575	-1.92
728.6	6.08
728.625	5.08
728.651	17.08
728.676	-4.92
728.701	-5.92
728.727	2.08
728.752	-0.92
728.777	9.08
728.802	-0.92
728.828	-2.92
728.853	12.08
728.878	-6.92
728.903	-6.92
728.929	-12.92
728.954	6.08
728.979	18.08
729.004	18.08
729.03	5.08
729.055	13.08
729.08	2.08
729.105	-6.92
729.13	17.08
729.156	-2.92
729.181	-10.92
729.206	-11.92
729.231	-12.92
729.256	-0.92
729.282	4.08
729.307	-14.92
729.332	-3.92
729.357	0.08
729.382	-2.92
729.408	4.08
729.433	6.08
729.458	13.08
729.483	6.08
729.508	6.08
729.533	-1.92
729.559	-14.92
729.584	-6.92
729.609	17.08
729.634	20.08
729.659	6.08
729.684	-8.92
729.71	19.08
729.735	8.08
729.76	4.08
729.785	8.08
729.81	25.08
729.835	1.08
729.86	-18.92
729.886	18.08
729.911	5.08
729.936	8.08
729.961	26.08
729.986	16.08
730.011	57.08
730.036	202.08
730.061	979.08
730.086	2694.08
730.112	3350.08
730.137	2833.08
730.162	2109.08
730.187	1613.08
730.212	1236.08
730.237	782.08
730.262	463.08
730.287	257.08
730.312	159.08
730.337	78.08
730.362	57.08
730.387	30.08
730.413	8.08
730.438	25.08
730.463	19.08
730.488	11.08
730.513	-0.92
730.538	7.08
730.563	15.08
730.588	-3.92
730.613	17.08
730.638	-1.92
730.663	-0.92
730.688	22.08
730.713	7.08
730.738	12.08
730.763	2.08
730.788	-10.92
730.813	-0.92
730.838	-6.92
730.863	-1.92
730.888	3.08
730.913	-2.92
730.938	-9.92
730.963	23.08
730.988	110.08
731.013	405.08
731.038	612.08
731.063	613.08
731.088	479.08
731.113	345.08
731.138	255.08
731.163	184.08
731.188	94.08
731.213	54.08
731.238	48.08
731.263	20.08
731.288	1.08
731.313	9.08
731.338	12.08
731.363	5.08
731.388	-6.92
731.413	1.08
731.438	13.08
731.463	-10.92
731.487	5.08
731.512	-4.92
731.537	-10.92
731.562	-0.92
731.587	3.08
731.612	8.08
731.637	0.08
731.662	-0.92
731.687	7.08
731.712	-9.92
731.737	1.08
731.762	4.08
731.786	9.08
731.811	17.08
731.836	10.08
731.861	-2.92
731.886	-7.92
731.911	13.08
731.936	2.08
731.961	20.08
731.986	-0.92
732.01	-6.92
732.035	11.08
732.06	19.08
732.085	2.08
732.11	6.08
732.135	-11.92
732.16	-11.92
732.184	-3.92
732.209	-13.92
732.234	2.08
732.259	-3.92
732.284	16.08
732.309	-4.92
732.334	-7.92
732.358	-6.92
732.383	-6.92
732.408	0.08
732.433	10.08
732.458	7.08
732.482	6.08
732.507	1.08
732.532	14.08
732.557	12.08
732.582	4.08
732.607	27.08
732.631	44.08
732.656	83.08
732.681	148.08
732.706	328.08
732.73	433.08
732.755	391.08
732.78	301.08
732.805	231.08
732.83	168.08
732.854	127.08
732.879	72.08
732.904	21.08
732.929	24.08
732.953	26.08
732.978	4.08
733.003	-10.92
733.028	-9.92
733.052	17.08
733.077	6.08
733.102	12.08
733.127	14.08
733.151	-6.92
733.176	13.08
733.201	-0.92
733.226	1.08
733.25	9.08
733.275	0.08
733.3	18.08
733.324	14.08
733.349	1.08
733.374	10.08
733.399	-3.92
733.423	3.08
733.448	5.08
733.473	10.08
733.497	7.08
733.522	-15.92
733.547	3.08
733.571	33.08
733.596	9.08
733.621	-2.92
733.646	1.08
733.67	14.08
733.695	-0.92
733.72	-4.92
733.744	17.08
733.769	5.08
733.794	11.08
733.818	8.08
733.843	-2.92
733.867	-12.92
733.892	4.08
733.917	-7.92
733.941	-2.92
733.966	-9.92
733.991	-2.92
734.015	13.08
734.04	-0.92
734.065	1.08
734.089	13.08
734.114	0.08
734.138	-8.92
734.163	-7.92
734.188	7.08
734.212	15.08
734.237	-6.92
734.261	9.08
734.286	-1.92
734.311	9.08
734.335	4.08
734.36	6.08
734.384	-6.92
734.409	-1.92
734.434	-6.92
734.458	9.08
734.483	-14.92
734.507	-14.92
734.532	2.08
734.556	-5.92
734.581	-6.92
734.606	-2.92
734.63	6.08
734.655	-7.92
734.679	-0.92
734.704	-4.92
734.728	-7.92
734.753	-16.92
734.777	-10.92
734.802	-3.92
734.826	10.08
734.851	7.08
734.876	8.08
734.9	8.08
734.925	8.08
734.949	7.08
734.974	0.08
734.998	7.08
735.023	-9.92
735.047	-12.92
735.072	14.08
735.096	10.08
735.121	15.08
735.145	6.08
735.17	1.08
735.194	-3.92
735.219	0.08
735.243	14.08
735.268	15.08
735.292	9.08
735.317	-0.92
735.341	-2.92
735.365	-21.92
735.39	-6.92
735.414	10.08
735.439	-2.92
735.463	0.08
735.488	16.08
735.512	-1.92
735.537	6.08
735.561	-7.92
735.586	-10.92
735.61	1.08
735.634	-5.92
735.659	3.08
735.683	26.08
735.708	8.08
735.732	-13.92
735.757	-8.92
735.781	9.08
735.805	4.08
735.83	-5.92
735.854	7.08
735.879	5.08
735.903	2.08
735.927	-14.92
735.952	-8.92
735.976	-8.92
736.001	-2.92
736.025	-9.92
736.049	6.08
736.074	8.08
736.098	8.08
736.123	14.08
736.147	9.08
736.171	10.08
736.196	17.08
736.22	-8.92
736.244	6.08
736.269	0.08
736.293	5.08
736.317	5.08
736.342	6.08
736.366	13.08
736.39	19.08
736.415	7.08
736.439	-1.92
736.463	7.08
736.488	-2.92
736.512	2.08
736.536	9.08
736.561	17.08
736.585	15.08
736.609	31.08
736.634	-7.92
736.658	-14.92
736.682	-20.92
736.707	-16.92
736.731	-22.92
736.755	-8.92
736.78	11.08
736.804	16.08
736.828	9.08
736.852	5.08
736.877	7.08
736.901	5.08
736.925	-7.92
736.949	5.08
736.974	4.08
736.998	-3.92
737.022	5.08
737.047	-2.92
737.071	-6.92
737.095	10.08
737.119	10.08
737.144	17.08
737.168	-2.92
737.192	-6.92
737.216	5.08
737.241	0.08
737.265	14.08
737.289	-7.92
737.313	6.08
737.337	8.08
737.362	-5.92
737.386	-10.92
737.41	-2.92
737.434	2.08
737.459	1.08
737.483	-0.92
737.507	10.08
737.531	6.08
737.555	-1.92
737.58	4.08
737.604	1.08
737.628	-21.92
737.652	-11.92
737.676	-7.92
737.701	-13.92
737.725	-9.92
737.749	-0.92
737.773	1.08
737.797	-0.92
737.821	4.08
737.846	7.08
737.87	24.08
737.894	-9.92
737.918	-1.92
737.942	-2.92
737.966	21.08
737.99	16.08
738.015	13.08
738.039	-2.92
738.063	-3.92
738.087	16.08
738.111	16.08
738.135	28.08
738.159	-1.92
738.184	12.08
738.208	10.08
738.232	5.08
738.256	22.08
738.28	14.08
738.304	9.08
738.328	8.08
738.352	9.08
738.376	13.08
738.4	8.08
738.425	19.08
738.449	3.08
738.473	22.08
738.497	-6.92
738.521	-2.92
738.545	12.08
738.569	18.08
738.593	14.08
738.617	1.08
738.641	-2.92
738.665	-1.92
738.689	3.08
738.713	-7.92
738.737	8.08
738.762	14.08
738.786	7.08
738.81	-12.92
738.834	6.08
738.858	-14.92
738.882	9.08
738.906	7.08
738.93	6.08
738.954	10.08
738.978	8.08
739.002	-6.92
739.026	10.08
739.05	11.08
739.074	5.08
739.098	27.08
739.122	25.08
739.146	0.08
739.17	18.08
739.194	6.08
739.218	-1.92
739.242	-6.92
739.266	-14.92
739.29	0.08
739.314	2.08
739.338	-3.92
739.362	28.08
739.386	2.08
739.41	1.08
739.434	-10.92
739.458	24.08
739.482	8.08
739.506	16.08
739.53	-6.92
739.554	8.08
739.577	-2.92
739.601	4.08
739.625	-23.92
739.649	-8.92
739.673	-10.92
739.697	-6.92
739.721	-18.92
739.745	12.08
739.769	-1.92
739.793	2.08
739.817	-0.92
739.841	-7.92
739.865	-2.92
739.889	-7.92
739.912	7.08
739.936	3.08
739.96	-1.92
739.984	7.08
740.008	-0.92
740.032	-10.92
740.056	0.08
740.08	5.08
740.104	-5.92
740.127	11.08
740.151	-5.92
740.175	2.08
740.199	11.08
740.223	44.08
740.247	21.08
740.271	15.08
740.295	-5.92
740.318	-18.92
740.342	-3.92
740.366	16.08
740.39	8.08
740.414	1.08
740.438	-4.92
740.461	6.08
740.485	1.08
740.509	-14.92
740.533	-3.92
740.557	-13.92
740.581	-8.92
740.604	-6.92
740.628	5.08
740.652	-0.92
740.676	-1.92
740.7	0.08
740.723	22.08
740.747	-4.92
740.771	-0.92
740.795	-0.92
740.819	9.08
740.842	-5.92
740.866	20.08
740.89	-7.92
740.914	-9.92
740.938	-2.92
740.961	1.08
740.985	8.08
741.009	1.08
741.033	12.08
741.056	1.08
741.08	-5.92
741.104	0.08
741.128	-11.92
741.151	19.08
741.175	-3.92
741.199	-1.92
741.223	4.08
741.246	-11.92
741.27	2.08
741.294	6.08
741.318	7.08
741.341	-5.92
741.365	8.08
741.389	-1.92
741.413	21.08
741.436	5.08
741.46	5.08
741.484	21.08
741.507	-6.92
741.531	20.08
741.555	28.08
741.579	6.08
741.602	15.08
741.626	-8.92
741.65	9.08
741.673	6.08
741.697	10.08
741.721	-3.92
741.744	-11.92
741.768	-6.92
741.792	-5.92
741.815	-4.92
741.839	7.08
741.863	12.08
741.886	5.08
741.91	13.08
741.934	10.08
741.957	-13.92
741.981	14.08
742.005	-2.92
742.028	0.08
742.052	6.08
742.075	7.08
742.099	13.08
742.123	2.08
742.146	9.08
742.17	1.08
742.194	-14.92
742.217	7.08
742.241	-21.92
742.264	1.08
742.288	12.08
742.312	6.08
742.335	-2.92
742.359	0.08
742.382	11.08
742.406	16.08
742.43	-16.92
742.453	1.08
742.477	-2.92
742.5	-13.92
742.524	-14.92
742.548	-1.92
742.571	1.08
742.595	-3.92
742.618	-3.92
742.642	-2.92
742.665	16.08
742.689	1.08
742.712	9.08
742.736	7.08
742.76	14.08
742.783	-2.92
742.807	10.08
742.83	10.08
742.854	-24.92
742.877	1.08
742.901	4.08
742.924	-1.92
742.948	2.08
742.971	6.08
742.995	-1.92
743.018	-5.92
743.042	-11.92
743.065	4.08
743.089	-2.92
743.112	0.08
743.136	-1.92
743.159	3.08
743.183	-4.92
743.206	11.08
743.23	-6.92
743.253	2.08
743.277	6.08
743.3	8.08
743.324	0.08
743.347	-11.92
743.371	10.08
743.394	20.08
743.418	22.08
743.441	28.08
743.465	4.08
743.488	-0.92
743.512	-13.92
743.535	-6.92
743.558	-9.92
743.582	6.08
743.605	9.08
743.629	6.08
743.652	-3.92
743.676	-2.92
743.699	11.08
743.723	14.08
743.746	7.08
743.769	-2.92
743.793	4.08
743.816	2.08
743.84	10.08
743.863	2.08
743.886	8.08
743.91	12.08
743.933	11.08
743.957	17.08
743.98	-9.92
744.003	-7.92
744.027	-0.92
744.05	5.08
744.074	14.08
744.097	-3.92
744.12	2.08
744.144	-16.92
744.167	2.08
744.19	5.08
744.214	5.08
744.237	-12.92
744.26	17.08
744.284	-7.92
744.307	-0.92
744.331	2.08
744.354	2.08
744.377	-2.92
744.401	-3.92
744.424	8.08
744.447	-10.92
744.471	-20.92
