Data from HighRes_mercury_15_13_11_07_2024_HR4C61891__24__15-14-25-586.txt Node

Date: Thu Nov 07 15:14:25 EST 2024
User: crc00042
Spectrometer: HR4C6189
Trigger mode: 4
Integration Time (sec): 1.000000E-1
Scans to average: 1
Electric dark correction enabled: true
Nonlinearity correction enabled: false
Boxcar width: 0
XAxis mode: Wavelengths
Number of Pixels in Spectrum: 3648
>>>>>Begin Spectral Data<<<<<
639.567	-71.69
639.602	-71.69
639.636	-71.69
639.67	-50.69
639.704	-10.69
639.738	5.31
639.773	3.31
639.807	-20.69
639.841	-2.69
639.875	18.31
639.909	13.31
639.943	-5.69
639.978	-4.69
640.012	16.31
640.046	16.31
640.08	-6.69
640.114	-10.69
640.148	-21.69
640.182	-26.69
640.217	-13.69
640.251	22.31
640.285	13.31
640.319	-7.69
640.353	-15.69
640.387	-7.69
640.421	-2.69
640.455	4.31
640.49	6.31
640.524	-17.69
640.558	2.31
640.592	-7.69
640.626	10.31
640.66	8.31
640.694	-4.69
640.728	12.31
640.762	5.31
640.796	12.31
640.83	18.31
640.865	-5.69
640.899	2.31
640.933	2.31
640.967	-8.69
641.001	-4.69
641.035	18.31
641.069	2.31
641.103	-24.69
641.137	6.31
641.171	-14.69
641.205	6.31
641.239	-5.69
641.273	22.31
641.307	2.31
641.341	-8.69
641.375	0.31
641.409	-11.69
641.443	-2.69
641.477	-3.69
641.511	-11.69
641.545	-1.69
641.579	-10.69
641.614	4.31
641.648	5.31
641.682	-14.69
641.716	7.31
641.75	5.31
641.784	-1.69
641.818	6.31
641.852	-4.69
641.886	-4.69
641.919	9.31
641.953	2.31
641.987	-1.69
642.021	-12.69
642.055	1.31
642.089	-2.69
642.123	-4.69
642.157	-23.69
642.191	-8.69
642.225	4.31
642.259	-12.69
642.293	12.31
642.327	-4.69
642.361	-9.69
642.395	10.31
642.429	15.31
642.463	-0.69
642.497	7.31
642.531	8.31
642.565	-2.69
642.599	0.31
642.633	-13.69
642.666	14.31
642.7	5.31
642.734	2.31
642.768	-14.69
642.802	-1.69
642.836	0.31
642.87	-0.69
642.904	3.31
642.938	10.31
642.972	-6.69
643.005	11.31
643.039	16.31
643.073	-1.69
643.107	6.31
643.141	1.31
643.175	0.31
643.209	9.31
643.243	19.31
643.276	18.31
643.31	10.31
643.344	1.31
643.378	-3.69
643.412	7.31
643.446	-3.69
643.48	-1.69
643.513	7.31
643.547	1.31
643.581	-9.69
643.615	1.31
643.649	12.31
643.683	-13.69
643.716	1.31
643.75	6.31
643.784	-3.69
643.818	2.31
643.852	-4.69
643.886	0.31
643.919	-0.69
643.953	4.31
643.987	-7.69
644.021	13.31
644.055	5.31
644.088	-7.69
644.122	1.31
644.156	1.31
644.19	8.31
644.224	4.31
644.257	-4.69
644.291	-0.69
644.325	-12.69
644.359	-16.69
644.392	-7.69
644.426	8.31
644.46	-1.69
644.494	9.31
644.527	11.31
644.561	5.31
644.595	14.31
644.629	-6.69
644.662	-0.69
644.696	15.31
644.73	-0.69
644.764	8.31
644.797	-7.69
644.831	3.31
644.865	7.31
644.899	7.31
644.932	16.31
644.966	-13.69
645	-1.69
645.033	12.31
645.067	-8.69
645.101	1.31
645.135	-12.69
645.168	-20.69
645.202	-5.69
645.236	4.31
645.269	1.31
645.303	-11.69
645.337	-11.69
645.37	-9.69
645.404	-4.69
645.438	-12.69
645.471	-10.69
645.505	7.31
645.539	7.31
645.572	-11.69
645.606	-21.69
645.64	-4.69
645.673	4.31
645.707	26.31
645.741	6.31
645.774	-1.69
645.808	-7.69
645.842	-17.69
645.875	-4.69
645.909	-18.69
645.943	-8.69
645.976	-0.69
646.01	13.31
646.043	18.31
646.077	21.31
646.111	7.31
646.144	4.31
646.178	0.31
646.212	-26.69
646.245	-0.69
646.279	-8.69
646.312	7.31
646.346	-1.69
646.38	-12.69
646.413	-7.69
646.447	5.31
646.48	1.31
646.514	4.31
646.547	-6.69
646.581	-8.69
646.615	-10.69
646.648	-9.69
646.682	-8.69
646.715	-12.69
646.749	-6.69
646.782	-13.69
646.816	-11.69
646.85	12.31
646.883	-11.69
646.917	-4.69
646.95	-7.69
646.984	2.31
647.017	0.31
647.051	7.31
647.084	13.31
647.118	3.31
647.151	-10.69
647.185	25.31
647.218	0.31
647.252	-2.69
647.285	-17.69
647.319	-14.69
647.353	-0.69
647.386	14.31
647.42	8.31
647.453	1.31
647.487	9.31
647.52	10.31
647.553	2.31
647.587	14.31
647.62	-1.69
647.654	-4.69
647.687	-3.69
647.721	5.31
647.754	6.31
647.788	1.31
647.821	-8.69
647.855	3.31
647.888	6.31
647.922	19.31
647.955	-2.69
647.989	1.31
648.022	-5.69
648.055	10.31
648.089	9.31
648.122	23.31
648.156	2.31
648.189	-6.69
648.223	0.31
648.256	9.31
648.29	10.31
648.323	-4.69
648.356	14.31
648.39	2.31
648.423	-0.69
648.457	-3.69
648.49	-6.69
648.523	5.31
648.557	4.31
648.59	0.31
648.624	16.31
648.657	-6.69
648.69	23.31
648.724	14.31
648.757	6.31
648.791	1.31
648.824	7.31
648.857	19.31
648.891	1.31
648.924	-2.69
648.957	15.31
648.991	-20.69
649.024	12.31
649.057	-0.69
649.091	-13.69
649.124	8.31
649.158	19.31
649.191	26.31
649.224	12.31
649.258	10.31
649.291	0.31
649.324	7.31
649.358	-4.69
649.391	3.31
649.424	-5.69
649.458	3.31
649.491	-13.69
649.524	-9.69
649.557	-2.69
649.591	-30.69
649.624	11.31
649.657	-23.69
649.691	-4.69
649.724	-1.69
649.757	4.31
649.791	-0.69
649.824	21.31
649.857	0.31
649.89	-6.69
649.924	-16.69
649.957	-12.69
649.99	-16.69
650.023	-18.69
650.057	-7.69
650.09	0.31
650.123	-1.69
650.157	3.31
650.19	10.31
650.223	-18.69
650.256	-18.69
650.29	-22.69
650.323	-4.69
650.356	7.31
650.389	3.31
650.423	-19.69
650.456	-2.69
650.489	3.31
650.522	-2.69
650.555	6.31
650.589	26.31
650.622	6.31
650.655	-3.69
650.688	-2.69
650.721	-9.69
650.755	-3.69
650.788	2.31
650.821	-14.69
650.854	-0.69
650.887	-4.69
650.921	7.31
650.954	-12.69
650.987	4.31
651.02	-21.69
651.053	-24.69
651.087	-10.69
651.12	21.31
651.153	10.31
651.186	7.31
651.219	-14.69
651.252	6.31
651.286	20.31
651.319	-9.69
651.352	-1.69
651.385	-7.69
651.418	-6.69
651.451	1.31
651.484	2.31
651.518	-20.69
651.551	22.31
651.584	-10.69
651.617	7.31
651.65	-11.69
651.683	8.31
651.716	10.31
651.749	-7.69
651.783	-2.69
651.816	5.31
651.849	8.31
651.882	2.31
651.915	1.31
651.948	2.31
651.981	-13.69
652.014	-12.69
652.047	-15.69
652.08	-25.69
652.114	1.31
652.147	-4.69
652.18	-5.69
652.213	19.31
652.246	-0.69
652.279	-8.69
652.312	-0.69
652.345	-17.69
652.378	5.31
652.411	4.31
652.444	6.31
652.477	2.31
652.51	-8.69
652.543	-18.69
652.576	4.31
652.609	-5.69
652.642	5.31
652.675	9.31
652.709	-10.69
652.742	-8.69
652.775	-2.69
652.808	-1.69
652.841	-5.69
652.874	-6.69
652.907	-0.69
652.94	-15.69
652.973	-28.69
653.006	-3.69
653.039	-2.69
653.072	3.31
653.105	1.31
653.138	-10.69
653.171	-7.69
653.204	-9.69
653.237	-3.69
653.27	-10.69
653.303	10.31
653.336	0.31
653.368	-0.69
653.401	13.31
653.434	-1.69
653.467	5.31
653.5	-13.69
653.533	10.31
653.566	-13.69
653.599	2.31
653.632	6.31
653.665	13.31
653.698	1.31
653.731	-3.69
653.764	7.31
653.797	18.31
653.83	16.31
653.863	-1.69
653.896	-4.69
653.929	-17.69
653.961	2.31
653.994	5.31
654.027	-12.69
654.06	-4.69
654.093	6.31
654.126	7.31
654.159	-15.69
654.192	2.31
654.225	7.31
654.258	-6.69
654.29	-8.69
654.323	16.31
654.356	-12.69
654.389	-1.69
654.422	-12.69
654.455	-0.69
654.488	-2.69
654.521	-17.69
654.553	-16.69
654.586	-0.69
654.619	1.31
654.652	-17.69
654.685	11.31
654.718	14.31
654.751	14.31
654.783	-7.69
654.816	15.31
654.849	10.31
654.882	0.31
654.915	-28.69
654.948	-5.69
654.98	-2.69
655.013	-8.69
655.046	-8.69
655.079	4.31
655.112	6.31
655.144	-14.69
655.177	4.31
655.21	-2.69
655.243	13.31
655.276	4.31
655.308	-17.69
655.341	-29.69
655.374	0.31
655.407	-7.69
655.44	-8.69
655.472	-0.69
655.505	1.31
655.538	-14.69
655.571	15.31
655.603	4.31
655.636	12.31
655.669	5.31
655.702	-2.69
655.734	-8.69
655.767	-12.69
655.8	0.31
655.833	1.31
655.865	5.31
655.898	-12.69
655.931	-25.69
655.964	0.31
655.996	0.31
656.029	10.31
656.062	-1.69
656.095	-4.69
656.127	-23.69
656.16	-5.69
656.193	-14.69
656.225	7.31
656.258	2.31
656.291	-9.69
656.324	-2.69
656.356	3.31
656.389	3.31
656.422	16.31
656.454	-13.69
656.487	-8.69
656.52	-4.69
656.552	-13.69
656.585	3.31
656.618	4.31
656.65	13.31
656.683	-3.69
656.716	18.31
656.748	0.31
656.781	0.31
656.814	-4.69
656.846	11.31
656.879	-16.69
656.912	-17.69
656.944	-34.69
656.977	-32.69
657.01	6.31
657.042	6.31
657.075	3.31
657.108	-5.69
657.14	-4.69
657.173	-5.69
657.205	16.31
657.238	17.31
657.271	4.31
657.303	-12.69
657.336	0.31
657.369	2.31
657.401	12.31
657.434	-0.69
657.466	20.31
657.499	-13.69
657.532	-6.69
657.564	-7.69
657.597	-3.69
657.629	2.31
657.662	2.31
657.694	12.31
657.727	-18.69
657.76	4.31
657.792	-22.69
657.825	-12.69
657.857	8.31
657.89	-12.69
657.922	-0.69
657.955	-4.69
657.987	-6.69
658.02	14.31
658.053	6.31
658.085	7.31
658.118	-9.69
658.15	1.31
658.183	14.31
658.215	-13.69
658.248	-17.69
658.28	-16.69
658.313	-9.69
658.345	-6.69
658.378	-12.69
658.41	-7.69
658.443	16.31
658.475	2.31
658.508	-22.69
658.54	-16.69
658.573	-6.69
658.605	7.31
658.638	0.31
658.67	-8.69
658.703	1.31
658.735	-5.69
658.768	5.31
658.8	-7.69
658.833	12.31
658.865	-2.69
658.898	2.31
658.93	-12.69
658.963	-19.69
658.995	-9.69
659.028	7.31
659.06	5.31
659.092	2.31
659.125	-6.69
659.157	3.31
659.19	-4.69
659.222	-6.69
659.255	-2.69
659.287	-6.69
659.32	-10.69
659.352	-3.69
659.384	0.31
659.417	-0.69
659.449	6.31
659.482	0.31
659.514	-4.69
659.546	-17.69
659.579	-19.69
659.611	-18.69
659.644	-11.69
659.676	-1.69
659.708	-3.69
659.741	-0.69
659.773	1.31
659.806	13.31
659.838	-5.69
659.87	-5.69
659.903	-16.69
659.935	0.31
659.967	-0.69
660	13.31
660.032	-20.69
660.065	7.31
660.097	6.31
660.129	-9.69
660.162	-14.69
660.194	1.31
660.226	5.31
660.259	-1.69
660.291	-7.69
660.323	-11.69
660.356	-3.69
660.388	-6.69
660.42	-11.69
660.453	3.31
660.485	-1.69
660.517	20.31
660.55	25.31
660.582	0.31
660.614	9.31
660.647	8.31
660.679	-11.69
660.711	-0.69
660.743	-14.69
660.776	-13.69
660.808	-20.69
660.84	-16.69
660.873	3.31
660.905	-10.69
660.937	-2.69
660.969	1.31
661.002	-7.69
661.034	19.31
661.066	-3.69
661.099	-7.69
661.131	-1.69
661.163	-15.69
661.195	-2.69
661.228	2.31
661.26	1.31
661.292	1.31
661.324	1.31
661.357	5.31
661.389	-0.69
661.421	-0.69
661.453	-27.69
661.485	-3.69
661.518	5.31
661.55	-10.69
661.582	-29.69
661.614	-1.69
661.647	19.31
661.679	-7.69
661.711	-2.69
661.743	12.31
661.775	12.31
661.808	5.31
661.84	-18.69
661.872	-10.69
661.904	5.31
661.936	1.31
661.969	-2.69
662.001	1.31
662.033	8.31
662.065	-15.69
662.097	26.31
662.129	2.31
662.162	-15.69
662.194	-5.69
662.226	3.31
662.258	7.31
662.29	4.31
662.322	-15.69
662.355	-16.69
662.387	8.31
662.419	10.31
662.451	4.31
662.483	0.31
662.515	-0.69
662.547	-2.69
662.58	-11.69
662.612	-4.69
662.644	-10.69
662.676	12.31
662.708	14.31
662.74	-1.69
662.772	-1.69
662.804	-0.69
662.836	12.31
662.869	2.31
662.901	6.31
662.933	-9.69
662.965	10.31
662.997	7.31
663.029	-22.69
663.061	-8.69
663.093	0.31
663.125	4.31
663.157	9.31
663.189	14.31
663.221	25.31
663.254	3.31
663.286	-5.69
663.318	-6.69
663.35	-14.69
663.382	-11.69
663.414	-1.69
663.446	14.31
663.478	18.31
663.51	28.31
663.542	6.31
663.574	-19.69
663.606	-10.69
663.638	-9.69
663.67	3.31
663.702	1.31
663.734	-3.69
663.766	14.31
663.798	-11.69
663.83	3.31
663.862	3.31
663.894	12.31
663.926	-3.69
663.958	5.31
663.99	-5.69
664.022	2.31
664.054	17.31
664.086	-2.69
664.118	-3.69
664.15	-6.69
664.182	-5.69
664.214	-14.69
664.246	14.31
664.278	-7.69
664.31	2.31
664.342	17.31
664.374	-4.69
664.406	-1.69
664.438	0.31
664.47	20.31
664.502	4.31
664.534	1.31
664.566	-10.69
664.598	-6.69
664.63	-4.69
664.662	-1.69
664.693	-13.69
664.725	-10.69
664.757	8.31
664.789	-4.69
664.821	10.31
664.853	10.31
664.885	2.31
664.917	-5.69
664.949	9.31
664.981	15.31
665.013	-2.69
665.045	-20.69
665.076	-11.69
665.108	-11.69
665.14	-0.69
665.172	0.31
665.204	-0.69
665.236	-10.69
665.268	5.31
665.3	-10.69
665.331	-12.69
665.363	9.31
665.395	-9.69
665.427	-2.69
665.459	10.31
665.491	-1.69
665.523	6.31
665.555	-4.69
665.586	6.31
665.618	-3.69
665.65	-4.69
665.682	3.31
665.714	16.31
665.746	-1.69
665.777	-10.69
665.809	-2.69
665.841	6.31
665.873	-7.69
665.905	-11.69
665.937	1.31
665.968	6.31
666	-6.69
666.032	2.31
666.064	-16.69
666.096	4.31
666.127	13.31
666.159	7.31
666.191	-1.69
666.223	0.31
666.255	-0.69
666.286	-3.69
666.318	-11.69
666.35	27.31
666.382	-1.69
666.413	-11.69
666.445	-16.69
666.477	-5.69
666.509	-6.69
666.54	-1.69
666.572	1.31
666.604	-5.69
666.636	-7.69
666.667	4.31
666.699	-6.69
666.731	-3.69
666.763	-4.69
666.794	-0.69
666.826	22.31
666.858	-5.69
666.89	21.31
666.921	-2.69
666.953	-2.69
666.985	-10.69
667.017	6.31
667.048	1.31
667.08	-13.69
667.112	-6.69
667.143	-11.69
667.175	2.31
667.207	7.31
667.238	6.31
667.27	2.31
667.302	6.31
667.334	-0.69
667.365	13.31
667.397	-8.69
667.429	-1.69
667.46	2.31
667.492	4.31
667.524	-5.69
667.555	-14.69
667.587	-12.69
667.619	-4.69
667.65	-0.69
667.682	-9.69
667.714	-0.69
667.745	-2.69
667.777	-11.69
667.808	-1.69
667.84	5.31
667.872	9.31
667.903	19.31
667.935	-5.69
667.967	-4.69
667.998	2.31
668.03	-2.69
668.061	1.31
668.093	-9.69
668.125	4.31
668.156	-5.69
668.188	-17.69
668.22	-9.69
668.251	6.31
668.283	6.31
668.314	6.31
668.346	13.31
668.377	9.31
668.409	6.31
668.441	4.31
668.472	7.31
668.504	3.31
668.535	10.31
668.567	-3.69
668.599	-2.69
668.63	-10.69
668.662	-4.69
668.693	13.31
668.725	20.31
668.756	14.31
668.788	-3.69
668.819	-19.69
668.851	-6.69
668.882	-1.69
668.914	6.31
668.946	-0.69
668.977	-5.69
669.009	-4.69
669.04	-16.69
669.072	2.31
669.103	7.31
669.135	-3.69
669.166	0.31
669.198	5.31
669.229	-11.69
669.261	1.31
669.292	-0.69
669.324	-10.69
669.355	22.31
669.387	-6.69
669.418	1.31
669.45	-29.69
669.481	-0.69
669.513	14.31
669.544	13.31
669.576	-3.69
669.607	6.31
669.639	5.31
669.67	-5.69
669.701	10.31
669.733	-8.69
669.764	5.31
669.796	17.31
669.827	-13.69
669.859	1.31
669.89	19.31
669.922	-4.69
669.953	0.31
669.985	1.31
670.016	11.31
670.047	8.31
670.079	-4.69
670.11	-3.69
670.142	9.31
670.173	5.31
670.204	-5.69
670.236	15.31
670.267	-4.69
670.299	-4.69
670.33	4.31
670.362	4.31
670.393	-26.69
670.424	-2.69
670.456	-11.69
670.487	-14.69
670.518	-0.69
670.55	-1.69
670.581	-17.69
670.613	0.31
670.644	-14.69
670.675	4.31
670.707	-4.69
670.738	2.31
670.769	6.31
670.801	-14.69
670.832	-1.69
670.864	-17.69
670.895	2.31
670.926	2.31
670.958	4.31
670.989	0.31
671.02	-7.69
671.052	-6.69
671.083	-2.69
671.114	-14.69
671.146	0.31
671.177	-3.69
671.208	-6.69
671.24	-13.69
671.271	4.31
671.302	9.31
671.333	0.31
671.365	-12.69
671.396	-15.69
671.427	-13.69
671.459	-12.69
671.49	2.31
671.521	-5.69
671.553	-5.69
671.584	22.31
671.615	-13.69
671.646	-1.69
671.678	2.31
671.709	-6.69
671.74	-5.69
671.771	-10.69
671.803	-6.69
671.834	-9.69
671.865	-5.69
671.896	4.31
671.928	-0.69
671.959	-16.69
671.99	-5.69
672.021	9.31
672.053	-14.69
672.084	5.31
672.115	7.31
672.146	-5.69
672.178	-10.69
672.209	-16.69
672.24	-14.69
672.271	14.31
672.303	4.31
672.334	-2.69
672.365	10.31
672.396	13.31
672.427	-10.69
672.459	12.31
672.49	14.31
672.521	2.31
672.552	2.31
672.583	0.31
672.615	-10.69
672.646	-5.69
672.677	-10.69
672.708	-24.69
672.739	-29.69
672.77	18.31
672.802	3.31
672.833	-6.69
672.864	-19.69
672.895	-5.69
672.926	2.31
672.957	-14.69
672.989	-16.69
673.02	2.31
673.051	-8.69
673.082	13.31
673.113	9.31
673.144	4.31
673.175	-3.69
673.206	-3.69
673.238	-1.69
673.269	-4.69
673.3	2.31
673.331	13.31
673.362	-3.69
673.393	-7.69
673.424	17.31
673.455	0.31
673.487	-0.69
673.518	5.31
673.549	6.31
673.58	-2.69
673.611	-4.69
673.642	3.31
673.673	1.31
673.704	-5.69
673.735	-0.69
673.766	-16.69
673.797	-1.69
673.828	-0.69
673.86	-19.69
673.891	-10.69
673.922	-9.69
673.953	-17.69
673.984	-10.69
674.015	1.31
674.046	0.31
674.077	4.31
674.108	-18.69
674.139	5.31
674.17	-8.69
674.201	-17.69
674.232	-13.69
674.263	-5.69
674.294	-16.69
674.325	-16.69
674.356	5.31
674.387	22.31
674.418	-4.69
674.449	-11.69
674.48	-31.69
674.511	-12.69
674.542	24.31
674.573	-23.69
674.604	17.31
674.635	8.31
674.666	7.31
674.697	2.31
674.728	-4.69
674.759	-1.69
674.79	-13.69
674.821	-12.69
674.852	-0.69
674.883	-4.69
674.914	-1.69
674.945	3.31
674.976	-1.69
675.007	-9.69
675.038	-14.69
675.069	-13.69
675.1	-17.69
675.131	-4.69
675.162	-9.69
675.193	-11.69
675.224	-12.69
675.254	-5.69
675.285	12.31
675.316	9.31
675.347	3.31
675.378	-5.69
675.409	-12.69
675.44	3.31
675.471	-3.69
675.502	-5.69
675.533	3.31
675.564	6.31
675.595	4.31
675.625	5.31
675.656	6.31
675.687	-19.69
675.718	-8.69
675.749	2.31
675.78	6.31
675.811	-5.69
675.842	11.31
675.873	5.31
675.903	-5.69
675.934	0.31
675.965	-8.69
675.996	-1.69
676.027	8.31
676.058	-2.69
676.089	-18.69
676.119	4.31
676.15	-12.69
676.181	1.31
676.212	-4.69
676.243	5.31
676.274	-1.69
676.304	3.31
676.335	-14.69
676.366	-14.69
676.397	-3.69
676.428	1.31
676.459	0.31
676.489	3.31
676.52	-5.69
676.551	-15.69
676.582	-20.69
676.613	-10.69
676.643	-2.69
676.674	-4.69
676.705	-4.69
676.736	8.31
676.767	6.31
676.797	20.31
676.828	-9.69
676.859	-14.69
676.89	0.31
676.92	4.31
676.951	-12.69
676.982	-7.69
677.013	-11.69
677.044	8.31
677.074	11.31
677.105	-4.69
677.136	-0.69
677.167	-11.69
677.197	1.31
677.228	8.31
677.259	-11.69
677.289	-8.69
677.32	-4.69
677.351	-9.69
677.382	-8.69
677.412	-6.69
677.443	8.31
677.474	2.31
677.505	-12.69
677.535	2.31
677.566	-9.69
677.597	-15.69
677.627	-26.69
677.658	-14.69
677.689	-9.69
677.72	-15.69
677.75	-13.69
677.781	-1.69
677.812	3.31
677.842	-1.69
677.873	-4.69
677.904	-1.69
677.934	-10.69
677.965	-16.69
677.996	-26.69
678.026	-13.69
678.057	4.31
678.088	-9.69
678.118	1.31
678.149	-25.69
678.18	-28.69
678.21	-2.69
678.241	-3.69
678.272	-11.69
678.302	-21.69
678.333	-11.69
678.363	13.31
678.394	5.31
678.425	-6.69
678.455	6.31
678.486	11.31
678.517	-14.69
678.547	-4.69
678.578	10.31
678.608	-12.69
678.639	-17.69
678.67	-0.69
678.7	-6.69
678.731	-7.69
678.761	-6.69
678.792	-6.69
678.823	3.31
678.853	0.31
678.884	-13.69
678.914	-5.69
678.945	1.31
678.975	1.31
679.006	5.31
679.037	-3.69
679.067	23.31
679.098	-3.69
679.128	-15.69
679.159	-12.69
679.189	-0.69
679.22	-15.69
679.25	12.31
679.281	3.31
679.312	-1.69
679.342	6.31
679.373	31.31
679.403	18.31
679.434	1.31
679.464	-3.69
679.495	-1.69
679.525	6.31
679.556	1.31
679.586	2.31
679.617	11.31
679.647	-15.69
679.678	-0.69
679.708	-10.69
679.739	-3.69
679.769	-0.69
679.8	2.31
679.83	-0.69
679.861	2.31
679.891	13.31
679.922	-18.69
679.952	6.31
679.983	4.31
680.013	11.31
680.044	-8.69
680.074	23.31
680.105	9.31
680.135	3.31
680.165	10.31
680.196	2.31
680.226	3.31
680.257	2.31
680.287	-10.69
680.318	6.31
680.348	-9.69
680.379	5.31
680.409	12.31
680.439	-1.69
680.47	-0.69
680.5	12.31
680.531	-11.69
680.561	-7.69
680.592	-10.69
680.622	13.31
680.652	1.31
680.683	19.31
680.713	-5.69
680.744	-22.69
680.774	-15.69
680.804	7.31
680.835	-3.69
680.865	-11.69
680.896	17.31
680.926	4.31
680.956	-2.69
680.987	-0.69
681.017	-8.69
681.047	-1.69
681.078	-12.69
681.108	-5.69
681.139	-2.69
681.169	-2.69
681.199	-14.69
681.23	17.31
681.26	5.31
681.29	-4.69
681.321	-18.69
681.351	1.31
681.381	-10.69
681.412	6.31
681.442	3.31
681.472	-1.69
681.503	-10.69
681.533	-4.69
681.563	-6.69
681.594	2.31
681.624	8.31
681.654	-3.69
681.685	-6.69
681.715	2.31
681.745	-12.69
681.775	-2.69
681.806	-16.69
681.836	0.31
681.866	-17.69
681.897	0.31
681.927	1.31
681.957	-17.69
681.987	9.31
682.018	-6.69
682.048	-2.69
682.078	5.31
682.109	19.31
682.139	2.31
682.169	2.31
682.199	5.31
682.23	-19.69
682.26	2.31
682.29	-17.69
682.32	-5.69
682.351	-2.69
682.381	-3.69
682.411	14.31
682.441	-6.69
682.472	-7.69
682.502	5.31
682.532	2.31
682.562	0.31
682.592	-3.69
682.623	9.31
682.653	8.31
682.683	-16.69
682.713	18.31
682.743	-10.69
682.774	-9.69
682.804	-7.69
682.834	21.31
682.864	-6.69
682.894	2.31
682.925	-3.69
682.955	6.31
682.985	-12.69
683.015	-3.69
683.045	7.31
683.076	-0.69
683.106	9.31
683.136	-1.69
683.166	1.31
683.196	-1.69
683.226	3.31
683.257	-26.69
683.287	-3.69
683.317	-17.69
683.347	-5.69
683.377	-10.69
683.407	5.31
683.437	-0.69
683.468	3.31
683.498	-13.69
683.528	-11.69
683.558	-9.69
683.588	-5.69
683.618	2.31
683.648	-9.69
683.678	3.31
683.708	7.31
683.739	1.31
683.769	0.31
683.799	2.31
683.829	6.31
683.859	-0.69
683.889	-7.69
683.919	-16.69
683.949	-1.69
683.979	2.31
684.009	-5.69
684.039	-7.69
684.07	-21.69
684.1	5.31
684.13	5.31
684.16	-0.69
684.19	-4.69
684.22	-4.69
684.25	-1.69
684.28	-5.69
684.31	-2.69
684.34	12.31
684.37	-1.69
684.4	-5.69
684.43	-6.69
684.46	-12.69
684.49	-3.69
684.52	10.31
684.55	5.31
684.58	-2.69
684.61	2.31
684.64	17.31
684.67	0.31
684.7	2.31
684.73	15.31
684.76	-19.69
684.79	11.31
684.82	1.31
684.85	0.31
684.88	2.31
684.91	11.31
684.94	1.31
684.97	-13.69
685	0.31
685.03	-11.69
685.06	-15.69
685.09	-0.69
685.12	25.31
685.15	-17.69
685.18	-1.69
685.21	-0.69
685.24	-4.69
685.27	4.31
685.3	1.31
685.33	-4.69
685.36	-6.69
685.39	-5.69
685.42	-1.69
685.45	-6.69
685.48	-12.69
685.51	-14.69
685.54	13.31
685.569	-0.69
685.599	-2.69
685.629	-13.69
685.659	-10.69
685.689	2.31
685.719	-10.69
685.749	1.31
685.779	13.31
685.809	2.31
685.839	-22.69
685.869	17.31
685.898	11.31
685.928	0.31
685.958	-9.69
685.988	10.31
686.018	-20.69
686.048	-8.69
686.078	12.31
686.108	6.31
686.137	-4.69
686.167	6.31
686.197	-9.69
686.227	2.31
686.257	11.31
686.287	7.31
686.317	0.31
686.346	-8.69
686.376	-17.69
686.406	-22.69
686.436	3.31
686.466	-8.69
686.496	-4.69
686.525	-0.69
686.555	3.31
686.585	20.31
686.615	29.31
686.645	8.31
686.675	12.31
686.704	4.31
686.734	3.31
686.764	-15.69
686.794	-3.69
686.824	-8.69
686.853	12.31
686.883	11.31
686.913	28.31
686.943	-1.69
686.973	5.31
687.002	4.31
687.032	15.31
687.062	-4.69
687.092	3.31
687.121	-21.69
687.151	6.31
687.181	-4.69
687.211	11.31
687.24	-1.69
687.27	-4.69
687.3	-12.69
687.33	-13.69
687.359	-30.69
687.389	11.31
687.419	14.31
687.449	4.31
687.478	2.31
687.508	-13.69
687.538	2.31
687.568	7.31
687.597	-0.69
687.627	10.31
687.657	-0.69
687.686	-12.69
687.716	2.31
687.746	-6.69
687.776	-24.69
687.805	0.31
687.835	-2.69
687.865	19.31
687.894	1.31
687.924	-5.69
687.954	-3.69
687.983	6.31
688.013	6.31
688.043	9.31
688.072	-16.69
688.102	0.31
688.132	-11.69
688.161	-10.69
688.191	-7.69
688.221	22.31
688.25	-16.69
688.28	-0.69
688.31	1.31
688.339	-1.69
688.369	-18.69
688.399	-5.69
688.428	-12.69
688.458	-17.69
688.488	-10.69
688.517	-3.69
688.547	3.31
688.576	24.31
688.606	21.31
688.636	-15.69
688.665	-4.69
688.695	9.31
688.725	11.31
688.754	-2.69
688.784	-6.69
688.813	6.31
688.843	-6.69
688.873	-7.69
688.902	0.31
688.932	-12.69
688.961	6.31
688.991	2.31
689.02	-6.69
689.05	-19.69
689.08	13.31
689.109	24.31
689.139	5.31
689.168	14.31
689.198	2.31
689.227	-0.69
689.257	-4.69
689.287	7.31
689.316	-5.69
689.346	-10.69
689.375	10.31
689.405	19.31
689.434	-2.69
689.464	1.31
689.493	-10.69
689.523	-10.69
689.552	-13.69
689.582	4.31
689.611	1.31
689.641	-4.69
689.67	-16.69
689.7	5.31
689.73	2.31
689.759	0.31
689.789	14.31
689.818	-2.69
689.848	0.31
689.877	22.31
689.906	-30.69
689.936	18.31
689.965	5.31
689.995	-3.69
690.024	14.31
690.054	-6.69
690.083	-3.69
690.113	-13.69
690.142	5.31
690.172	6.31
690.201	5.31
690.231	-10.69
690.26	3.31
690.29	1.31
690.319	-2.69
690.348	-6.69
690.378	-7.69
690.407	-13.69
690.437	0.31
690.466	-8.69
690.496	-0.69
690.525	14.31
690.555	-5.69
690.584	9.31
690.613	3.31
690.643	1.31
690.672	-2.69
690.702	10.31
690.731	-12.69
690.76	16.31
690.79	56.31
690.819	55.31
690.849	41.31
690.878	17.31
690.907	23.31
690.937	14.31
690.966	5.31
690.996	11.31
691.025	2.31
691.054	-0.69
691.084	-13.69
691.113	4.31
691.142	10.31
691.172	-10.69
691.201	13.31
691.23	0.31
691.26	21.31
691.289	9.31
691.319	-1.69
691.348	16.31
691.377	6.31
691.407	-2.69
691.436	-0.69
691.465	1.31
691.495	-1.69
691.524	4.31
691.553	-5.69
691.583	17.31
691.612	3.31
691.641	-14.69
691.67	-3.69
691.7	7.31
691.729	-22.69
691.758	-5.69
691.788	0.31
691.817	-6.69
691.846	-12.69
691.876	1.31
691.905	5.31
691.934	-1.69
691.963	-0.69
691.993	8.31
692.022	4.31
692.051	-5.69
692.081	18.31
692.11	21.31
692.139	14.31
692.168	-2.69
692.198	27.31
692.227	5.31
692.256	-9.69
692.285	1.31
692.315	-2.69
692.344	16.31
692.373	-4.69
692.402	-25.69
692.432	-18.69
692.461	-15.69
692.49	8.31
692.519	-8.69
692.548	12.31
692.578	4.31
692.607	-4.69
692.636	-11.69
692.665	-6.69
692.694	-2.69
692.724	-13.69
692.753	6.31
692.782	15.31
692.811	-9.69
692.84	5.31
692.87	12.31
692.899	-6.69
692.928	-9.69
692.957	1.31
692.986	6.31
693.016	-1.69
693.045	5.31
693.074	-11.69
693.103	-1.69
693.132	3.31
693.161	12.31
693.191	-4.69
693.22	-10.69
693.249	3.31
693.278	-14.69
693.307	2.31
693.336	0.31
693.365	-18.69
693.395	1.31
693.424	10.31
693.453	18.31
693.482	-6.69
693.511	7.31
693.54	-8.69
693.569	8.31
693.598	-1.69
693.628	14.31
693.657	0.31
693.686	17.31
693.715	12.31
693.744	20.31
693.773	8.31
693.802	4.31
693.831	-18.69
693.86	5.31
693.889	-5.69
693.919	4.31
693.948	8.31
693.977	8.31
694.006	3.31
694.035	2.31
694.064	-0.69
694.093	2.31
694.122	3.31
694.151	-1.69
694.18	-4.69
694.209	29.31
694.238	10.31
694.267	14.31
694.296	16.31
694.325	7.31
694.354	5.31
694.383	-7.69
694.412	0.31
694.441	3.31
694.471	-16.69
694.5	-13.69
694.529	3.31
694.558	11.31
694.587	8.31
694.616	-3.69
694.645	-12.69
694.674	2.31
694.703	6.31
694.732	-3.69
694.761	17.31
694.79	7.31
694.819	-11.69
694.848	0.31
694.877	26.31
694.906	21.31
694.935	3.31
694.963	7.31
694.992	0.31
695.021	10.31
695.05	14.31
695.079	5.31
695.108	-1.69
695.137	4.31
695.166	0.31
695.195	-4.69
695.224	3.31
695.253	7.31
695.282	0.31
695.311	2.31
695.34	5.31
695.369	-1.69
695.398	1.31
695.427	-2.69
695.456	-1.69
695.485	5.31
695.513	4.31
695.542	-10.69
695.571	-4.69
695.6	16.31
695.629	2.31
695.658	12.31
695.687	-2.69
695.716	7.31
695.745	20.31
695.774	-14.69
695.802	-9.69
695.831	5.31
695.86	10.31
695.889	-6.69
695.918	-1.69
695.947	-4.69
695.976	4.31
696.005	-0.69
696.033	-6.69
696.062	3.31
696.091	2.31
696.12	5.31
696.149	15.31
696.178	-0.69
696.207	-3.69
696.235	-10.69
696.264	-0.69
696.293	-6.69
696.322	-5.69
696.351	15.31
696.38	-14.69
696.408	-5.69
696.437	-1.69
696.466	10.31
696.495	8.31
696.524	7.31
696.553	-2.69
696.581	16.31
696.61	1.31
696.639	4.31
696.668	5.31
696.697	-1.69
696.725	1.31
696.754	-1.69
696.783	-15.69
696.812	1.31
696.84	-9.69
696.869	-2.69
696.898	-0.69
696.927	0.31
696.956	22.31
696.984	-6.69
697.013	10.31
697.042	-7.69
697.071	-1.69
697.099	22.31
697.128	9.31
697.157	-4.69
697.186	-5.69
697.214	-5.69
697.243	-4.69
697.272	-5.69
697.301	12.31
697.329	18.31
697.358	15.31
697.387	19.31
697.415	6.31
697.444	3.31
697.473	-5.69
697.502	2.31
697.53	14.31
697.559	-13.69
697.588	-3.69
697.616	-10.69
697.645	8.31
697.674	17.31
697.703	0.31
697.731	28.31
697.76	13.31
697.789	2.31
697.817	6.31
697.846	25.31
697.875	2.31
697.903	19.31
697.932	7.31
697.961	18.31
697.989	0.31
698.018	-13.69
698.047	-4.69
698.075	7.31
698.104	12.31
698.133	0.31
698.161	4.31
698.19	8.31
698.218	0.31
698.247	13.31
698.276	-13.69
698.304	18.31
698.333	21.31
698.362	7.31
698.39	-1.69
698.419	1.31
698.447	-8.69
698.476	-15.69
698.505	-9.69
698.533	5.31
698.562	0.31
698.591	-5.69
698.619	-9.69
698.648	3.31
698.676	6.31
698.705	3.31
698.733	-10.69
698.762	3.31
698.791	-6.69
698.819	-1.69
698.848	12.31
698.876	13.31
698.905	10.31
698.933	-3.69
698.962	11.31
698.991	-0.69
699.019	10.31
699.048	-3.69
699.076	3.31
699.105	-19.69
699.133	-5.69
699.162	10.31
699.19	16.31
699.219	-0.69
699.248	-5.69
699.276	6.31
699.305	-3.69
699.333	4.31
699.362	-6.69
699.39	7.31
699.419	-3.69
699.447	-0.69
699.476	6.31
699.504	-0.69
699.533	2.31
699.561	-2.69
699.59	-4.69
699.618	5.31
699.647	10.31
699.675	2.31
699.704	2.31
699.732	-6.69
699.761	19.31
699.789	-12.69
699.818	13.31
699.846	7.31
699.874	-11.69
699.903	-2.69
699.931	2.31
699.96	6.31
699.988	-3.69
700.017	-11.69
700.045	-5.69
700.074	7.31
700.102	-14.69
700.13	-15.69
700.159	13.31
700.187	8.31
700.216	6.31
700.244	-6.69
700.273	-10.69
700.301	-11.69
700.329	-1.69
700.358	9.31
700.386	-9.69
700.415	4.31
700.443	7.31
700.472	-4.69
700.5	7.31
700.528	-4.69
700.557	4.31
700.585	-11.69
700.614	-6.69
700.642	8.31
700.67	13.31
700.699	13.31
700.727	-11.69
700.755	8.31
700.784	-0.69
700.812	20.31
700.841	-5.69
700.869	6.31
700.897	-29.69
700.926	2.31
700.954	10.31
700.982	3.31
701.011	-8.69
701.039	-1.69
701.067	-2.69
701.096	11.31
701.124	1.31
701.152	-1.69
701.181	5.31
701.209	2.31
701.237	2.31
701.266	-13.69
701.294	-15.69
701.322	-1.69
701.351	5.31
701.379	-1.69
701.407	1.31
701.435	0.31
701.464	15.31
701.492	38.31
701.52	2.31
701.549	-17.69
701.577	-19.69
701.605	-6.69
701.634	-1.69
701.662	3.31
701.69	-1.69
701.718	-12.69
701.747	-8.69
701.775	-10.69
701.803	1.31
701.831	7.31
701.86	0.31
701.888	5.31
701.916	-3.69
701.944	-7.69
701.973	2.31
702.001	2.31
702.029	0.31
702.057	-4.69
702.086	-4.69
702.114	-12.69
702.142	-4.69
702.17	-3.69
702.199	-7.69
702.227	0.31
702.255	-12.69
702.283	-0.69
702.311	2.31
702.34	5.31
702.368	-6.69
702.396	-4.69
702.424	6.31
702.452	-13.69
702.481	-10.69
702.509	-9.69
702.537	8.31
702.565	11.31
702.593	-14.69
702.621	5.31
702.65	11.31
702.678	-1.69
702.706	2.31
702.734	10.31
702.762	-1.69
702.79	1.31
702.819	-8.69
702.847	-13.69
702.875	-4.69
702.903	-12.69
702.931	3.31
702.959	1.31
702.988	4.31
703.016	-39.69
703.044	-13.69
703.072	-8.69
703.1	-9.69
703.128	-5.69
703.156	4.31
703.184	-5.69
703.212	12.31
703.241	6.31
703.269	6.31
703.297	-12.69
703.325	-8.69
703.353	-3.69
703.381	9.31
703.409	9.31
703.437	-5.69
703.465	2.31
703.493	-6.69
703.522	-9.69
703.55	6.31
703.578	6.31
703.606	-16.69
703.634	-12.69
703.662	-5.69
703.69	-9.69
703.718	5.31
703.746	11.31
703.774	-3.69
703.802	10.31
703.83	-5.69
703.858	-13.69
703.886	-24.69
703.914	-5.69
703.942	23.31
703.97	-4.69
703.998	-12.69
704.027	1.31
704.055	-0.69
704.083	1.31
704.111	-4.69
704.139	1.31
704.167	-9.69
704.195	-0.69
704.223	-18.69
704.251	-11.69
704.279	1.31
704.307	-10.69
704.335	-26.69
704.363	-3.69
704.391	-20.69
704.419	0.31
704.447	-11.69
704.475	-2.69
704.503	-2.69
704.531	13.31
704.558	7.31
704.586	12.31
704.614	6.31
704.642	13.31
704.67	-14.69
704.698	-5.69
704.726	-1.69
704.754	9.31
704.782	-11.69
704.81	-13.69
704.838	10.31
704.866	4.31
704.894	-6.69
704.922	-3.69
704.95	-2.69
704.978	-2.69
705.006	-6.69
705.034	15.31
705.061	-16.69
705.089	-24.69
705.117	-4.69
705.145	3.31
705.173	13.31
705.201	4.31
705.229	0.31
705.257	9.31
705.285	3.31
705.313	-3.69
705.34	3.31
705.368	-7.69
705.396	1.31
705.424	-3.69
705.452	-4.69
705.48	-2.69
705.508	-5.69
705.536	-0.69
705.563	-11.69
705.591	5.31
705.619	14.31
705.647	-7.69
705.675	-4.69
705.703	-1.69
705.731	10.31
705.758	7.31
705.786	7.31
705.814	25.31
705.842	11.31
705.87	3.31
705.898	12.31
705.925	-9.69
705.953	-2.69
705.981	-21.69
706.009	-13.69
706.037	5.31
706.065	-10.69
706.092	-4.69
706.12	7.31
706.148	-17.69
706.176	-1.69
706.204	4.31
706.231	1.31
706.259	-3.69
706.287	1.31
706.315	-13.69
706.342	-15.69
706.37	1.31
706.398	5.31
706.426	-1.69
706.454	-4.69
706.481	14.31
706.509	-3.69
706.537	-1.69
706.565	-4.69
706.592	0.31
706.62	-6.69
706.648	-7.69
706.676	-2.69
706.703	12.31
706.731	-2.69
706.759	-10.69
706.787	-11.69
706.814	-5.69
706.842	2.31
706.87	-6.69
706.897	-4.69
706.925	-10.69
706.953	21.31
706.981	13.31
707.008	-3.69
707.036	0.31
707.064	-5.69
707.091	-11.69
707.119	-2.69
707.147	-19.69
707.174	-16.69
707.202	10.31
707.23	7.31
707.258	7.31
707.285	-17.69
707.313	3.31
707.341	-14.69
707.368	-6.69
707.396	-3.69
707.424	-1.69
707.451	-0.69
707.479	7.31
707.507	-5.69
707.534	-9.69
707.562	-8.69
707.59	-3.69
707.617	-18.69
707.645	0.31
707.672	-2.69
707.7	-3.69
707.728	7.31
707.755	2.31
707.783	-0.69
707.811	11.31
707.838	-22.69
707.866	-6.69
707.893	3.31
707.921	-2.69
707.949	-10.69
707.976	4.31
708.004	21.31
708.031	-18.69
708.059	-12.69
708.087	11.31
708.114	-1.69
708.142	-9.69
708.169	-9.69
708.197	-13.69
708.225	-2.69
708.252	18.31
708.28	17.31
708.307	3.31
708.335	9.31
708.362	-12.69
708.39	-14.69
708.418	-10.69
708.445	-6.69
708.473	-11.69
708.5	-17.69
708.528	8.31
708.555	-8.69
708.583	-5.69
708.61	10.31
708.638	-2.69
708.665	-17.69
708.693	-1.69
708.72	-17.69
708.748	-11.69
708.776	7.31
708.803	12.31
708.831	7.31
708.858	-5.69
708.886	-0.69
708.913	-11.69
708.941	-15.69
708.968	5.31
708.996	-8.69
709.023	20.31
709.051	-6.69
709.078	-3.69
709.105	13.31
709.133	-6.69
709.16	-11.69
709.188	2.31
709.215	5.31
709.243	10.31
709.27	-6.69
709.298	0.31
709.325	5.31
709.353	13.31
709.38	-1.69
709.408	-2.69
709.435	-5.69
709.462	3.31
709.49	-5.69
709.517	-17.69
709.545	-14.69
709.572	-6.69
709.6	-14.69
709.627	-9.69
709.655	-7.69
709.682	-10.69
709.709	9.31
709.737	-12.69
709.764	1.31
709.792	-0.69
709.819	-3.69
709.846	-4.69
709.874	13.31
709.901	15.31
709.929	31.31
709.956	14.31
709.983	-8.69
710.011	-1.69
710.038	-15.69
710.066	1.31
710.093	-4.69
710.12	-7.69
710.148	-10.69
710.175	-8.69
710.202	-12.69
710.23	-6.69
710.257	-5.69
710.284	19.31
710.312	-0.69
710.339	-1.69
710.366	-0.69
710.394	-10.69
710.421	6.31
710.448	-4.69
710.476	-18.69
710.503	3.31
710.53	20.31
710.558	15.31
710.585	5.31
710.612	-11.69
710.64	-3.69
710.667	13.31
710.694	-22.69
710.722	-9.69
710.749	-14.69
710.776	1.31
710.804	17.31
710.831	9.31
710.858	-3.69
710.885	-14.69
710.913	-0.69
710.94	9.31
710.967	6.31
710.995	-9.69
711.022	11.31
711.049	-10.69
711.076	-13.69
711.104	-17.69
711.131	-22.69
711.158	-3.69
711.185	-6.69
711.213	-1.69
711.24	1.31
711.267	8.31
711.294	-5.69
711.322	-9.69
711.349	-14.69
711.376	-0.69
711.403	-11.69
711.431	-17.69
711.458	-13.69
711.485	-13.69
711.512	-0.69
711.54	-5.69
711.567	-2.69
711.594	-4.69
711.621	-3.69
711.648	1.31
711.676	-2.69
711.703	1.31
711.73	-3.69
711.757	9.31
711.784	-12.69
711.812	1.31
711.839	-4.69
711.866	-4.69
711.893	-14.69
711.92	10.31
711.947	-2.69
711.975	2.31
712.002	-6.69
712.029	21.31
712.056	4.31
712.083	10.31
712.11	-22.69
712.138	1.31
712.165	-2.69
712.192	2.31
712.219	-15.69
712.246	-13.69
712.273	-6.69
712.3	-11.69
712.328	-1.69
712.355	1.31
712.382	-9.69
712.409	13.31
712.436	-1.69
712.463	-1.69
712.49	11.31
712.517	-0.69
712.544	-14.69
712.572	-12.69
712.599	-18.69
712.626	-9.69
712.653	0.31
712.68	-4.69
712.707	13.31
712.734	11.31
712.761	10.31
712.788	20.31
712.815	12.31
712.842	7.31
712.87	1.31
712.897	-17.69
712.924	-18.69
712.951	-7.69
712.978	-0.69
713.005	9.31
713.032	5.31
713.059	11.31
713.086	-0.69
713.113	-1.69
713.14	-0.69
713.167	-0.69
713.194	1.31
713.221	-1.69
713.248	15.31
713.275	-8.69
713.302	-15.69
713.329	13.31
713.356	10.31
713.383	-5.69
713.41	0.31
713.437	-8.69
713.464	2.31
713.491	19.31
713.518	-7.69
713.545	-6.69
713.572	-6.69
713.599	6.31
713.626	0.31
713.653	-3.69
713.68	-5.69
713.707	-12.69
713.734	-6.69
713.761	-11.69
713.788	-9.69
713.815	3.31
713.842	0.31
713.869	-5.69
713.896	1.31
713.923	-13.69
713.95	-6.69
713.977	-14.69
714.004	-9.69
714.031	-4.69
714.058	-17.69
714.085	-2.69
714.112	2.31
714.139	1.31
714.165	-17.69
714.192	-22.69
714.219	0.31
714.246	3.31
714.273	-11.69
714.3	-7.69
714.327	11.31
714.354	11.31
714.381	-5.69
714.408	-0.69
714.435	-7.69
714.461	2.31
714.488	-3.69
714.515	-5.69
714.542	-12.69
714.569	-18.69
714.596	-12.69
714.623	-6.69
714.65	-18.69
714.677	-11.69
714.703	-3.69
714.73	7.31
714.757	-0.69
714.784	-1.69
714.811	-16.69
714.838	-5.69
714.865	2.31
714.891	15.31
714.918	-4.69
714.945	-16.69
714.972	-10.69
714.999	6.31
715.026	0.31
715.052	8.31
715.079	-11.69
715.106	-7.69
715.133	2.31
715.16	-3.69
715.187	-0.69
715.213	12.31
715.24	-4.69
715.267	-7.69
715.294	-6.69
715.321	-11.69
715.347	-9.69
715.374	-4.69
715.401	-1.69
715.428	-13.69
715.455	0.31
715.481	-2.69
715.508	4.31
715.535	-5.69
715.562	19.31
715.588	4.31
715.615	-10.69
715.642	3.31
715.669	6.31
715.695	-8.69
715.722	9.31
715.749	6.31
715.776	13.31
715.802	-2.69
715.829	8.31
715.856	-11.69
715.883	-1.69
715.909	-12.69
715.936	-20.69
715.963	1.31
715.99	-9.69
716.016	-11.69
716.043	-10.69
716.07	-16.69
716.096	-26.69
716.123	-6.69
716.15	-5.69
716.177	-1.69
716.203	5.31
716.23	2.31
716.257	8.31
716.283	25.31
716.31	-9.69
716.337	-3.69
716.363	4.31
716.39	-6.69
716.417	-8.69
716.443	-1.69
716.47	21.31
716.497	16.31
716.523	1.31
716.55	-2.69
716.577	10.31
716.603	4.31
716.63	3.31
716.657	8.31
716.683	-11.69
716.71	-3.69
716.737	-8.69
716.763	6.31
716.79	12.31
716.817	23.31
716.843	7.31
716.87	-6.69
716.897	-0.69
716.923	2.31
716.95	-10.69
716.976	-12.69
717.003	1.31
717.03	11.31
717.056	-6.69
717.083	-16.69
717.109	-13.69
717.136	-3.69
717.163	-0.69
717.189	4.31
717.216	2.31
717.242	-1.69
717.269	2.31
717.296	-2.69
717.322	2.31
717.349	5.31
717.375	17.31
717.402	-6.69
717.428	5.31
717.455	15.31
717.481	2.31
717.508	15.31
717.535	10.31
717.561	-5.69
717.588	-9.69
717.614	-13.69
717.641	10.31
717.667	7.31
717.694	-7.69
717.72	-28.69
717.747	-3.69
717.773	2.31
717.8	0.31
717.826	5.31
717.853	-3.69
717.88	10.31
717.906	4.31
717.933	8.31
717.959	-0.69
717.986	-5.69
718.012	-8.69
718.039	17.31
718.065	23.31
718.092	-5.69
718.118	0.31
718.144	-5.69
718.171	27.31
718.197	13.31
718.224	-5.69
718.25	-5.69
718.277	0.31
718.303	11.31
718.33	-4.69
718.356	-7.69
718.383	-2.69
718.409	-4.69
718.436	-5.69
718.462	-9.69
718.489	-10.69
718.515	16.31
718.541	17.31
718.568	-6.69
718.594	4.31
718.621	8.31
718.647	-15.69
718.674	7.31
718.7	6.31
718.726	-0.69
718.753	-16.69
718.779	6.31
718.806	-4.69
718.832	-20.69
718.858	-1.69
718.885	-6.69
718.911	-1.69
718.938	9.31
718.964	-8.69
718.99	-3.69
719.017	-5.69
719.043	-2.69
719.07	9.31
719.096	-0.69
719.122	5.31
719.149	-5.69
719.175	5.31
719.201	8.31
719.228	-0.69
719.254	-7.69
719.281	-10.69
719.307	-4.69
719.333	-5.69
719.36	-8.69
719.386	-1.69
719.412	0.31
719.439	-24.69
719.465	-11.69
719.491	-13.69
719.518	6.31
719.544	0.31
719.57	11.31
719.597	-4.69
719.623	-15.69
719.649	-5.69
719.675	-6.69
719.702	7.31
719.728	9.31
719.754	-5.69
719.781	-1.69
719.807	-0.69
719.833	-4.69
719.86	9.31
719.886	-8.69
719.912	-4.69
719.938	-12.69
719.965	-0.69
719.991	-10.69
720.017	-12.69
720.044	-1.69
720.07	6.31
720.096	-0.69
720.122	6.31
720.149	9.31
720.175	7.31
720.201	-2.69
720.227	-1.69
720.254	5.31
720.28	-4.69
720.306	-3.69
720.332	5.31
720.359	3.31
720.385	2.31
720.411	-0.69
720.437	1.31
720.463	10.31
720.49	11.31
720.516	-3.69
720.542	6.31
720.568	0.31
720.595	9.31
720.621	2.31
720.647	6.31
720.673	-0.69
720.699	-0.69
720.725	3.31
720.752	13.31
720.778	7.31
720.804	-4.69
720.83	-1.69
720.856	-14.69
720.883	-8.69
720.909	-7.69
720.935	5.31
720.961	5.31
720.987	4.31
721.013	-7.69
721.04	3.31
721.066	-8.69
721.092	0.31
721.118	4.31
721.144	2.31
721.17	-6.69
721.196	3.31
721.223	-7.69
721.249	-9.69
721.275	19.31
721.301	1.31
721.327	14.31
721.353	17.31
721.379	4.31
721.405	8.31
721.432	13.31
721.458	3.31
721.484	10.31
721.51	-8.69
721.536	6.31
721.562	-6.69
721.588	2.31
721.614	-8.69
721.64	-9.69
721.666	-4.69
721.693	-11.69
721.719	-12.69
721.745	-26.69
721.771	-9.69
721.797	1.31
721.823	11.31
721.849	17.31
721.875	11.31
721.901	7.31
721.927	4.31
721.953	2.31
721.979	7.31
722.005	-4.69
722.031	-3.69
722.057	-0.69
722.083	-10.69
722.109	-1.69
722.135	2.31
722.161	-3.69
722.187	-14.69
722.214	-4.69
722.24	5.31
722.266	-20.69
722.292	-9.69
722.318	17.31
722.344	15.31
722.37	9.31
722.396	5.31
722.422	-9.69
722.448	-7.69
722.474	-22.69
722.5	12.31
722.526	8.31
722.552	-10.69
722.578	-5.69
722.603	15.31
722.629	3.31
722.655	-3.69
722.681	-0.69
722.707	3.31
722.733	-1.69
722.759	-12.69
722.785	-0.69
722.811	-7.69
722.837	-13.69
722.863	2.31
722.889	9.31
722.915	-10.69
722.941	-8.69
722.967	-3.69
722.993	21.31
723.019	-3.69
723.045	1.31
723.071	-8.69
723.097	-7.69
723.122	-0.69
723.148	1.31
723.174	-7.69
723.2	7.31
723.226	-5.69
723.252	6.31
723.278	-11.69
723.304	-8.69
723.33	3.31
723.356	-4.69
723.381	-9.69
723.407	-1.69
723.433	18.31
723.459	-6.69
723.485	-13.69
723.511	3.31
723.537	-0.69
723.563	-8.69
723.588	-3.69
723.614	10.31
723.64	-1.69
723.666	-12.69
723.692	-2.69
723.718	-8.69
723.744	0.31
723.769	6.31
723.795	2.31
723.821	-3.69
723.847	-11.69
723.873	-8.69
723.899	4.31
723.924	-4.69
723.95	-12.69
723.976	-4.69
724.002	0.31
724.028	1.31
724.053	-9.69
724.079	-11.69
724.105	-3.69
724.131	-10.69
724.157	-14.69
724.182	-9.69
724.208	-6.69
724.234	7.31
724.26	-6.69
724.286	7.31
724.311	-6.69
724.337	-20.69
724.363	-8.69
724.389	1.31
724.415	-12.69
724.44	5.31
724.466	-12.69
724.492	-19.69
724.518	2.31
724.543	6.31
724.569	12.31
724.595	7.31
724.621	-11.69
724.646	-6.69
724.672	-17.69
724.698	-13.69
724.723	10.31
724.749	0.31
724.775	11.31
724.801	2.31
724.826	-14.69
724.852	-4.69
724.878	-11.69
724.904	-14.69
724.929	10.31
724.955	1.31
724.981	-0.69
725.006	-0.69
725.032	-10.69
725.058	1.31
725.083	-28.69
725.109	10.31
725.135	10.31
725.161	1.31
725.186	-0.69
725.212	-0.69
725.238	-0.69
725.263	12.31
725.289	-11.69
725.315	-12.69
725.34	-0.69
725.366	-4.69
725.392	1.31
725.417	-16.69
725.443	-9.69
725.468	4.31
725.494	0.31
725.52	6.31
725.545	-6.69
725.571	-3.69
725.597	-8.69
725.622	-12.69
725.648	-9.69
725.674	-7.69
725.699	-4.69
725.725	-9.69
725.75	9.31
725.776	-20.69
725.802	0.31
725.827	-5.69
725.853	-2.69
725.878	-6.69
725.904	-8.69
725.93	0.31
725.955	-15.69
725.981	-12.69
726.006	-2.69
726.032	6.31
726.057	-11.69
726.083	-17.69
726.109	-7.69
726.134	-1.69
726.16	-2.69
726.185	4.31
726.211	-8.69
726.236	6.31
726.262	2.31
726.288	5.31
726.313	0.31
726.339	18.31
726.364	9.31
726.39	3.31
726.415	-14.69
726.441	-5.69
726.466	-2.69
726.492	5.31
726.517	8.31
726.543	15.31
726.568	9.31
726.594	-5.69
726.619	-2.69
726.645	19.31
726.67	1.31
726.696	2.31
726.721	-10.69
726.747	-22.69
726.772	-5.69
726.798	-3.69
726.823	-10.69
726.849	5.31
726.874	6.31
726.9	36.31
726.925	24.31
726.951	-1.69
726.976	-6.69
727.002	-5.69
727.027	-0.69
727.053	7.31
727.078	-13.69
727.104	12.31
727.129	-6.69
727.155	-4.69
727.18	2.31
727.205	-5.69
727.231	-8.69
727.256	-4.69
727.282	6.31
727.307	14.31
727.333	-6.69
727.358	-22.69
727.383	-3.69
727.409	-8.69
727.434	0.31
727.46	7.31
727.485	-2.69
727.511	6.31
727.536	-8.69
727.561	0.31
727.587	-15.69
727.612	-8.69
727.637	-0.69
727.663	-10.69
727.688	20.31
727.714	-9.69
727.739	7.31
727.764	-7.69
727.79	0.31
727.815	5.31
727.841	5.31
727.866	-1.69
727.891	-9.69
727.917	-13.69
727.942	-6.69
727.967	-3.69
727.993	-15.69
728.018	-0.69
728.043	-3.69
728.069	-0.69
728.094	-2.69
728.119	10.31
728.145	16.31
728.17	-8.69
728.195	2.31
728.221	11.31
728.246	-1.69
728.271	-15.69
728.297	-5.69
728.322	11.31
728.347	-9.69
728.373	1.31
728.398	-4.69
728.423	-5.69
728.448	1.31
728.474	5.31
728.499	3.31
728.524	-5.69
728.55	-3.69
728.575	-3.69
728.6	2.31
728.625	12.31
728.651	-11.69
728.676	-5.69
728.701	-21.69
728.727	-14.69
728.752	-3.69
728.777	-14.69
728.802	5.31
728.828	4.31
728.853	-5.69
728.878	-8.69
728.903	-19.69
728.929	-16.69
728.954	2.31
728.979	6.31
729.004	-2.69
729.03	-14.69
729.055	-2.69
729.08	-21.69
729.105	7.31
729.13	11.31
729.156	13.31
729.181	1.31
729.206	-14.69
729.231	-4.69
729.256	11.31
729.282	10.31
729.307	1.31
729.332	-10.69
729.357	-3.69
729.382	-12.69
729.408	7.31
729.433	-6.69
729.458	-3.69
729.483	2.31
729.508	5.31
729.533	4.31
729.559	11.31
729.584	-17.69
729.609	12.31
729.634	4.31
729.659	-0.69
729.684	-4.69
729.71	33.31
729.735	6.31
729.76	-1.69
729.785	-2.69
729.81	17.31
729.835	-1.69
729.86	-9.69
729.886	15.31
729.911	3.31
729.936	2.31
729.961	9.31
729.986	22.31
730.011	58.31
730.036	191.31
730.061	1013.31
730.086	2659.31
730.112	3398.31
730.137	2878.31
730.162	2128.31
730.187	1615.31
730.212	1252.31
730.237	793.31
730.262	452.31
730.287	227.31
730.312	128.31
730.337	65.31
730.362	53.31
730.387	41.31
730.413	13.31
730.438	4.31
730.463	12.31
730.488	5.31
730.513	2.31
730.538	-10.69
730.563	12.31
730.588	9.31
730.613	-2.69
730.638	-7.69
730.663	-15.69
730.688	26.31
730.713	18.31
730.738	5.31
730.763	3.31
730.788	-7.69
730.813	-1.69
730.838	-1.69
730.863	13.31
730.888	3.31
730.913	-3.69
730.938	-9.69
730.963	19.31
730.988	121.31
731.013	415.31
731.038	621.31
731.063	597.31
731.088	451.31
731.113	340.31
731.138	250.31
731.163	196.31
731.188	106.31
731.213	62.31
731.238	31.31
731.263	17.31
731.288	-2.69
731.313	8.31
731.338	6.31
731.363	-13.69
731.388	-5.69
731.413	-6.69
731.438	7.31
731.463	3.31
731.487	5.31
731.512	-1.69
731.537	-12.69
731.562	-15.69
731.587	-0.69
731.612	-9.69
731.637	-6.69
731.662	-4.69
731.687	-2.69
731.712	-1.69
731.737	6.31
731.762	-6.69
731.786	-2.69
731.811	17.31
731.836	13.31
731.861	9.31
731.886	-18.69
731.911	-1.69
731.936	13.31
731.961	-10.69
731.986	-8.69
732.01	7.31
732.035	-0.69
732.06	2.31
732.085	-5.69
732.11	-11.69
732.135	-15.69
732.16	-11.69
732.184	-9.69
732.209	-13.69
732.234	-9.69
732.259	-10.69
732.284	11.31
732.309	-8.69
732.334	-6.69
732.358	-25.69
732.383	-21.69
732.408	-12.69
732.433	-14.69
732.458	-2.69
732.482	1.31
732.507	8.31
732.532	11.31
732.557	1.31
732.582	1.31
732.607	29.31
732.631	46.31
732.656	92.31
732.681	155.31
732.706	328.31
732.73	450.31
732.755	403.31
732.78	294.31
732.805	233.31
732.83	174.31
732.854	118.31
732.879	97.31
732.904	53.31
732.929	17.31
732.953	25.31
732.978	13.31
733.003	5.31
733.028	-14.69
733.052	6.31
733.077	-1.69
733.102	10.31
733.127	3.31
733.151	-11.69
733.176	9.31
733.201	-0.69
733.226	-15.69
733.25	-10.69
733.275	0.31
733.3	-3.69
733.324	11.31
733.349	2.31
733.374	17.31
733.399	-1.69
733.423	9.31
733.448	-12.69
733.473	-13.69
733.497	-13.69
733.522	-6.69
733.547	6.31
733.571	12.31
733.596	8.31
733.621	6.31
733.646	-12.69
733.67	-1.69
733.695	0.31
733.72	14.31
733.744	3.31
733.769	0.31
733.794	11.31
733.818	3.31
733.843	-1.69
733.867	-19.69
733.892	-5.69
733.917	-6.69
733.941	-4.69
733.966	-9.69
733.991	-12.69
734.015	32.31
734.04	-1.69
734.065	1.31
734.089	9.31
734.114	-9.69
734.138	7.31
734.163	-12.69
734.188	5.31
734.212	3.31
734.237	5.31
734.261	6.31
734.286	-4.69
734.311	2.31
734.335	-6.69
734.36	-2.69
734.384	13.31
734.409	-13.69
734.434	-6.69
734.458	8.31
734.483	-0.69
734.507	-15.69
734.532	1.31
734.556	-0.69
734.581	-12.69
734.606	-10.69
734.63	-4.69
734.655	-1.69
734.679	13.31
734.704	5.31
734.728	-3.69
734.753	-6.69
734.777	17.31
734.802	3.31
734.826	15.31
734.851	-8.69
734.876	20.31
734.9	10.31
734.925	2.31
734.949	4.31
734.974	-5.69
734.998	5.31
735.023	-4.69
735.047	-13.69
735.072	5.31
735.096	5.31
735.121	9.31
735.145	-5.69
735.17	4.31
735.194	6.31
735.219	-16.69
735.243	9.31
735.268	13.31
735.292	14.31
735.317	10.31
735.341	-5.69
735.365	-20.69
735.39	13.31
735.414	8.31
735.439	-1.69
735.463	2.31
735.488	13.31
735.512	-2.69
735.537	-14.69
735.561	6.31
735.586	-6.69
735.61	10.31
735.634	-11.69
735.659	0.31
735.683	7.31
735.708	-5.69
735.732	0.31
735.757	-20.69
735.781	0.31
735.805	4.31
735.83	-13.69
735.854	-16.69
735.879	-5.69
735.903	-0.69
735.927	-10.69
735.952	-6.69
735.976	-9.69
736.001	6.31
736.025	0.31
736.049	17.31
736.074	-10.69
736.098	-12.69
736.123	7.31
736.147	-7.69
736.171	2.31
736.196	16.31
736.22	-5.69
736.244	3.31
736.269	-6.69
736.293	-6.69
736.317	2.31
736.342	11.31
736.366	10.31
736.39	1.31
736.415	-13.69
736.439	5.31
736.463	7.31
736.488	2.31
736.512	-7.69
736.536	-0.69
736.561	14.31
736.585	2.31
736.609	6.31
736.634	-4.69
736.658	2.31
736.682	-13.69
736.707	-15.69
736.731	-0.69
736.755	5.31
736.78	2.31
736.804	19.31
736.828	13.31
736.852	5.31
736.877	-0.69
736.901	-3.69
736.925	-3.69
736.949	4.31
736.974	-12.69
736.998	-16.69
737.022	-3.69
737.047	-15.69
737.071	-8.69
737.095	24.31
737.119	22.31
737.144	5.31
737.168	-6.69
737.192	-9.69
737.216	-2.69
737.241	-11.69
737.265	2.31
737.289	-8.69
737.313	-4.69
737.337	1.31
737.362	3.31
737.386	0.31
737.41	-4.69
737.434	-6.69
737.459	-10.69
737.483	-9.69
737.507	3.31
737.531	21.31
737.555	13.31
737.58	10.31
737.604	16.31
737.628	-9.69
737.652	-4.69
737.676	-0.69
737.701	11.31
737.725	1.31
737.749	1.31
737.773	-2.69
737.797	-11.69
737.821	-15.69
737.846	0.31
737.87	20.31
737.894	-7.69
737.918	5.31
737.942	-2.69
737.966	6.31
737.99	-4.69
738.015	1.31
738.039	-0.69
738.063	6.31
738.087	13.31
738.111	-0.69
738.135	27.31
738.159	-4.69
738.184	-2.69
738.208	9.31
738.232	-5.69
738.256	11.31
738.28	11.31
738.304	19.31
738.328	-9.69
738.352	10.31
738.376	0.31
738.4	-4.69
738.425	2.31
738.449	-1.69
738.473	20.31
738.497	14.31
738.521	-0.69
738.545	14.31
738.569	21.31
738.593	13.31
738.617	5.31
738.641	7.31
738.665	2.31
738.689	10.31
738.713	7.31
738.737	7.31
738.762	21.31
738.786	-2.69
738.81	-13.69
738.834	18.31
738.858	5.31
738.882	2.31
738.906	7.31
738.93	4.31
738.954	1.31
738.978	-10.69
739.002	6.31
739.026	20.31
739.05	27.31
739.074	-6.69
739.098	17.31
739.122	3.31
739.146	-9.69
739.17	13.31
739.194	19.31
739.218	-10.69
739.242	-1.69
739.266	-4.69
739.29	21.31
739.314	3.31
739.338	8.31
739.362	9.31
739.386	-3.69
739.41	-14.69
739.434	-7.69
739.458	21.31
739.482	5.31
739.506	8.31
739.53	-15.69
739.554	16.31
739.577	13.31
739.601	7.31
739.625	-10.69
739.649	-0.69
739.673	-19.69
739.697	-1.69
739.721	1.31
739.745	0.31
739.769	13.31
739.793	1.31
739.817	1.31
739.841	-11.69
739.865	-2.69
739.889	-8.69
739.912	12.31
739.936	-15.69
739.96	-6.69
739.984	12.31
740.008	12.31
740.032	0.31
740.056	-2.69
740.08	-9.69
740.104	-3.69
740.127	10.31
740.151	15.31
740.175	3.31
740.199	11.31
740.223	43.31
740.247	14.31
740.271	-6.69
740.295	-2.69
740.318	-13.69
740.342	-12.69
740.366	-6.69
740.39	10.31
740.414	3.31
740.438	0.31
740.461	16.31
740.485	0.31
740.509	-9.69
740.533	-1.69
740.557	-8.69
740.581	-5.69
740.604	-24.69
740.628	-10.69
740.652	4.31
740.676	-0.69
740.7	7.31
740.723	5.31
740.747	-0.69
740.771	-9.69
740.795	-10.69
740.819	-5.69
740.842	7.31
740.866	16.31
740.89	-0.69
740.914	-4.69
740.938	-28.69
740.961	18.31
740.985	6.31
741.009	7.31
741.033	16.31
741.056	5.31
741.08	-5.69
741.104	-16.69
741.128	-5.69
741.151	2.31
741.175	-0.69
741.199	1.31
741.223	9.31
741.246	-8.69
741.27	11.31
741.294	3.31
741.318	-12.69
741.341	2.31
741.365	4.31
741.389	0.31
741.413	15.31
741.436	12.31
741.46	-1.69
741.484	17.31
741.507	8.31
741.531	13.31
741.555	22.31
741.579	4.31
741.602	1.31
741.626	8.31
741.65	-9.69
741.673	11.31
741.697	7.31
741.721	2.31
741.744	-17.69
741.768	-9.69
741.792	12.31
741.815	-5.69
741.839	30.31
741.863	29.31
741.886	19.31
741.91	7.31
741.934	-2.69
741.957	-20.69
741.981	-0.69
742.005	-2.69
742.028	-2.69
742.052	-4.69
742.075	12.31
742.099	-6.69
742.123	4.31
742.146	-8.69
742.17	11.31
742.194	-2.69
742.217	-4.69
742.241	-5.69
742.264	2.31
742.288	28.31
742.312	13.31
742.335	7.31
742.359	5.31
742.382	22.31
742.406	13.31
742.43	-7.69
742.453	-2.69
742.477	-10.69
742.5	1.31
742.524	-13.69
742.548	-3.69
742.571	-2.69
742.595	4.31
742.618	0.31
742.642	2.31
742.665	24.31
742.689	-6.69
742.712	7.31
742.736	0.31
742.76	15.31
742.783	6.31
742.807	14.31
742.83	6.31
742.854	-23.69
742.877	2.31
742.901	-5.69
742.924	12.31
742.948	6.31
742.971	20.31
742.995	5.31
743.018	-12.69
743.042	-5.69
743.065	-3.69
743.089	-7.69
743.112	-3.69
743.136	-10.69
743.159	-6.69
743.183	-5.69
743.206	1.31
743.23	-6.69
743.253	5.31
743.277	9.31
743.3	-12.69
743.324	-24.69
743.347	-12.69
743.371	13.31
743.394	9.31
743.418	9.31
743.441	0.31
743.465	5.31
743.488	12.31
743.512	-9.69
743.535	-6.69
743.558	-13.69
743.582	-12.69
743.605	-18.69
743.629	11.31
743.652	-3.69
743.676	4.31
743.699	-0.69
743.723	6.31
743.746	7.31
743.769	-4.69
743.793	2.31
743.816	-19.69
743.84	1.31
743.863	-16.69
743.886	6.31
743.91	12.31
743.933	6.31
743.957	-6.69
743.98	10.31
744.003	-0.69
744.027	10.31
744.05	-6.69
744.074	-0.69
744.097	-2.69
744.12	4.31
744.144	-19.69
744.167	4.31
744.19	1.31
744.214	-6.69
744.237	-6.69
744.26	8.31
744.284	2.31
744.307	-13.69
744.331	6.31
744.354	-8.69
744.377	1.31
744.401	6.31
744.424	9.31
744.447	-12.69
744.471	-24.69
