Data from HighRes_mercury_15_13_11_07_2024_HR4C61891__16__15-14-24-786.txt Node

Date: Thu Nov 07 15:14:24 EST 2024
User: crc00042
Spectrometer: HR4C6189
Trigger mode: 4
Integration Time (sec): 1.000000E-1
Scans to average: 1
Electric dark correction enabled: true
Nonlinearity correction enabled: false
Boxcar width: 0
XAxis mode: Wavelengths
Number of Pixels in Spectrum: 3648
>>>>>Begin Spectral Data<<<<<
639.567	-45.31
639.602	-45.31
639.636	-45.31
639.67	-39.31
639.704	-7.31
639.738	-5.31
639.773	14.69
639.807	-12.31
639.841	8.69
639.875	13.69
639.909	-15.31
639.943	-14.31
639.978	5.69
640.012	-6.31
640.046	4.69
640.08	16.69
640.114	-0.31
640.148	-10.31
640.182	-13.31
640.217	-2.31
640.251	7.69
640.285	-4.31
640.319	-13.31
640.353	-10.31
640.387	4.69
640.421	-6.31
640.455	-6.31
640.49	3.69
640.524	9.69
640.558	7.69
640.592	2.69
640.626	8.69
640.66	-1.31
640.694	-14.31
640.728	14.69
640.762	5.69
640.796	23.69
640.83	14.69
640.865	1.69
640.899	-8.31
640.933	-13.31
640.967	-2.31
641.001	9.69
641.035	12.69
641.069	-2.31
641.103	6.69
641.137	-21.31
641.171	-12.31
641.205	7.69
641.239	-9.31
641.273	1.69
641.307	11.69
641.341	3.69
641.375	15.69
641.409	1.69
641.443	5.69
641.477	26.69
641.511	14.69
641.545	2.69
641.579	7.69
641.614	6.69
641.648	12.69
641.682	-0.31
641.716	5.69
641.75	14.69
641.784	5.69
641.818	-15.31
641.852	-9.31
641.886	3.69
641.919	30.69
641.953	5.69
641.987	-21.31
642.021	-8.31
642.055	2.69
642.089	17.69
642.123	-16.31
642.157	-10.31
642.191	-10.31
642.225	1.69
642.259	-7.31
642.293	23.69
642.327	1.69
642.361	12.69
642.395	4.69
642.429	11.69
642.463	13.69
642.497	12.69
642.531	2.69
642.565	2.69
642.599	-2.31
642.633	-11.31
642.666	12.69
642.7	1.69
642.734	6.69
642.768	1.69
642.802	12.69
642.836	6.69
642.87	-0.31
642.904	15.69
642.938	7.69
642.972	0.69
643.005	5.69
643.039	2.69
643.073	-6.31
643.107	5.69
643.141	6.69
643.175	-1.31
643.209	11.69
643.243	13.69
643.276	7.69
643.31	-0.31
643.344	-14.31
643.378	10.69
643.412	12.69
643.446	14.69
643.48	10.69
643.513	8.69
643.547	9.69
643.581	13.69
643.615	13.69
643.649	-11.31
643.683	-12.31
643.716	0.69
643.75	2.69
643.784	-10.31
643.818	19.69
643.852	-0.31
643.886	0.69
643.919	6.69
643.953	-2.31
643.987	1.69
644.021	6.69
644.055	18.69
644.088	0.69
644.122	-5.31
644.156	-9.31
644.19	-9.31
644.224	-4.31
644.257	4.69
644.291	17.69
644.325	3.69
644.359	-12.31
644.392	23.69
644.426	9.69
644.46	-4.31
644.494	6.69
644.527	5.69
644.561	17.69
644.595	-2.31
644.629	0.69
644.662	-5.31
644.696	8.69
644.73	6.69
644.764	23.69
644.797	-4.31
644.831	-2.31
644.865	9.69
644.899	-7.31
644.932	23.69
644.966	13.69
645	1.69
645.033	3.69
645.067	-5.31
645.101	11.69
645.135	6.69
645.168	3.69
645.202	1.69
645.236	2.69
645.269	10.69
645.303	-12.31
645.337	-5.31
645.37	3.69
645.404	-0.31
645.438	-0.31
645.471	5.69
645.505	10.69
645.539	-5.31
645.572	-3.31
645.606	-1.31
645.64	-3.31
645.673	2.69
645.707	25.69
645.741	-1.31
645.774	-4.31
645.808	-0.31
645.842	5.69
645.875	5.69
645.909	-10.31
645.943	-18.31
645.976	6.69
646.01	-1.31
646.043	7.69
646.077	12.69
646.111	-5.31
646.144	7.69
646.178	3.69
646.212	-7.31
646.245	-9.31
646.279	9.69
646.312	13.69
646.346	13.69
646.38	-8.31
646.413	-6.31
646.447	17.69
646.48	2.69
646.514	-1.31
646.547	4.69
646.581	-0.31
646.615	-8.31
646.648	-10.31
646.682	-18.31
646.715	-8.31
646.749	-1.31
646.782	-4.31
646.816	6.69
646.85	7.69
646.883	-6.31
646.917	15.69
646.95	9.69
646.984	-6.31
647.017	-10.31
647.051	1.69
647.084	6.69
647.118	-14.31
647.151	-1.31
647.185	18.69
647.218	-19.31
647.252	-3.31
647.285	-12.31
647.319	-9.31
647.353	-2.31
647.386	17.69
647.42	7.69
647.453	-15.31
647.487	7.69
647.52	-2.31
647.553	-2.31
647.587	-10.31
647.62	-8.31
647.654	1.69
647.687	8.69
647.721	-8.31
647.754	-0.31
647.788	-10.31
647.821	-11.31
647.855	16.69
647.888	17.69
647.922	20.69
647.955	-5.31
647.989	-3.31
648.022	-3.31
648.055	9.69
648.089	4.69
648.122	14.69
648.156	-3.31
648.189	-2.31
648.223	2.69
648.256	22.69
648.29	9.69
648.323	7.69
648.356	4.69
648.39	6.69
648.423	17.69
648.457	5.69
648.49	12.69
648.523	11.69
648.557	-24.31
648.59	-10.31
648.624	6.69
648.657	-4.31
648.69	19.69
648.724	16.69
648.757	13.69
648.791	8.69
648.824	-6.31
648.857	22.69
648.891	4.69
648.924	7.69
648.957	26.69
648.991	-2.31
649.024	4.69
649.057	-6.31
649.091	-4.31
649.124	0.69
649.158	13.69
649.191	22.69
649.224	-5.31
649.258	-0.31
649.291	-1.31
649.324	-4.31
649.358	0.69
649.391	19.69
649.424	16.69
649.458	2.69
649.491	6.69
649.524	-1.31
649.557	-6.31
649.591	-5.31
649.624	6.69
649.657	-1.31
649.691	0.69
649.724	4.69
649.757	8.69
649.791	-4.31
649.824	15.69
649.857	5.69
649.89	-5.31
649.924	-5.31
649.957	11.69
649.99	0.69
650.023	-5.31
650.057	-2.31
650.09	11.69
650.123	-6.31
650.157	11.69
650.19	20.69
650.223	0.69
650.256	-24.31
650.29	-11.31
650.323	-2.31
650.356	15.69
650.389	-0.31
650.423	-15.31
650.456	13.69
650.489	0.69
650.522	-6.31
650.555	21.69
650.589	7.69
650.622	5.69
650.655	4.69
650.688	5.69
650.721	-6.31
650.755	-2.31
650.788	0.69
650.821	-6.31
650.854	3.69
650.887	2.69
650.921	0.69
650.954	-1.31
650.987	-5.31
651.02	-11.31
651.053	-22.31
651.087	-14.31
651.12	17.69
651.153	-2.31
651.186	-1.31
651.219	-8.31
651.252	6.69
651.286	19.69
651.319	9.69
651.352	0.69
651.385	3.69
651.418	4.69
651.451	1.69
651.484	4.69
651.518	2.69
651.551	33.69
651.584	-0.31
651.617	20.69
651.65	-8.31
651.683	-0.31
651.716	4.69
651.749	-1.31
651.783	-16.31
651.816	-5.31
651.849	16.69
651.882	-0.31
651.915	-0.31
651.948	0.69
651.981	-4.31
652.014	-4.31
652.047	-0.31
652.08	-26.31
652.114	7.69
652.147	-7.31
652.18	10.69
652.213	22.69
652.246	2.69
652.279	1.69
652.312	2.69
652.345	-3.31
652.378	2.69
652.411	18.69
652.444	11.69
652.477	10.69
652.51	8.69
652.543	-7.31
652.576	20.69
652.609	-5.31
652.642	-1.31
652.675	10.69
652.709	2.69
652.742	5.69
652.775	-1.31
652.808	-5.31
652.841	18.69
652.874	13.69
652.907	-0.31
652.94	-10.31
652.973	-19.31
653.006	-7.31
653.039	-8.31
653.072	0.69
653.105	2.69
653.138	-8.31
653.171	-1.31
653.204	-2.31
653.237	11.69
653.27	-5.31
653.303	15.69
653.336	11.69
653.368	-13.31
653.401	-1.31
653.434	-2.31
653.467	4.69
653.5	-26.31
653.533	-31.31
653.566	18.69
653.599	-5.31
653.632	-9.31
653.665	1.69
653.698	-0.31
653.731	-6.31
653.764	19.69
653.797	-10.31
653.83	9.69
653.863	-6.31
653.896	6.69
653.929	5.69
653.961	-10.31
653.994	2.69
654.027	-2.31
654.06	16.69
654.093	0.69
654.126	2.69
654.159	-9.31
654.192	-9.31
654.225	11.69
654.258	5.69
654.29	2.69
654.323	-1.31
654.356	-17.31
654.389	1.69
654.422	0.69
654.455	-11.31
654.488	16.69
654.521	-14.31
654.553	-6.31
654.586	0.69
654.619	1.69
654.652	-7.31
654.685	9.69
654.718	8.69
654.751	15.69
654.783	-1.31
654.816	26.69
654.849	-3.31
654.882	-6.31
654.915	-16.31
654.948	-0.31
654.98	-1.31
655.013	-0.31
655.046	-18.31
655.079	-20.31
655.112	15.69
655.144	-21.31
655.177	-5.31
655.21	-8.31
655.243	20.69
655.276	2.69
655.308	-1.31
655.341	-3.31
655.374	17.69
655.407	-7.31
655.44	-2.31
655.472	24.69
655.505	5.69
655.538	-17.31
655.571	-0.31
655.603	5.69
655.636	-5.31
655.669	-0.31
655.702	-2.31
655.734	-8.31
655.767	-29.31
655.8	0.69
655.833	10.69
655.865	-0.31
655.898	-14.31
655.931	0.69
655.964	-2.31
655.996	-1.31
656.029	10.69
656.062	-7.31
656.095	-15.31
656.127	-18.31
656.16	5.69
656.193	10.69
656.225	5.69
656.258	7.69
656.291	9.69
656.324	7.69
656.356	7.69
656.389	1.69
656.422	3.69
656.454	-6.31
656.487	15.69
656.52	8.69
656.552	-8.31
656.585	-2.31
656.618	21.69
656.65	13.69
656.683	-10.31
656.716	-3.31
656.748	6.69
656.781	4.69
656.814	1.69
656.846	0.69
656.879	0.69
656.912	15.69
656.944	-19.31
656.977	-14.31
657.01	2.69
657.042	18.69
657.075	-1.31
657.108	-0.31
657.14	8.69
657.173	18.69
657.205	25.69
657.238	5.69
657.271	18.69
657.303	-5.31
657.336	1.69
657.369	-1.31
657.401	-4.31
657.434	2.69
657.466	-0.31
657.499	7.69
657.532	-1.31
657.564	-4.31
657.597	-13.31
657.629	8.69
657.662	19.69
657.694	10.69
657.727	-21.31
657.76	2.69
657.792	-4.31
657.825	-4.31
657.857	-1.31
657.89	8.69
657.922	1.69
657.955	-10.31
657.987	-12.31
658.02	28.69
658.053	13.69
658.085	0.69
658.118	-0.31
658.15	17.69
658.183	-2.31
658.215	-0.31
658.248	-16.31
658.28	7.69
658.313	9.69
658.345	9.69
658.378	2.69
658.41	5.69
658.443	11.69
658.475	5.69
658.508	-2.31
658.54	0.69
658.573	-8.31
658.605	-8.31
658.638	1.69
658.67	-14.31
658.703	-3.31
658.735	-10.31
658.768	1.69
658.8	-12.31
658.833	5.69
658.865	11.69
658.898	7.69
658.93	-12.31
658.963	-1.31
658.995	-16.31
659.028	-2.31
659.06	-5.31
659.092	4.69
659.125	-11.31
659.157	-0.31
659.19	-10.31
659.222	-15.31
659.255	8.69
659.287	0.69
659.32	4.69
659.352	-7.31
659.384	14.69
659.417	-2.31
659.449	-1.31
659.482	8.69
659.514	-2.31
659.546	-2.31
659.579	-19.31
659.611	-11.31
659.644	-0.31
659.676	-3.31
659.708	-19.31
659.741	-16.31
659.773	1.69
659.806	-2.31
659.838	3.69
659.87	-0.31
659.903	-6.31
659.935	9.69
659.967	21.69
660	2.69
660.032	-26.31
660.065	0.69
660.097	7.69
660.129	-1.31
660.162	-15.31
660.194	10.69
660.226	-4.31
660.259	19.69
660.291	0.69
660.323	-8.31
660.356	-5.31
660.388	-7.31
660.42	-2.31
660.453	14.69
660.485	-2.31
660.517	6.69
660.55	8.69
660.582	-4.31
660.614	10.69
660.647	16.69
660.679	4.69
660.711	-2.31
660.743	-12.31
660.776	-0.31
660.808	-6.31
660.84	-9.31
660.873	2.69
660.905	5.69
660.937	2.69
660.969	6.69
661.002	6.69
661.034	18.69
661.066	6.69
661.099	-4.31
661.131	12.69
661.163	-0.31
661.195	8.69
661.228	23.69
661.26	5.69
661.292	-1.31
661.324	5.69
661.357	5.69
661.389	13.69
661.421	19.69
661.453	-2.31
661.485	9.69
661.518	6.69
661.55	-2.31
661.582	-15.31
661.614	-2.31
661.647	7.69
661.679	-2.31
661.711	11.69
661.743	4.69
661.775	4.69
661.808	22.69
661.84	0.69
661.872	6.69
661.904	-11.31
661.936	-13.31
661.969	-5.31
662.001	7.69
662.033	8.69
662.065	4.69
662.097	2.69
662.129	-3.31
662.162	-5.31
662.194	-2.31
662.226	4.69
662.258	4.69
662.29	-12.31
662.322	-5.31
662.355	-11.31
662.387	11.69
662.419	8.69
662.451	8.69
662.483	29.69
662.515	3.69
662.547	5.69
662.58	11.69
662.612	5.69
662.644	-15.31
662.676	-3.31
662.708	0.69
662.74	-14.31
662.772	-0.31
662.804	2.69
662.836	10.69
662.869	-1.31
662.901	12.69
662.933	0.69
662.965	22.69
662.997	-1.31
663.029	-4.31
663.061	4.69
663.093	3.69
663.125	2.69
663.157	1.69
663.189	-4.31
663.221	5.69
663.254	4.69
663.286	10.69
663.318	2.69
663.35	1.69
663.382	-4.31
663.414	-0.31
663.446	-9.31
663.478	0.69
663.51	7.69
663.542	-5.31
663.574	3.69
663.606	3.69
663.638	-8.31
663.67	5.69
663.702	6.69
663.734	-14.31
663.766	-0.31
663.798	-5.31
663.83	-5.31
663.862	-5.31
663.894	10.69
663.926	5.69
663.958	13.69
663.99	6.69
664.022	-18.31
664.054	11.69
664.086	-17.31
664.118	-10.31
664.15	-9.31
664.182	2.69
664.214	-10.31
664.246	-5.31
664.278	10.69
664.31	3.69
664.342	-8.31
664.374	-2.31
664.406	-2.31
664.438	-17.31
664.47	5.69
664.502	0.69
664.534	5.69
664.566	-10.31
664.598	-1.31
664.63	-8.31
664.662	-5.31
664.693	6.69
664.725	-5.31
664.757	-1.31
664.789	-4.31
664.821	5.69
664.853	12.69
664.885	0.69
664.917	0.69
664.949	10.69
664.981	5.69
665.013	-10.31
665.045	-19.31
665.076	-6.31
665.108	-6.31
665.14	4.69
665.172	4.69
665.204	3.69
665.236	-3.31
665.268	8.69
665.3	-11.31
665.331	-13.31
665.363	6.69
665.395	0.69
665.427	-2.31
665.459	-3.31
665.491	-11.31
665.523	-1.31
665.555	-2.31
665.586	15.69
665.618	-7.31
665.65	-3.31
665.682	-6.31
665.714	-3.31
665.746	0.69
665.777	14.69
665.809	-0.31
665.841	9.69
665.873	0.69
665.905	9.69
665.937	24.69
665.968	9.69
666	8.69
666.032	7.69
666.064	-2.31
666.096	3.69
666.127	-1.31
666.159	-3.31
666.191	15.69
666.223	-0.31
666.255	8.69
666.286	-0.31
666.318	-6.31
666.35	1.69
666.382	7.69
666.413	10.69
666.445	-26.31
666.477	-23.31
666.509	-3.31
666.54	3.69
666.572	0.69
666.604	6.69
666.636	-3.31
666.667	21.69
666.699	13.69
666.731	6.69
666.763	-9.31
666.794	-0.31
666.826	-9.31
666.858	-12.31
666.89	3.69
666.921	12.69
666.953	7.69
666.985	11.69
667.017	14.69
667.048	-6.31
667.08	-9.31
667.112	-0.31
667.143	-16.31
667.175	19.69
667.207	-8.31
667.238	1.69
667.27	6.69
667.302	5.69
667.334	-6.31
667.365	16.69
667.397	-1.31
667.429	4.69
667.46	1.69
667.492	3.69
667.524	-9.31
667.555	-5.31
667.587	7.69
667.619	-1.31
667.65	-15.31
667.682	8.69
667.714	10.69
667.745	2.69
667.777	0.69
667.808	-7.31
667.84	-8.31
667.872	-4.31
667.903	23.69
667.935	-14.31
667.967	-13.31
667.998	-2.31
668.03	-9.31
668.061	12.69
668.093	8.69
668.125	16.69
668.156	11.69
668.188	-11.31
668.22	-12.31
668.251	15.69
668.283	6.69
668.314	7.69
668.346	2.69
668.377	21.69
668.409	7.69
668.441	10.69
668.472	8.69
668.504	18.69
668.535	11.69
668.567	17.69
668.599	-2.31
668.63	-4.31
668.662	18.69
668.693	20.69
668.725	4.69
668.756	4.69
668.788	3.69
668.819	8.69
668.851	-0.31
668.882	-9.31
668.914	-4.31
668.946	-10.31
668.977	-1.31
669.009	-3.31
669.04	-1.31
669.072	3.69
669.103	3.69
669.135	-7.31
669.166	3.69
669.198	-6.31
669.229	-4.31
669.261	-7.31
669.292	-6.31
669.324	4.69
669.355	-1.31
669.387	-12.31
669.418	12.69
669.45	1.69
669.481	0.69
669.513	-3.31
669.544	5.69
669.576	6.69
669.607	-11.31
669.639	8.69
669.67	-16.31
669.701	12.69
669.733	-11.31
669.764	-17.31
669.796	12.69
669.827	-3.31
669.859	0.69
669.89	1.69
669.922	5.69
669.953	5.69
669.985	13.69
670.016	8.69
670.047	3.69
670.079	-9.31
670.11	-5.31
670.142	-7.31
670.173	2.69
670.204	7.69
670.236	-2.31
670.267	-4.31
670.299	-11.31
670.33	11.69
670.362	13.69
670.393	-4.31
670.424	4.69
670.456	0.69
670.487	7.69
670.518	4.69
670.55	-9.31
670.581	6.69
670.613	12.69
670.644	-13.31
670.675	-2.31
670.707	5.69
670.738	-10.31
670.769	-1.31
670.801	-7.31
670.832	4.69
670.864	-13.31
670.895	21.69
670.926	-4.31
670.958	-4.31
670.989	6.69
671.02	-5.31
671.052	-1.31
671.083	8.69
671.114	-1.31
671.146	2.69
671.177	13.69
671.208	-1.31
671.24	-11.31
671.271	-7.31
671.302	10.69
671.333	1.69
671.365	-10.31
671.396	-10.31
671.427	6.69
671.459	5.69
671.49	-5.31
671.521	-2.31
671.553	6.69
671.584	4.69
671.615	2.69
671.646	19.69
671.678	-2.31
671.709	0.69
671.74	-2.31
671.771	-12.31
671.803	-19.31
671.834	-6.31
671.865	-1.31
671.896	1.69
671.928	-4.31
671.959	-12.31
671.99	-4.31
672.021	-6.31
672.053	-3.31
672.084	14.69
672.115	1.69
672.146	-0.31
672.178	-16.31
672.209	10.69
672.24	7.69
672.271	17.69
672.303	0.69
672.334	-6.31
672.365	0.69
672.396	2.69
672.427	0.69
672.459	11.69
672.49	21.69
672.521	9.69
672.552	11.69
672.583	-7.31
672.615	-0.31
672.646	11.69
672.677	-12.31
672.708	-11.31
672.739	-0.31
672.77	18.69
672.802	1.69
672.833	-8.31
672.864	-11.31
672.895	-1.31
672.926	-15.31
672.957	-24.31
672.989	-2.31
673.02	-7.31
673.051	13.69
673.082	3.69
673.113	0.69
673.144	1.69
673.175	0.69
673.206	-1.31
673.238	-4.31
673.269	0.69
673.3	-10.31
673.331	7.69
673.362	-18.31
673.393	-2.31
673.424	-0.31
673.455	24.69
673.487	7.69
673.518	-2.31
673.549	2.69
673.58	2.69
673.611	2.69
673.642	20.69
673.673	-21.31
673.704	5.69
673.735	-5.31
673.766	0.69
673.797	-9.31
673.828	-7.31
673.86	-10.31
673.891	-14.31
673.922	-15.31
673.953	-11.31
673.984	1.69
674.015	3.69
674.046	-10.31
674.077	-12.31
674.108	0.69
674.139	0.69
674.17	-9.31
674.201	-9.31
674.232	-5.31
674.263	3.69
674.294	-0.31
674.325	1.69
674.356	-5.31
674.387	5.69
674.418	15.69
674.449	-4.31
674.48	-2.31
674.511	2.69
674.542	-0.31
674.573	-13.31
674.604	3.69
674.635	4.69
674.666	6.69
674.697	-3.31
674.728	4.69
674.759	2.69
674.79	-10.31
674.821	-9.31
674.852	-7.31
674.883	-12.31
674.914	-4.31
674.945	-13.31
674.976	-4.31
675.007	-6.31
675.038	-6.31
675.069	-15.31
675.1	-3.31
675.131	17.69
675.162	-2.31
675.193	-6.31
675.224	-3.31
675.254	-0.31
675.285	15.69
675.316	10.69
675.347	-17.31
675.378	-24.31
675.409	-3.31
675.44	15.69
675.471	0.69
675.502	-15.31
675.533	2.69
675.564	1.69
675.595	-3.31
675.625	24.69
675.656	17.69
675.687	5.69
675.718	-10.31
675.749	23.69
675.78	8.69
675.811	-17.31
675.842	10.69
675.873	5.69
675.903	-7.31
675.934	-0.31
675.965	-1.31
675.996	-11.31
676.027	-2.31
676.058	-11.31
676.089	-13.31
676.119	2.69
676.15	0.69
676.181	3.69
676.212	-0.31
676.243	13.69
676.274	10.69
676.304	20.69
676.335	-10.31
676.366	-6.31
676.397	-2.31
676.428	-8.31
676.459	8.69
676.489	4.69
676.52	5.69
676.551	1.69
676.582	-3.31
676.613	6.69
676.643	-4.31
676.674	20.69
676.705	6.69
676.736	3.69
676.767	9.69
676.797	5.69
676.828	-8.31
676.859	5.69
676.89	0.69
676.92	4.69
676.951	8.69
676.982	7.69
677.013	7.69
677.044	18.69
677.074	19.69
677.105	-1.31
677.136	13.69
677.167	0.69
677.197	17.69
677.228	-11.31
677.259	-13.31
677.289	-4.31
677.32	-0.31
677.351	-1.31
677.382	-6.31
677.412	7.69
677.443	-2.31
677.474	3.69
677.505	-21.31
677.535	-9.31
677.566	6.69
677.597	-7.31
677.627	2.69
677.658	-6.31
677.689	-5.31
677.72	0.69
677.75	-17.31
677.781	10.69
677.812	3.69
677.842	8.69
677.873	2.69
677.904	11.69
677.934	8.69
677.965	0.69
677.996	-17.31
678.026	-0.31
678.057	-6.31
678.088	-23.31
678.118	0.69
678.149	-16.31
678.18	-22.31
678.21	-0.31
678.241	-8.31
678.272	-2.31
678.302	-0.31
678.333	3.69
678.363	2.69
678.394	-10.31
678.425	6.69
678.455	9.69
678.486	5.69
678.517	4.69
678.547	-2.31
678.578	-6.31
678.608	-24.31
678.639	5.69
678.67	13.69
678.7	-4.31
678.731	2.69
678.761	-3.31
678.792	4.69
678.823	9.69
678.853	6.69
678.884	-11.31
678.914	0.69
678.945	-1.31
678.975	-10.31
679.006	0.69
679.037	3.69
679.067	7.69
679.098	-10.31
679.128	-9.31
679.159	-11.31
679.189	3.69
679.22	-18.31
679.25	-3.31
679.281	-17.31
679.312	-3.31
679.342	-2.31
679.373	11.69
679.403	11.69
679.434	-2.31
679.464	0.69
679.495	13.69
679.525	1.69
679.556	-7.31
679.586	-3.31
679.617	3.69
679.647	16.69
679.678	2.69
679.708	3.69
679.739	11.69
679.769	2.69
679.8	-10.31
679.83	-23.31
679.861	0.69
679.891	-2.31
679.922	-15.31
679.952	10.69
679.983	8.69
680.013	8.69
680.044	-2.31
680.074	1.69
680.105	2.69
680.135	6.69
680.165	3.69
680.196	15.69
680.226	10.69
680.257	9.69
680.287	2.69
680.318	14.69
680.348	-8.31
680.379	17.69
680.409	17.69
680.439	-13.31
680.47	-0.31
680.5	7.69
680.531	15.69
680.561	23.69
680.592	13.69
680.622	12.69
680.652	1.69
680.683	25.69
680.713	-11.31
680.744	-5.31
680.774	-6.31
680.804	11.69
680.835	-0.31
680.865	-8.31
680.896	17.69
680.926	-6.31
680.956	5.69
680.987	10.69
681.017	-6.31
681.047	0.69
681.078	-25.31
681.108	-2.31
681.139	1.69
681.169	5.69
681.199	-9.31
681.23	2.69
681.26	1.69
681.29	0.69
681.321	-9.31
681.351	3.69
681.381	-17.31
681.412	3.69
681.442	3.69
681.472	8.69
681.503	6.69
681.533	3.69
681.563	-12.31
681.594	-0.31
681.624	18.69
681.654	-0.31
681.685	-4.31
681.715	-3.31
681.745	-8.31
681.775	-30.31
681.806	5.69
681.836	17.69
681.866	-12.31
681.897	-4.31
681.927	18.69
681.957	-19.31
681.987	18.69
682.018	0.69
682.048	11.69
682.078	1.69
682.109	11.69
682.139	19.69
682.169	-7.31
682.199	-8.31
682.23	-6.31
682.26	-9.31
682.29	-11.31
682.32	-5.31
682.351	9.69
682.381	-7.31
682.411	1.69
682.441	2.69
682.472	-8.31
682.502	1.69
682.532	1.69
682.562	3.69
682.592	17.69
682.623	8.69
682.653	7.69
682.683	-7.31
682.713	19.69
682.743	-6.31
682.774	-1.31
682.804	-7.31
682.834	26.69
682.864	-2.31
682.894	-5.31
682.925	-7.31
682.955	-10.31
682.985	-8.31
683.015	12.69
683.045	16.69
683.076	0.69
683.106	1.69
683.136	-8.31
683.166	-18.31
683.196	-3.31
683.226	-10.31
683.257	-0.31
683.287	-0.31
683.317	-6.31
683.347	1.69
683.377	3.69
683.407	3.69
683.437	5.69
683.468	11.69
683.498	-4.31
683.528	-10.31
683.558	0.69
683.588	-1.31
683.618	-7.31
683.648	-2.31
683.678	-2.31
683.708	0.69
683.739	5.69
683.769	0.69
683.799	5.69
683.829	0.69
683.859	5.69
683.889	16.69
683.919	-1.31
683.949	-13.31
683.979	-2.31
684.009	-6.31
684.039	-1.31
684.07	-12.31
684.1	26.69
684.13	6.69
684.16	3.69
684.19	-3.31
684.22	-15.31
684.25	-7.31
684.28	-15.31
684.31	15.69
684.34	13.69
684.37	-4.31
684.4	-6.31
684.43	9.69
684.46	0.69
684.49	1.69
684.52	6.69
684.55	2.69
684.58	-3.31
684.61	10.69
684.64	19.69
684.67	22.69
684.7	4.69
684.73	8.69
684.76	-0.31
684.79	9.69
684.82	3.69
684.85	-3.31
684.88	4.69
684.91	7.69
684.94	-12.31
684.97	-4.31
685	1.69
685.03	-18.31
685.06	-13.31
685.09	-0.31
685.12	26.69
685.15	-2.31
685.18	8.69
685.21	3.69
685.24	8.69
685.27	11.69
685.3	9.69
685.33	7.69
685.36	-0.31
685.39	-5.31
685.42	-5.31
685.45	-10.31
685.48	13.69
685.51	-12.31
685.54	9.69
685.569	2.69
685.599	6.69
685.629	7.69
685.659	14.69
685.689	-1.31
685.719	-6.31
685.749	-12.31
685.779	5.69
685.809	14.69
685.839	5.69
685.869	-8.31
685.898	8.69
685.928	0.69
685.958	8.69
685.988	11.69
686.018	1.69
686.048	13.69
686.078	11.69
686.108	20.69
686.137	-6.31
686.167	3.69
686.197	-10.31
686.227	7.69
686.257	12.69
686.287	10.69
686.317	1.69
686.346	-11.31
686.376	-20.31
686.406	-7.31
686.436	-1.31
686.466	5.69
686.496	7.69
686.525	3.69
686.555	13.69
686.585	25.69
686.615	34.69
686.645	22.69
686.675	0.69
686.704	-8.31
686.734	10.69
686.764	1.69
686.794	-8.31
686.824	3.69
686.853	13.69
686.883	4.69
686.913	0.69
686.943	-18.31
686.973	2.69
687.002	-14.31
687.032	9.69
687.062	4.69
687.092	11.69
687.121	-2.31
687.151	13.69
687.181	10.69
687.211	12.69
687.24	1.69
687.27	-6.31
687.3	-6.31
687.33	4.69
687.359	-23.31
687.389	13.69
687.419	13.69
687.449	-5.31
687.478	3.69
687.508	-9.31
687.538	20.69
687.568	21.69
687.597	-9.31
687.627	6.69
687.657	10.69
687.686	17.69
687.716	23.69
687.746	-8.31
687.776	-7.31
687.805	-10.31
687.835	4.69
687.865	15.69
687.894	1.69
687.924	2.69
687.954	4.69
687.983	14.69
688.013	6.69
688.043	9.69
688.072	-2.31
688.102	24.69
688.132	9.69
688.161	11.69
688.191	-1.31
688.221	3.69
688.25	-8.31
688.28	11.69
688.31	-3.31
688.339	8.69
688.369	-9.31
688.399	-26.31
688.428	-12.31
688.458	5.69
688.488	6.69
688.517	11.69
688.547	-3.31
688.576	22.69
688.606	6.69
688.636	-8.31
688.665	9.69
688.695	6.69
688.725	-0.31
688.754	2.69
688.784	8.69
688.813	0.69
688.843	3.69
688.873	4.69
688.902	2.69
688.932	-1.31
688.961	-0.31
688.991	9.69
689.02	32.69
689.05	5.69
689.08	21.69
689.109	18.69
689.139	-4.31
689.168	3.69
689.198	-3.31
689.227	9.69
689.257	6.69
689.287	11.69
689.316	1.69
689.346	0.69
689.375	-10.31
689.405	10.69
689.434	1.69
689.464	-3.31
689.493	-0.31
689.523	3.69
689.552	-14.31
689.582	1.69
689.611	-3.31
689.641	14.69
689.67	6.69
689.7	8.69
689.73	17.69
689.759	-0.31
689.789	10.69
689.818	7.69
689.848	2.69
689.877	23.69
689.906	-1.31
689.936	-3.31
689.965	24.69
689.995	24.69
690.024	2.69
690.054	3.69
690.083	7.69
690.113	0.69
690.142	-2.31
690.172	9.69
690.201	2.69
690.231	-14.31
690.26	8.69
690.29	4.69
690.319	13.69
690.348	-0.31
690.378	6.69
690.407	14.69
690.437	-1.31
690.466	-7.31
690.496	-1.31
690.525	6.69
690.555	-2.31
690.584	-8.31
690.613	-7.31
690.643	8.69
690.672	13.69
690.702	3.69
690.731	9.69
690.76	32.69
690.79	56.69
690.819	44.69
690.849	32.69
690.878	24.69
690.907	36.69
690.937	24.69
690.966	9.69
690.996	11.69
691.025	0.69
691.054	9.69
691.084	1.69
691.113	2.69
691.142	5.69
691.172	3.69
691.201	10.69
691.23	3.69
691.26	25.69
691.289	10.69
691.319	0.69
691.348	5.69
691.377	25.69
691.407	25.69
691.436	16.69
691.465	0.69
691.495	-1.31
691.524	4.69
691.553	-22.31
691.583	-10.31
691.612	22.69
691.641	-0.31
691.67	1.69
691.7	9.69
691.729	-2.31
691.758	6.69
691.788	1.69
691.817	6.69
691.846	-2.31
691.876	4.69
691.905	0.69
691.934	1.69
691.963	16.69
691.993	0.69
692.022	-6.31
692.051	-8.31
692.081	1.69
692.11	5.69
692.139	12.69
692.168	13.69
692.198	22.69
692.227	10.69
692.256	2.69
692.285	-0.31
692.315	7.69
692.344	16.69
692.373	-1.31
692.402	5.69
692.432	-0.31
692.461	8.69
692.49	-6.31
692.519	11.69
692.548	9.69
692.578	16.69
692.607	-3.31
692.636	-2.31
692.665	14.69
692.694	-4.31
692.724	2.69
692.753	16.69
692.782	12.69
692.811	-9.31
692.84	2.69
692.87	26.69
692.899	0.69
692.928	-4.31
692.957	-0.31
692.986	2.69
693.016	2.69
693.045	3.69
693.074	-5.31
693.103	-14.31
693.132	-3.31
693.161	0.69
693.191	0.69
693.22	0.69
693.249	-0.31
693.278	-8.31
693.307	12.69
693.336	-7.31
693.365	-16.31
693.395	3.69
693.424	-0.31
693.453	5.69
693.482	-0.31
693.511	14.69
693.54	3.69
693.569	-7.31
693.598	-15.31
693.628	9.69
693.657	8.69
693.686	7.69
693.715	13.69
693.744	-0.31
693.773	26.69
693.802	10.69
693.831	-11.31
693.86	24.69
693.889	-1.31
693.919	8.69
693.948	2.69
693.977	6.69
694.006	13.69
694.035	8.69
694.064	-1.31
694.093	-7.31
694.122	2.69
694.151	-5.31
694.18	-6.31
694.209	8.69
694.238	16.69
694.267	26.69
694.296	8.69
694.325	8.69
694.354	26.69
694.383	5.69
694.412	5.69
694.441	-12.31
694.471	-19.31
694.5	-17.31
694.529	17.69
694.558	37.69
694.587	16.69
694.616	2.69
694.645	3.69
694.674	14.69
694.703	19.69
694.732	-2.31
694.761	20.69
694.79	22.69
694.819	2.69
694.848	4.69
694.877	12.69
694.906	25.69
694.935	8.69
694.963	20.69
694.992	23.69
695.021	9.69
695.05	18.69
695.079	-2.31
695.108	11.69
695.137	16.69
695.166	4.69
695.195	-6.31
695.224	14.69
695.253	21.69
695.282	2.69
695.311	-5.31
695.34	-2.31
695.369	0.69
695.398	4.69
695.427	14.69
695.456	-11.31
695.485	7.69
695.513	7.69
695.542	7.69
695.571	14.69
695.6	10.69
695.629	4.69
695.658	-0.31
695.687	1.69
695.716	10.69
695.745	27.69
695.774	-11.31
695.802	-5.31
695.831	3.69
695.86	8.69
695.889	10.69
695.918	-8.31
695.947	5.69
695.976	5.69
696.005	9.69
696.033	13.69
696.062	7.69
696.091	-0.31
696.12	-6.31
696.149	18.69
696.178	13.69
696.207	9.69
696.235	-11.31
696.264	20.69
696.293	3.69
696.322	12.69
696.351	10.69
696.38	-7.31
696.408	5.69
696.437	-4.31
696.466	23.69
696.495	13.69
696.524	7.69
696.553	13.69
696.581	11.69
696.61	-2.31
696.639	-6.31
696.668	1.69
696.697	-5.31
696.725	6.69
696.754	15.69
696.783	3.69
696.812	-8.31
696.84	4.69
696.869	-0.31
696.898	0.69
696.927	-9.31
696.956	20.69
696.984	-8.31
697.013	-2.31
697.042	4.69
697.071	8.69
697.099	9.69
697.128	-2.31
697.157	1.69
697.186	-1.31
697.214	-0.31
697.243	3.69
697.272	-2.31
697.301	8.69
697.329	11.69
697.358	14.69
697.387	8.69
697.415	14.69
697.444	14.69
697.473	5.69
697.502	-7.31
697.53	6.69
697.559	-0.31
697.588	13.69
697.616	-1.31
697.645	-10.31
697.674	16.69
697.703	6.69
697.731	14.69
697.76	35.69
697.789	1.69
697.817	0.69
697.846	20.69
697.875	-2.31
697.903	7.69
697.932	18.69
697.961	14.69
697.989	15.69
698.018	0.69
698.047	-9.31
698.075	14.69
698.104	-0.31
698.133	14.69
698.161	3.69
698.19	13.69
698.218	-7.31
698.247	11.69
698.276	8.69
698.304	10.69
698.333	17.69
698.362	15.69
698.39	15.69
698.419	20.69
698.447	-4.31
698.476	-2.31
698.505	11.69
698.533	16.69
698.562	-0.31
698.591	6.69
698.619	-4.31
698.648	7.69
698.676	10.69
698.705	-6.31
698.733	1.69
698.762	19.69
698.791	10.69
698.819	0.69
698.848	-3.31
698.876	-0.31
698.905	12.69
698.933	20.69
698.962	14.69
698.991	-0.31
699.019	7.69
699.048	-1.31
699.076	17.69
699.105	-6.31
699.133	-5.31
699.162	-3.31
699.19	7.69
699.219	8.69
699.248	11.69
699.276	-4.31
699.305	6.69
699.333	20.69
699.362	-1.31
699.39	3.69
699.419	15.69
699.447	9.69
699.476	7.69
699.504	5.69
699.533	2.69
699.561	-7.31
699.59	3.69
699.618	9.69
699.647	-10.31
699.675	9.69
699.704	2.69
699.732	-15.31
699.761	5.69
699.789	9.69
699.818	6.69
699.846	4.69
699.874	18.69
699.903	15.69
699.931	1.69
699.96	-1.31
699.988	16.69
700.017	-1.31
700.045	3.69
700.074	17.69
700.102	-6.31
700.13	-5.31
700.159	-2.31
700.187	13.69
700.216	-1.31
700.244	-3.31
700.273	0.69
700.301	7.69
700.329	8.69
700.358	17.69
700.386	-4.31
700.415	-1.31
700.443	9.69
700.472	9.69
700.5	4.69
700.528	0.69
700.557	13.69
700.585	6.69
700.614	-13.31
700.642	1.69
700.67	17.69
700.699	2.69
700.727	-9.31
700.755	-2.31
700.784	13.69
700.812	3.69
700.841	3.69
700.869	-8.31
700.897	-12.31
700.926	-5.31
700.954	2.69
700.982	2.69
701.011	-0.31
701.039	20.69
701.067	1.69
701.096	-5.31
701.124	-21.31
701.152	10.69
701.181	-2.31
701.209	5.69
701.237	-9.31
701.266	-12.31
701.294	-10.31
701.322	9.69
701.351	17.69
701.379	4.69
701.407	4.69
701.435	3.69
701.464	5.69
701.492	21.69
701.52	1.69
701.549	3.69
701.577	-3.31
701.605	-1.31
701.634	-9.31
701.662	19.69
701.69	-0.31
701.718	-12.31
701.747	5.69
701.775	7.69
701.803	-9.31
701.831	0.69
701.86	12.69
701.888	14.69
701.916	1.69
701.944	4.69
701.973	-10.31
702.001	-11.31
702.029	-5.31
702.057	-1.31
702.086	-7.31
702.114	-15.31
702.142	10.69
702.17	-2.31
702.199	12.69
702.227	-15.31
702.255	1.69
702.283	2.69
702.311	5.69
702.34	-1.31
702.368	-1.31
702.396	1.69
702.424	-10.31
702.452	-4.31
702.481	-5.31
702.509	-6.31
702.537	11.69
702.565	9.69
702.593	-11.31
702.621	10.69
702.65	8.69
702.678	4.69
702.706	-3.31
702.734	4.69
702.762	15.69
702.79	-1.31
702.819	0.69
702.847	9.69
702.875	12.69
702.903	14.69
702.931	-7.31
702.959	5.69
702.988	6.69
703.016	-12.31
703.044	-7.31
703.072	-2.31
703.1	1.69
703.128	4.69
703.156	5.69
703.184	-1.31
703.212	17.69
703.241	17.69
703.269	11.69
703.297	10.69
703.325	-2.31
703.353	-4.31
703.381	5.69
703.409	16.69
703.437	-4.31
703.465	-7.31
703.493	9.69
703.522	-6.31
703.55	7.69
703.578	11.69
703.606	-9.31
703.634	-9.31
703.662	-5.31
703.69	-5.31
703.718	14.69
703.746	27.69
703.774	10.69
703.802	10.69
703.83	11.69
703.858	-2.31
703.886	-5.31
703.914	2.69
703.942	15.69
703.97	1.69
703.998	-13.31
704.027	19.69
704.055	7.69
704.083	9.69
704.111	-6.31
704.139	-3.31
704.167	-4.31
704.195	-2.31
704.223	-7.31
704.251	1.69
704.279	10.69
704.307	2.69
704.335	-0.31
704.363	1.69
704.391	1.69
704.419	-7.31
704.447	-22.31
704.475	7.69
704.503	-20.31
704.531	5.69
704.558	16.69
704.586	1.69
704.614	5.69
704.642	-9.31
704.67	-18.31
704.698	3.69
704.726	7.69
704.754	5.69
704.782	-2.31
704.81	0.69
704.838	21.69
704.866	13.69
704.894	-17.31
704.922	-12.31
704.95	21.69
704.978	19.69
705.006	4.69
705.034	10.69
705.061	-4.31
705.089	-2.31
705.117	-17.31
705.145	-6.31
705.173	7.69
705.201	8.69
705.229	-1.31
705.257	5.69
705.285	11.69
705.313	10.69
705.34	-11.31
705.368	-13.31
705.396	-15.31
705.424	5.69
705.452	-1.31
705.48	-5.31
705.508	-9.31
705.536	-0.31
705.563	-4.31
705.591	8.69
705.619	-7.31
705.647	-15.31
705.675	3.69
705.703	-6.31
705.731	2.69
705.758	1.69
705.786	11.69
705.814	7.69
705.842	13.69
705.87	19.69
705.898	-0.31
705.925	3.69
705.953	-2.31
705.981	-1.31
706.009	-1.31
706.037	-2.31
706.065	-3.31
706.092	-10.31
706.12	-19.31
706.148	-7.31
706.176	-9.31
706.204	-3.31
706.231	-2.31
706.259	-18.31
706.287	0.69
706.315	-5.31
706.342	-2.31
706.37	19.69
706.398	7.69
706.426	8.69
706.454	-4.31
706.481	19.69
706.509	10.69
706.537	-7.31
706.565	-12.31
706.592	10.69
706.62	-2.31
706.648	0.69
706.676	-8.31
706.703	-0.31
706.731	-1.31
706.759	4.69
706.787	12.69
706.814	-5.31
706.842	-1.31
706.87	-1.31
706.897	0.69
706.925	-2.31
706.953	-2.31
706.981	15.69
707.008	15.69
707.036	16.69
707.064	-6.31
707.091	-3.31
707.119	17.69
707.147	-12.31
707.174	-3.31
707.202	12.69
707.23	-9.31
707.258	-6.31
707.285	-10.31
707.313	12.69
707.341	-17.31
707.368	-6.31
707.396	4.69
707.424	18.69
707.451	1.69
707.479	14.69
707.507	-2.31
707.534	0.69
707.562	5.69
707.59	-14.31
707.617	-12.31
707.645	-2.31
707.672	-9.31
707.7	-13.31
707.728	4.69
707.755	2.69
707.783	1.69
707.811	0.69
707.838	-5.31
707.866	-13.31
707.893	3.69
707.921	0.69
707.949	-14.31
707.976	6.69
708.004	-0.31
708.031	-1.31
708.059	-12.31
708.087	3.69
708.114	14.69
708.142	11.69
708.169	-6.31
708.197	-11.31
708.225	4.69
708.252	1.69
708.28	21.69
708.307	21.69
708.335	11.69
708.362	-6.31
708.39	-19.31
708.418	-2.31
708.445	-12.31
708.473	-8.31
708.5	-9.31
708.528	16.69
708.555	-15.31
708.583	-10.31
708.61	-16.31
708.638	5.69
708.665	-1.31
708.693	13.69
708.72	-6.31
708.748	-7.31
708.776	-1.31
708.803	15.69
708.831	-0.31
708.858	4.69
708.886	-18.31
708.913	-7.31
708.941	3.69
708.968	8.69
708.996	-11.31
709.023	23.69
709.051	-9.31
709.078	-7.31
709.105	0.69
709.133	1.69
709.16	6.69
709.188	12.69
709.215	17.69
709.243	10.69
709.27	16.69
709.298	-2.31
709.325	3.69
709.353	9.69
709.38	4.69
709.408	17.69
709.435	11.69
709.462	10.69
709.49	6.69
709.517	2.69
709.545	-16.31
709.572	-0.31
709.6	-0.31
709.627	12.69
709.655	-3.31
709.682	-13.31
709.709	-1.31
709.737	18.69
709.764	4.69
709.792	18.69
709.819	2.69
709.846	-6.31
709.874	5.69
709.901	2.69
709.929	14.69
709.956	18.69
709.983	-11.31
710.011	4.69
710.038	0.69
710.066	29.69
710.093	4.69
710.12	10.69
710.148	5.69
710.175	-2.31
710.202	-8.31
710.23	-13.31
710.257	-1.31
710.284	14.69
710.312	-0.31
710.339	-7.31
710.366	-7.31
710.394	-2.31
710.421	4.69
710.448	-2.31
710.476	-12.31
710.503	-7.31
710.53	4.69
710.558	4.69
710.585	7.69
710.612	-18.31
710.64	-3.31
710.667	-10.31
710.694	-2.31
710.722	-11.31
710.749	-7.31
710.776	1.69
710.804	22.69
710.831	-2.31
710.858	12.69
710.885	-1.31
710.913	0.69
710.94	18.69
710.967	6.69
710.995	3.69
711.022	-9.31
711.049	-5.31
711.076	2.69
711.104	-5.31
711.131	-20.31
711.158	-11.31
711.185	27.69
711.213	-2.31
711.24	4.69
711.267	3.69
711.294	3.69
711.322	7.69
711.349	-3.31
711.376	-5.31
711.403	0.69
711.431	-0.31
711.458	-6.31
711.485	-1.31
711.512	5.69
711.54	-6.31
711.567	3.69
711.594	-1.31
711.621	6.69
711.648	1.69
711.676	-2.31
711.703	14.69
711.73	-9.31
711.757	2.69
711.784	3.69
711.812	0.69
711.839	4.69
711.866	-3.31
711.893	-2.31
711.92	10.69
711.947	0.69
711.975	17.69
712.002	-0.31
712.029	3.69
712.056	9.69
712.083	4.69
712.11	-19.31
712.138	5.69
712.165	9.69
712.192	1.69
712.219	-3.31
712.246	-24.31
712.273	-13.31
712.3	-9.31
712.328	-3.31
712.355	-11.31
712.382	8.69
712.409	21.69
712.436	-0.31
712.463	2.69
712.49	11.69
712.517	-3.31
712.544	4.69
712.572	-6.31
712.599	-3.31
712.626	-10.31
712.653	-2.31
712.68	-13.31
712.707	6.69
712.734	2.69
712.761	-0.31
712.788	2.69
712.815	-4.31
712.842	5.69
712.87	7.69
712.897	0.69
712.924	-2.31
712.951	-1.31
712.978	4.69
713.005	15.69
713.032	10.69
713.059	-4.31
713.086	4.69
713.113	-12.31
713.14	-17.31
713.167	-7.31
713.194	10.69
713.221	9.69
713.248	-0.31
713.275	-27.31
713.302	-14.31
713.329	6.69
713.356	-4.31
713.383	8.69
713.41	6.69
713.437	-14.31
713.464	1.69
713.491	12.69
713.518	2.69
713.545	-3.31
713.572	15.69
713.599	19.69
713.626	5.69
713.653	-3.31
713.68	-2.31
713.707	-14.31
713.734	6.69
713.761	4.69
713.788	1.69
713.815	8.69
713.842	-3.31
713.869	-6.31
713.896	1.69
713.923	14.69
713.95	7.69
713.977	-13.31
714.004	1.69
714.031	12.69
714.058	7.69
714.085	-1.31
714.112	21.69
714.139	3.69
714.165	-6.31
714.192	-3.31
714.219	5.69
714.246	1.69
714.273	5.69
714.3	-4.31
714.327	-3.31
714.354	0.69
714.381	-5.31
714.408	2.69
714.435	-7.31
714.461	4.69
714.488	5.69
714.515	-5.31
714.542	-8.31
714.569	-3.31
714.596	-16.31
714.623	-0.31
714.65	-6.31
714.677	-15.31
714.703	9.69
714.73	-1.31
714.757	6.69
714.784	11.69
714.811	1.69
714.838	-0.31
714.865	-10.31
714.891	7.69
714.918	-5.31
714.945	-8.31
714.972	-6.31
714.999	-12.31
715.026	6.69
715.052	19.69
715.079	10.69
715.106	3.69
715.133	-13.31
715.16	-10.31
715.187	2.69
715.213	4.69
715.24	-4.31
715.267	-11.31
715.294	-11.31
715.321	-10.31
715.347	2.69
715.374	-2.31
715.401	-0.31
715.428	5.69
715.455	-2.31
715.481	-16.31
715.508	6.69
715.535	-10.31
715.562	9.69
715.588	-3.31
715.615	8.69
715.642	8.69
715.669	-0.31
715.695	-6.31
715.722	-14.31
715.749	10.69
715.776	14.69
715.802	-0.31
715.829	0.69
715.856	-12.31
715.883	13.69
715.909	-14.31
715.936	-10.31
715.963	3.69
715.99	-18.31
716.016	-11.31
716.043	0.69
716.07	-17.31
716.096	-14.31
716.123	-0.31
716.15	2.69
716.177	-4.31
716.203	8.69
716.23	-0.31
716.257	18.69
716.283	16.69
716.31	6.69
716.337	2.69
716.363	-5.31
716.39	8.69
716.417	21.69
716.443	-2.31
716.47	17.69
716.497	15.69
716.523	14.69
716.55	13.69
716.577	20.69
716.603	0.69
716.63	-2.31
716.657	8.69
716.683	-17.31
716.71	-4.31
716.737	-4.31
716.763	-3.31
716.79	10.69
716.817	-0.31
716.843	-13.31
716.87	2.69
716.897	7.69
716.923	21.69
716.95	-9.31
716.976	-8.31
717.003	-13.31
717.03	0.69
717.056	6.69
717.083	2.69
717.109	0.69
717.136	13.69
717.163	-9.31
717.189	-0.31
717.216	-8.31
717.242	-3.31
717.269	3.69
717.296	20.69
717.322	10.69
717.349	21.69
717.375	0.69
717.402	-6.31
717.428	4.69
717.455	8.69
717.481	0.69
717.508	16.69
717.535	4.69
717.561	-3.31
717.588	-9.31
717.614	-2.31
717.641	3.69
717.667	-9.31
717.694	8.69
717.72	0.69
717.747	13.69
717.773	-7.31
717.8	-1.31
717.826	0.69
717.853	-9.31
717.88	13.69
717.906	25.69
717.933	-5.31
717.959	-1.31
717.986	-2.31
718.012	-1.31
718.039	5.69
718.065	13.69
718.092	-0.31
718.118	-4.31
718.144	-2.31
718.171	11.69
718.197	3.69
718.224	-1.31
718.25	-3.31
718.277	-1.31
718.303	9.69
718.33	-1.31
718.356	-9.31
718.383	-13.31
718.409	-9.31
718.436	3.69
718.462	2.69
718.489	-11.31
718.515	14.69
718.541	8.69
718.568	16.69
718.594	-1.31
718.621	3.69
718.647	10.69
718.674	13.69
718.7	1.69
718.726	-3.31
718.753	-0.31
718.779	16.69
718.806	-0.31
718.832	-6.31
718.858	12.69
718.885	-4.31
718.911	3.69
718.938	-3.31
718.964	2.69
718.99	22.69
719.017	6.69
719.043	5.69
719.07	6.69
719.096	4.69
719.122	14.69
719.149	0.69
719.175	3.69
719.201	2.69
719.228	4.69
719.254	0.69
719.281	6.69
719.307	13.69
719.333	-10.31
719.36	16.69
719.386	-6.31
719.412	4.69
719.439	5.69
719.465	-6.31
719.491	-11.31
719.518	-2.31
719.544	3.69
719.57	13.69
719.597	-2.31
719.623	-21.31
719.649	-2.31
719.675	2.69
719.702	11.69
719.728	24.69
719.754	-2.31
719.781	3.69
719.807	8.69
719.833	4.69
719.86	-8.31
719.886	-7.31
719.912	-3.31
719.938	-9.31
719.965	-5.31
719.991	-0.31
720.017	0.69
720.044	-3.31
720.07	6.69
720.096	10.69
720.122	-3.31
720.149	-2.31
720.175	11.69
720.201	0.69
720.227	-0.31
720.254	4.69
720.28	1.69
720.306	-7.31
720.332	-2.31
720.359	9.69
720.385	11.69
720.411	-2.31
720.437	5.69
720.463	2.69
720.49	13.69
720.516	-6.31
720.542	-11.31
720.568	6.69
720.595	-7.31
720.621	1.69
720.647	-4.31
720.673	-2.31
720.699	3.69
720.725	-3.31
720.752	15.69
720.778	1.69
720.804	-3.31
720.83	3.69
720.856	-11.31
720.883	-10.31
720.909	2.69
720.935	7.69
720.961	22.69
720.987	19.69
721.013	14.69
721.04	-2.31
721.066	-3.31
721.092	-14.31
721.118	-3.31
721.144	5.69
721.17	-9.31
721.196	-2.31
721.223	-12.31
721.249	-5.31
721.275	6.69
721.301	-2.31
721.327	14.69
721.353	-2.31
721.379	10.69
721.405	10.69
721.432	15.69
721.458	-9.31
721.484	8.69
721.51	-14.31
721.536	8.69
721.562	2.69
721.588	5.69
721.614	-8.31
721.64	-9.31
721.666	2.69
721.693	10.69
721.719	-7.31
721.745	-16.31
721.771	-7.31
721.797	4.69
721.823	5.69
721.849	30.69
721.875	3.69
721.901	-2.31
721.927	2.69
721.953	0.69
721.979	15.69
722.005	12.69
722.031	-11.31
722.057	6.69
722.083	-0.31
722.109	0.69
722.135	-3.31
722.161	18.69
722.187	-5.31
722.214	-9.31
722.24	-6.31
722.266	2.69
722.292	13.69
722.318	5.69
722.344	11.69
722.37	2.69
722.396	19.69
722.422	-2.31
722.448	14.69
722.474	-14.31
722.5	6.69
722.526	17.69
722.552	7.69
722.578	-1.31
722.603	-0.31
722.629	0.69
722.655	7.69
722.681	-4.31
722.707	-2.31
722.733	-19.31
722.759	-9.31
722.785	5.69
722.811	-10.31
722.837	2.69
722.863	8.69
722.889	8.69
722.915	-1.31
722.941	12.69
722.967	9.69
722.993	-3.31
723.019	-3.31
723.045	17.69
723.071	8.69
723.097	-6.31
723.122	-6.31
723.148	-10.31
723.174	-1.31
723.2	-3.31
723.226	-2.31
723.252	11.69
723.278	-2.31
723.304	-0.31
723.33	-0.31
723.356	-11.31
723.381	-18.31
723.407	-8.31
723.433	8.69
723.459	9.69
723.485	-8.31
723.511	17.69
723.537	-6.31
723.563	3.69
723.588	10.69
723.614	14.69
723.64	-15.31
723.666	-4.31
723.692	9.69
723.718	0.69
723.744	-5.31
723.769	4.69
723.795	-2.31
723.821	-3.31
723.847	-11.31
723.873	-6.31
723.899	12.69
723.924	-1.31
723.95	-11.31
723.976	-0.31
724.002	-0.31
724.028	6.69
724.053	2.69
724.079	-6.31
724.105	-1.31
724.131	2.69
724.157	13.69
724.182	1.69
724.208	7.69
724.234	-0.31
724.26	-8.31
724.286	8.69
724.311	-1.31
724.337	-1.31
724.363	2.69
724.389	-1.31
724.415	-13.31
724.44	24.69
724.466	-6.31
724.492	-6.31
724.518	-2.31
724.543	-1.31
724.569	22.69
724.595	2.69
724.621	-22.31
724.646	6.69
724.672	-6.31
724.698	-9.31
724.723	-6.31
724.749	1.69
724.775	2.69
724.801	-3.31
724.826	-5.31
724.852	9.69
724.878	-12.31
724.904	-17.31
724.929	14.69
724.955	5.69
724.981	8.69
725.006	18.69
725.032	6.69
725.058	18.69
725.083	-12.31
725.109	12.69
725.135	-2.31
725.161	8.69
725.186	6.69
725.212	-0.31
725.238	17.69
725.263	-2.31
725.289	-9.31
725.315	-13.31
725.34	-2.31
725.366	-7.31
725.392	-8.31
725.417	16.69
725.443	-13.31
725.468	-1.31
725.494	7.69
725.52	2.69
725.545	7.69
725.571	-5.31
725.597	-7.31
725.622	-10.31
725.648	-15.31
725.674	10.69
725.699	-6.31
725.725	2.69
725.75	25.69
725.776	4.69
725.802	-4.31
725.827	-7.31
725.853	2.69
725.878	-6.31
725.904	-4.31
725.93	3.69
725.955	-6.31
725.981	-19.31
726.006	-7.31
726.032	9.69
726.057	3.69
726.083	-5.31
726.109	4.69
726.134	0.69
726.16	0.69
726.185	5.69
726.211	-31.31
726.236	8.69
726.262	6.69
726.288	14.69
726.313	16.69
726.339	7.69
726.364	5.69
726.39	29.69
726.415	-2.31
726.441	-9.31
726.466	-13.31
726.492	-7.31
726.517	15.69
726.543	-3.31
726.568	-1.31
726.594	1.69
726.619	-2.31
726.645	17.69
726.67	16.69
726.696	2.69
726.721	2.69
726.747	-14.31
726.772	9.69
726.798	-9.31
726.823	-1.31
726.849	13.69
726.874	10.69
726.9	30.69
726.925	9.69
726.951	6.69
726.976	17.69
727.002	12.69
727.027	-5.31
727.053	18.69
727.078	-6.31
727.104	-4.31
727.129	-9.31
727.155	-14.31
727.18	6.69
727.205	-0.31
727.231	-0.31
727.256	1.69
727.282	-0.31
727.307	6.69
727.333	-4.31
727.358	3.69
727.383	-13.31
727.409	-23.31
727.434	6.69
727.46	10.69
727.485	8.69
727.511	11.69
727.536	1.69
727.561	-0.31
727.587	-8.31
727.612	1.69
727.637	3.69
727.663	-2.31
727.688	18.69
727.714	-14.31
727.739	-17.31
727.764	1.69
727.79	20.69
727.815	12.69
727.841	17.69
727.866	22.69
727.891	13.69
727.917	-19.31
727.942	-6.31
727.967	-2.31
727.993	-3.31
728.018	-8.31
728.043	-25.31
728.069	2.69
728.094	16.69
728.119	1.69
728.145	28.69
728.17	4.69
728.195	10.69
728.221	9.69
728.246	3.69
728.271	-3.31
728.297	6.69
728.322	0.69
728.347	9.69
728.373	2.69
728.398	-0.31
728.423	3.69
728.448	12.69
728.474	1.69
728.499	4.69
728.524	-10.31
728.55	1.69
728.575	1.69
728.6	17.69
728.625	1.69
728.651	-1.31
728.676	7.69
728.701	-7.31
728.727	-1.31
728.752	-5.31
728.777	4.69
728.802	9.69
728.828	22.69
728.853	10.69
728.878	-11.31
728.903	-15.31
728.929	-10.31
728.954	-6.31
728.979	19.69
729.004	0.69
729.03	-20.31
729.055	2.69
729.08	-14.31
729.105	-2.31
729.13	7.69
729.156	-0.31
729.181	-9.31
729.206	-8.31
729.231	6.69
729.256	6.69
729.282	-3.31
729.307	-13.31
729.332	-3.31
729.357	-2.31
729.382	2.69
729.408	-0.31
729.433	13.69
729.458	-1.31
729.483	27.69
729.508	21.69
729.533	9.69
729.559	-6.31
729.584	-3.31
729.609	10.69
729.634	9.69
729.659	4.69
729.684	-8.31
729.71	19.69
729.735	10.69
729.76	0.69
729.785	13.69
729.81	28.69
729.835	5.69
729.86	-9.31
729.886	2.69
729.911	22.69
729.936	10.69
729.961	33.69
729.986	35.69
730.011	77.69
730.036	214.69
730.061	988.69
730.086	2685.69
730.112	3442.69
730.137	2865.69
730.162	2143.69
730.187	1665.69
730.212	1261.69
730.237	812.69
730.262	466.69
730.287	258.69
730.312	132.69
730.337	69.69
730.362	76.69
730.387	24.69
730.413	0.69
730.438	5.69
730.463	20.69
730.488	15.69
730.513	12.69
730.538	8.69
730.563	34.69
730.588	13.69
730.613	8.69
730.638	0.69
730.663	15.69
730.688	25.69
730.713	13.69
730.738	0.69
730.763	4.69
730.788	7.69
730.813	-3.31
730.838	5.69
730.863	9.69
730.888	6.69
730.913	11.69
730.938	-1.31
730.963	11.69
730.988	119.69
731.013	398.69
731.038	626.69
731.063	608.69
731.088	489.69
731.113	364.69
731.138	265.69
731.163	197.69
731.188	96.69
731.213	60.69
731.238	48.69
731.263	13.69
731.288	9.69
731.313	5.69
731.338	6.69
731.363	2.69
731.388	4.69
731.413	-9.31
731.438	10.69
731.463	-0.31
731.487	11.69
731.512	-6.31
731.537	2.69
731.562	6.69
731.587	-0.31
731.612	-3.31
731.637	0.69
731.662	9.69
731.687	-3.31
731.712	-11.31
731.737	11.69
731.762	6.69
731.786	10.69
731.811	7.69
731.836	8.69
731.861	1.69
731.886	0.69
731.911	6.69
731.936	15.69
731.961	5.69
731.986	-2.31
732.01	4.69
732.035	-11.31
732.06	1.69
732.085	2.69
732.11	5.69
732.135	-10.31
732.16	-7.31
732.184	4.69
732.209	-7.31
732.234	1.69
732.259	1.69
732.284	8.69
732.309	13.69
732.334	3.69
732.358	-31.31
732.383	-7.31
732.408	-9.31
732.433	4.69
732.458	-5.31
732.482	10.69
732.507	2.69
732.532	-4.31
732.557	9.69
732.582	-4.31
732.607	13.69
732.631	55.69
732.656	92.69
732.681	155.69
732.706	339.69
732.73	480.69
732.755	422.69
732.78	300.69
732.805	230.69
732.83	189.69
732.854	121.69
732.879	88.69
732.904	40.69
732.929	14.69
732.953	15.69
732.978	0.69
733.003	2.69
733.028	-3.31
733.052	1.69
733.077	4.69
733.102	17.69
733.127	8.69
733.151	0.69
733.176	8.69
733.201	-6.31
733.226	-13.31
733.25	13.69
733.275	-0.31
733.3	-7.31
733.324	9.69
733.349	14.69
733.374	5.69
733.399	14.69
733.423	6.69
733.448	-4.31
733.473	-3.31
733.497	0.69
733.522	-9.31
733.547	14.69
733.571	18.69
733.596	-3.31
733.621	3.69
733.646	-9.31
733.67	-6.31
733.695	-12.31
733.72	-15.31
733.744	-2.31
733.769	3.69
733.794	16.69
733.818	4.69
733.843	-2.31
733.867	-2.31
733.892	-1.31
733.917	-3.31
733.941	0.69
733.966	-4.31
733.991	0.69
734.015	16.69
734.04	6.69
734.065	9.69
734.089	-1.31
734.114	13.69
734.138	8.69
734.163	3.69
734.188	16.69
734.212	15.69
734.237	-1.31
734.261	10.69
734.286	0.69
734.311	-4.31
734.335	-5.31
734.36	-4.31
734.384	-6.31
734.409	5.69
734.434	-9.31
734.458	4.69
734.483	-1.31
734.507	-11.31
734.532	-4.31
734.556	11.69
734.581	-7.31
734.606	-1.31
734.63	-6.31
734.655	5.69
734.679	-3.31
734.704	5.69
734.728	7.69
734.753	-7.31
734.777	6.69
734.802	6.69
734.826	4.69
734.851	-7.31
734.876	11.69
734.9	9.69
734.925	10.69
734.949	12.69
734.974	2.69
734.998	3.69
735.023	-8.31
735.047	-5.31
735.072	15.69
735.096	3.69
735.121	5.69
735.145	-7.31
735.17	4.69
735.194	11.69
735.219	0.69
735.243	7.69
735.268	4.69
735.292	4.69
735.317	-5.31
735.341	0.69
735.365	-17.31
735.39	6.69
735.414	-2.31
735.439	-14.31
735.463	12.69
735.488	17.69
735.512	-15.31
735.537	-9.31
735.561	-3.31
735.586	2.69
735.61	5.69
735.634	-7.31
735.659	7.69
735.683	17.69
735.708	-7.31
735.732	-3.31
735.757	-3.31
735.781	3.69
735.805	-10.31
735.83	-4.31
735.854	-4.31
735.879	-2.31
735.903	-4.31
735.927	-7.31
735.952	10.69
735.976	8.69
736.001	-6.31
736.025	4.69
736.049	-8.31
736.074	-10.31
736.098	1.69
736.123	-7.31
736.147	2.69
736.171	-10.31
736.196	8.69
736.22	-20.31
736.244	-3.31
736.269	-8.31
736.293	5.69
736.317	-5.31
736.342	9.69
736.366	22.69
736.39	16.69
736.415	5.69
736.439	3.69
736.463	12.69
736.488	9.69
736.512	-3.31
736.536	-3.31
736.561	15.69
736.585	1.69
736.609	8.69
736.634	-3.31
736.658	0.69
736.682	-7.31
736.707	-12.31
736.731	-2.31
736.755	-3.31
736.78	8.69
736.804	18.69
736.828	-0.31
736.852	-0.31
736.877	-2.31
736.901	12.69
736.925	-2.31
736.949	4.69
736.974	1.69
736.998	-13.31
737.022	1.69
737.047	-5.31
737.071	3.69
737.095	18.69
737.119	16.69
737.144	20.69
737.168	1.69
737.192	-6.31
737.216	17.69
737.241	0.69
737.265	-8.31
737.289	4.69
737.313	14.69
737.337	20.69
737.362	-3.31
737.386	-0.31
737.41	-15.31
737.434	0.69
737.459	-3.31
737.483	4.69
737.507	5.69
737.531	0.69
737.555	-14.31
737.58	22.69
737.604	2.69
737.628	-9.31
737.652	-5.31
737.676	-11.31
737.701	-5.31
737.725	5.69
737.749	14.69
737.773	-3.31
737.797	-2.31
737.821	24.69
737.846	12.69
737.87	19.69
737.894	2.69
737.918	9.69
737.942	6.69
737.966	13.69
737.99	12.69
738.015	-7.31
738.039	0.69
738.063	1.69
738.087	14.69
738.111	-8.31
738.135	17.69
738.159	-1.31
738.184	8.69
738.208	3.69
738.232	10.69
738.256	16.69
738.28	21.69
738.304	26.69
738.328	1.69
738.352	14.69
738.376	6.69
738.4	17.69
738.425	-2.31
738.449	-2.31
738.473	25.69
738.497	13.69
738.521	-0.31
738.545	10.69
738.569	2.69
738.593	24.69
738.617	17.69
738.641	-0.31
738.665	4.69
738.689	5.69
738.713	4.69
738.737	3.69
738.762	17.69
738.786	7.69
738.81	-10.31
738.834	11.69
738.858	-8.31
738.882	0.69
738.906	5.69
738.93	0.69
738.954	-3.31
738.978	-3.31
739.002	-12.31
739.026	5.69
739.05	2.69
739.074	2.69
739.098	16.69
739.122	13.69
739.146	9.69
739.17	9.69
739.194	13.69
739.218	-0.31
739.242	-12.31
739.266	-4.31
739.29	8.69
739.314	3.69
739.338	0.69
739.362	-1.31
739.386	-3.31
739.41	6.69
739.434	-6.31
739.458	15.69
739.482	10.69
739.506	5.69
739.53	-7.31
739.554	13.69
739.577	-10.31
739.601	2.69
739.625	-6.31
739.649	-6.31
739.673	-13.31
739.697	9.69
739.721	3.69
739.745	6.69
739.769	16.69
739.793	9.69
739.817	11.69
739.841	-1.31
739.865	-10.31
739.889	-18.31
739.912	11.69
739.936	-5.31
739.96	0.69
739.984	18.69
740.008	-2.31
740.032	-16.31
740.056	3.69
740.08	-1.31
740.104	-2.31
740.127	9.69
740.151	19.69
740.175	15.69
740.199	2.69
740.223	49.69
740.247	10.69
740.271	4.69
740.295	-0.31
740.318	-18.31
740.342	-5.31
740.366	17.69
740.39	8.69
740.414	4.69
740.438	-1.31
740.461	14.69
740.485	-2.31
740.509	-2.31
740.533	1.69
740.557	-2.31
740.581	-3.31
740.604	-18.31
740.628	-2.31
740.652	9.69
740.676	3.69
740.7	17.69
740.723	10.69
740.747	-0.31
740.771	5.69
740.795	0.69
740.819	8.69
740.842	4.69
740.866	5.69
740.89	-3.31
740.914	-8.31
740.938	-9.31
740.961	11.69
740.985	5.69
741.009	-5.31
741.033	22.69
741.056	5.69
741.08	2.69
741.104	-7.31
741.128	-2.31
741.151	21.69
741.175	5.69
741.199	14.69
741.223	9.69
741.246	-10.31
741.27	-0.31
741.294	12.69
741.318	-1.31
741.341	4.69
741.365	11.69
741.389	16.69
741.413	21.69
741.436	16.69
741.46	6.69
741.484	1.69
741.507	0.69
741.531	13.69
741.555	13.69
741.579	-1.31
741.602	5.69
741.626	5.69
741.65	1.69
741.673	-12.31
741.697	2.69
741.721	9.69
741.744	-3.31
741.768	-5.31
741.792	-4.31
741.815	-4.31
741.839	0.69
741.863	10.69
741.886	14.69
741.91	9.69
741.934	-1.31
741.957	-3.31
741.981	-1.31
742.005	-8.31
742.028	-5.31
742.052	-7.31
742.075	-1.31
742.099	20.69
742.123	-1.31
742.146	7.69
742.17	14.69
742.194	-6.31
742.217	-19.31
742.241	-17.31
742.264	-7.31
742.288	27.69
742.312	4.69
742.335	0.69
742.359	-13.31
742.382	8.69
742.406	6.69
742.43	-6.31
742.453	7.69
742.477	-10.31
742.5	-1.31
742.524	-0.31
742.548	0.69
742.571	-1.31
742.595	0.69
742.618	6.69
742.642	4.69
742.665	14.69
742.689	-15.31
742.712	-1.31
742.736	-15.31
742.76	1.69
742.783	-1.31
742.807	11.69
742.83	10.69
742.854	-2.31
742.877	-3.31
742.901	-7.31
742.924	-5.31
742.948	12.69
742.971	4.69
742.995	19.69
743.018	-9.31
743.042	1.69
743.065	1.69
743.089	-6.31
743.112	0.69
743.136	-11.31
743.159	-8.31
743.183	0.69
743.206	17.69
743.23	-0.31
743.253	-8.31
743.277	-6.31
743.3	-9.31
743.324	1.69
743.347	2.69
743.371	18.69
743.394	21.69
743.418	13.69
743.441	10.69
743.465	12.69
743.488	13.69
743.512	0.69
743.535	-13.31
743.558	-5.31
743.582	0.69
743.605	-8.31
743.629	2.69
743.652	-7.31
743.676	14.69
743.699	4.69
743.723	7.69
743.746	11.69
743.769	3.69
743.793	0.69
743.816	-10.31
743.84	27.69
743.863	0.69
743.886	10.69
743.91	2.69
743.933	8.69
743.957	2.69
743.98	-5.31
744.003	-10.31
744.027	1.69
744.05	-0.31
744.074	-4.31
744.097	-25.31
744.12	-6.31
744.144	-0.31
744.167	5.69
744.19	-8.31
744.214	-8.31
744.237	-2.31
744.26	24.69
744.284	13.69
744.307	-10.31
744.331	1.69
744.354	5.69
744.377	4.69
744.401	-10.31
744.424	1.69
744.447	1.69
744.471	0.69
