Data from HighRes_mercury_15_13_11_07_2024_HR4C61891__69__15-14-30-086.txt Node

Date: Thu Nov 07 15:14:30 EST 2024
User: crc00042
Spectrometer: HR4C6189
Trigger mode: 4
Integration Time (sec): 1.000000E-1
Scans to average: 1
Electric dark correction enabled: true
Nonlinearity correction enabled: false
Boxcar width: 0
XAxis mode: Wavelengths
Number of Pixels in Spectrum: 3648
>>>>>Begin Spectral Data<<<<<
639.567	-17.92
639.602	-17.92
639.636	-17.92
639.67	-42.92
639.704	-12.92
639.738	-6.92
639.773	12.08
639.807	-10.92
639.841	-6.92
639.875	-3.92
639.909	6.08
639.943	-1.92
639.978	6.08
640.012	-5.92
640.046	8.08
640.08	4.08
640.114	6.08
640.148	-5.92
640.182	4.08
640.217	5.08
640.251	13.08
640.285	16.08
640.319	-5.92
640.353	11.08
640.387	-0.92
640.421	4.08
640.455	7.08
640.49	-4.92
640.524	6.08
640.558	4.08
640.592	6.08
640.626	1.08
640.66	9.08
640.694	-13.92
640.728	-0.92
640.762	4.08
640.796	23.08
640.83	20.08
640.865	8.08
640.899	6.08
640.933	3.08
640.967	6.08
641.001	4.08
641.035	13.08
641.069	20.08
641.103	1.08
641.137	-5.92
641.171	-7.92
641.205	15.08
641.239	-1.92
641.273	4.08
641.307	19.08
641.341	3.08
641.375	4.08
641.409	-5.92
641.443	5.08
641.477	16.08
641.511	21.08
641.545	19.08
641.579	3.08
641.614	3.08
641.648	-1.92
641.682	-4.92
641.716	-1.92
641.75	21.08
641.784	8.08
641.818	-6.92
641.852	5.08
641.886	-19.92
641.919	31.08
641.953	-1.92
641.987	-20.92
642.021	-5.92
642.055	4.08
642.089	11.08
642.123	-9.92
642.157	2.08
642.191	3.08
642.225	11.08
642.259	4.08
642.293	7.08
642.327	31.08
642.361	3.08
642.395	0.08
642.429	6.08
642.463	5.08
642.497	20.08
642.531	5.08
642.565	-15.92
642.599	13.08
642.633	9.08
642.666	9.08
642.7	5.08
642.734	13.08
642.768	-6.92
642.802	-4.92
642.836	13.08
642.87	7.08
642.904	3.08
642.938	6.08
642.972	9.08
643.005	9.08
643.039	20.08
643.073	-4.92
643.107	1.08
643.141	14.08
643.175	9.08
643.209	9.08
643.243	-1.92
643.276	9.08
643.31	-0.92
643.344	4.08
643.378	15.08
643.412	1.08
643.446	-0.92
643.48	-5.92
643.513	6.08
643.547	-0.92
643.581	-14.92
643.615	9.08
643.649	-10.92
643.683	-1.92
643.716	-1.92
643.75	6.08
643.784	-5.92
643.818	8.08
643.852	0.08
643.886	11.08
643.919	21.08
643.953	8.08
643.987	-5.92
644.021	14.08
644.055	13.08
644.088	-6.92
644.122	-3.92
644.156	10.08
644.19	8.08
644.224	8.08
644.257	-1.92
644.291	6.08
644.325	3.08
644.359	-6.92
644.392	19.08
644.426	7.08
644.46	1.08
644.494	6.08
644.527	-0.92
644.561	8.08
644.595	4.08
644.629	-4.92
644.662	-2.92
644.696	9.08
644.73	21.08
644.764	10.08
644.797	9.08
644.831	9.08
644.865	11.08
644.899	-0.92
644.932	28.08
644.966	21.08
645	5.08
645.033	27.08
645.067	-9.92
645.101	5.08
645.135	-6.92
645.168	-0.92
645.202	-7.92
645.236	2.08
645.269	11.08
645.303	3.08
645.337	0.08
645.37	1.08
645.404	5.08
645.438	1.08
645.471	-6.92
645.505	19.08
645.539	3.08
645.572	-16.92
645.606	1.08
645.64	7.08
645.673	-4.92
645.707	15.08
645.741	18.08
645.774	-0.92
645.808	9.08
645.842	6.08
645.875	8.08
645.909	-3.92
645.943	6.08
645.976	9.08
646.01	13.08
646.043	13.08
646.077	12.08
646.111	8.08
646.144	9.08
646.178	7.08
646.212	-17.92
646.245	-4.92
646.279	-0.92
646.312	15.08
646.346	8.08
646.38	4.08
646.413	6.08
646.447	2.08
646.48	-4.92
646.514	16.08
646.547	-9.92
646.581	0.08
646.615	-1.92
646.648	-17.92
646.682	-8.92
646.715	0.08
646.749	19.08
646.782	6.08
646.816	-1.92
646.85	0.08
646.883	2.08
646.917	-7.92
646.95	15.08
646.984	2.08
647.017	4.08
647.051	11.08
647.084	6.08
647.118	1.08
647.151	17.08
647.185	8.08
647.218	9.08
647.252	9.08
647.285	-12.92
647.319	-3.92
647.353	-1.92
647.386	6.08
647.42	8.08
647.453	13.08
647.487	2.08
647.52	7.08
647.553	-6.92
647.587	-5.92
647.62	4.08
647.654	4.08
647.687	20.08
647.721	3.08
647.754	16.08
647.788	13.08
647.821	7.08
647.855	10.08
647.888	26.08
647.922	19.08
647.955	15.08
647.989	6.08
648.022	-8.92
648.055	1.08
648.089	2.08
648.122	19.08
648.156	4.08
648.189	15.08
648.223	2.08
648.256	31.08
648.29	20.08
648.323	2.08
648.356	0.08
648.39	4.08
648.423	7.08
648.457	6.08
648.49	8.08
648.523	9.08
648.557	-7.92
648.59	5.08
648.624	16.08
648.657	12.08
648.69	30.08
648.724	8.08
648.757	2.08
648.791	8.08
648.824	20.08
648.857	18.08
648.891	15.08
648.924	11.08
648.957	11.08
648.991	-25.92
649.024	17.08
649.057	13.08
649.091	-13.92
649.124	7.08
649.158	11.08
649.191	37.08
649.224	1.08
649.258	11.08
649.291	8.08
649.324	8.08
649.358	11.08
649.391	8.08
649.424	8.08
649.458	18.08
649.491	0.08
649.524	5.08
649.557	-9.92
649.591	-9.92
649.624	17.08
649.657	-18.92
649.691	13.08
649.724	5.08
649.757	3.08
649.791	0.08
649.824	25.08
649.857	24.08
649.89	13.08
649.924	1.08
649.957	-2.92
649.99	-10.92
650.023	3.08
650.057	11.08
650.09	17.08
650.123	0.08
650.157	8.08
650.19	22.08
650.223	4.08
650.256	-9.92
650.29	0.08
650.323	-7.92
650.356	5.08
650.389	-3.92
650.423	5.08
650.456	2.08
650.489	0.08
650.522	2.08
650.555	27.08
650.589	13.08
650.622	6.08
650.655	16.08
650.688	18.08
650.721	0.08
650.755	4.08
650.788	1.08
650.821	-8.92
650.854	0.08
650.887	5.08
650.921	-4.92
650.954	-19.92
650.987	-7.92
651.02	-9.92
651.053	9.08
651.087	-13.92
651.12	14.08
651.153	4.08
651.186	5.08
651.219	-11.92
651.252	6.08
651.286	11.08
651.319	2.08
651.352	18.08
651.385	6.08
651.418	4.08
651.451	26.08
651.484	8.08
651.518	-3.92
651.551	13.08
651.584	2.08
651.617	15.08
651.65	7.08
651.683	4.08
651.716	-10.92
651.749	-6.92
651.783	4.08
651.816	-0.92
651.849	7.08
651.882	11.08
651.915	1.08
651.948	3.08
651.981	-2.92
652.014	4.08
652.047	-9.92
652.08	10.08
652.114	5.08
652.147	8.08
652.18	15.08
652.213	18.08
652.246	-5.92
652.279	-3.92
652.312	13.08
652.345	21.08
652.378	23.08
652.411	35.08
652.444	15.08
652.477	1.08
652.51	6.08
652.543	-16.92
652.576	6.08
652.609	8.08
652.642	7.08
652.675	16.08
652.709	17.08
652.742	29.08
652.775	13.08
652.808	14.08
652.841	-0.92
652.874	2.08
652.907	5.08
652.94	3.08
652.973	-4.92
653.006	-6.92
653.039	4.08
653.072	8.08
653.105	-5.92
653.138	-17.92
653.171	-12.92
653.204	-3.92
653.237	-7.92
653.27	-19.92
653.303	-1.92
653.336	7.08
653.368	2.08
653.401	12.08
653.434	2.08
653.467	5.08
653.5	-6.92
653.533	9.08
653.566	5.08
653.599	0.08
653.632	2.08
653.665	5.08
653.698	6.08
653.731	4.08
653.764	8.08
653.797	4.08
653.83	-5.92
653.863	-8.92
653.896	1.08
653.929	-4.92
653.961	15.08
653.994	5.08
654.027	6.08
654.06	-1.92
654.093	5.08
654.126	10.08
654.159	7.08
654.192	3.08
654.225	7.08
654.258	5.08
654.29	4.08
654.323	13.08
654.356	1.08
654.389	4.08
654.422	-17.92
654.455	4.08
654.488	1.08
654.521	-4.92
654.553	3.08
654.586	18.08
654.619	5.08
654.652	-13.92
654.685	-1.92
654.718	18.08
654.751	28.08
654.783	-10.92
654.816	30.08
654.849	10.08
654.882	-3.92
654.915	-9.92
654.948	5.08
654.98	-14.92
655.013	1.08
655.046	-1.92
655.079	1.08
655.112	9.08
655.144	-10.92
655.177	-2.92
655.21	3.08
655.243	27.08
655.276	14.08
655.308	10.08
655.341	-9.92
655.374	4.08
655.407	1.08
655.44	1.08
655.472	-7.92
655.505	5.08
655.538	20.08
655.571	20.08
655.603	-2.92
655.636	5.08
655.669	3.08
655.702	5.08
655.734	-5.92
655.767	4.08
655.8	0.08
655.833	6.08
655.865	16.08
655.898	-2.92
655.931	1.08
655.964	9.08
655.996	-8.92
656.029	-8.92
656.062	1.08
656.095	3.08
656.127	-17.92
656.16	-3.92
656.193	2.08
656.225	11.08
656.258	-3.92
656.291	-0.92
656.324	3.08
656.356	5.08
656.389	16.08
656.422	15.08
656.454	0.08
656.487	-0.92
656.52	9.08
656.552	7.08
656.585	-6.92
656.618	7.08
656.65	8.08
656.683	-6.92
656.716	3.08
656.748	-8.92
656.781	-4.92
656.814	-14.92
656.846	1.08
656.879	0.08
656.912	17.08
656.944	2.08
656.977	-20.92
657.01	-11.92
657.042	-0.92
657.075	20.08
657.108	9.08
657.14	4.08
657.173	11.08
657.205	26.08
657.238	7.08
657.271	4.08
657.303	11.08
657.336	8.08
657.369	14.08
657.401	18.08
657.434	2.08
657.466	-1.92
657.499	2.08
657.532	6.08
657.564	12.08
657.597	0.08
657.629	-4.92
657.662	6.08
657.694	-4.92
657.727	-0.92
657.76	12.08
657.792	7.08
657.825	-0.92
657.857	1.08
657.89	1.08
657.922	9.08
657.955	4.08
657.987	6.08
658.02	30.08
658.053	13.08
658.085	1.08
658.118	19.08
658.15	4.08
658.183	6.08
658.215	6.08
658.248	-12.92
658.28	1.08
658.313	22.08
658.345	9.08
658.378	-9.92
658.41	-6.92
658.443	11.08
658.475	9.08
658.508	-5.92
658.54	-0.92
658.573	6.08
658.605	13.08
658.638	3.08
658.67	-4.92
658.703	10.08
658.735	-21.92
658.768	-5.92
658.8	-10.92
658.833	-0.92
658.865	10.08
658.898	3.08
658.93	-10.92
658.963	-7.92
658.995	-10.92
659.028	3.08
659.06	-4.92
659.092	-5.92
659.125	-4.92
659.157	12.08
659.19	12.08
659.222	-4.92
659.255	-4.92
659.287	-1.92
659.32	-2.92
659.352	3.08
659.384	29.08
659.417	-0.92
659.449	-14.92
659.482	13.08
659.514	5.08
659.546	-2.92
659.579	-3.92
659.611	1.08
659.644	11.08
659.676	-8.92
659.708	-22.92
659.741	-6.92
659.773	23.08
659.806	19.08
659.838	-6.92
659.87	-3.92
659.903	-10.92
659.935	2.08
659.967	-7.92
660	1.08
660.032	-18.92
660.065	-0.92
660.097	1.08
660.129	-5.92
660.162	-10.92
660.194	5.08
660.226	9.08
660.259	5.08
660.291	9.08
660.323	3.08
660.356	8.08
660.388	-14.92
660.42	2.08
660.453	21.08
660.485	10.08
660.517	27.08
660.55	18.08
660.582	17.08
660.614	9.08
660.647	0.08
660.679	-25.92
660.711	10.08
660.743	-7.92
660.776	1.08
660.808	3.08
660.84	2.08
660.873	-6.92
660.905	-3.92
660.937	-8.92
660.969	8.08
661.002	6.08
661.034	19.08
661.066	-9.92
661.099	8.08
661.131	14.08
661.163	14.08
661.195	16.08
661.228	17.08
661.26	-5.92
661.292	7.08
661.324	6.08
661.357	8.08
661.389	5.08
661.421	14.08
661.453	4.08
661.485	13.08
661.518	-12.92
661.55	-23.92
661.582	-28.92
661.614	-4.92
661.647	6.08
661.679	5.08
661.711	3.08
661.743	-4.92
661.775	9.08
661.808	12.08
661.84	2.08
661.872	-3.92
661.904	0.08
661.936	13.08
661.969	-3.92
662.001	-4.92
662.033	5.08
662.065	6.08
662.097	27.08
662.129	17.08
662.162	-0.92
662.194	7.08
662.226	1.08
662.258	17.08
662.29	7.08
662.322	-12.92
662.355	-13.92
662.387	27.08
662.419	5.08
662.451	16.08
662.483	6.08
662.515	-15.92
662.547	3.08
662.58	-16.92
662.612	4.08
662.644	-11.92
662.676	-5.92
662.708	16.08
662.74	15.08
662.772	7.08
662.804	25.08
662.836	16.08
662.869	14.08
662.901	1.08
662.933	6.08
662.965	28.08
662.997	8.08
663.029	1.08
663.061	1.08
663.093	-13.92
663.125	2.08
663.157	3.08
663.189	1.08
663.221	1.08
663.254	6.08
663.286	6.08
663.318	-4.92
663.35	-10.92
663.382	-4.92
663.414	8.08
663.446	-4.92
663.478	5.08
663.51	26.08
663.542	1.08
663.574	-0.92
663.606	6.08
663.638	-8.92
663.67	0.08
663.702	2.08
663.734	2.08
663.766	2.08
663.798	-6.92
663.83	17.08
663.862	21.08
663.894	20.08
663.926	18.08
663.958	8.08
663.99	-2.92
664.022	5.08
664.054	2.08
664.086	-9.92
664.118	-16.92
664.15	-15.92
664.182	17.08
664.214	-5.92
664.246	17.08
664.278	7.08
664.31	13.08
664.342	12.08
664.374	-2.92
664.406	2.08
664.438	-16.92
664.47	12.08
664.502	-2.92
664.534	-15.92
664.566	-1.92
664.598	9.08
664.63	-3.92
664.662	-7.92
664.693	9.08
664.725	-0.92
664.757	6.08
664.789	-17.92
664.821	12.08
664.853	26.08
664.885	14.08
664.917	11.08
664.949	15.08
664.981	28.08
665.013	4.08
665.045	-7.92
665.076	1.08
665.108	-3.92
665.14	11.08
665.172	9.08
665.204	2.08
665.236	-12.92
665.268	16.08
665.3	-6.92
665.331	8.08
665.363	5.08
665.395	-17.92
665.427	3.08
665.459	0.08
665.491	-5.92
665.523	3.08
665.555	-13.92
665.586	7.08
665.618	4.08
665.65	-8.92
665.682	4.08
665.714	10.08
665.746	5.08
665.777	-8.92
665.809	-2.92
665.841	3.08
665.873	-7.92
665.905	6.08
665.937	6.08
665.968	-11.92
666	9.08
666.032	14.08
666.064	-5.92
666.096	4.08
666.127	15.08
666.159	16.08
666.191	21.08
666.223	-1.92
666.255	12.08
666.286	1.08
666.318	-4.92
666.35	15.08
666.382	16.08
666.413	7.08
666.445	0.08
666.477	-7.92
666.509	4.08
666.54	-0.92
666.572	-6.92
666.604	-11.92
666.636	-4.92
666.667	11.08
666.699	9.08
666.731	-0.92
666.763	6.08
666.794	-4.92
666.826	8.08
666.858	-3.92
666.89	5.08
666.921	4.08
666.953	20.08
666.985	5.08
667.017	16.08
667.048	7.08
667.08	14.08
667.112	1.08
667.143	-10.92
667.175	4.08
667.207	12.08
667.238	20.08
667.27	8.08
667.302	9.08
667.334	-2.92
667.365	16.08
667.397	13.08
667.429	3.08
667.46	4.08
667.492	9.08
667.524	-9.92
667.555	3.08
667.587	-7.92
667.619	3.08
667.65	0.08
667.682	12.08
667.714	5.08
667.745	-11.92
667.777	8.08
667.808	11.08
667.84	24.08
667.872	7.08
667.903	13.08
667.935	-7.92
667.967	4.08
667.998	8.08
668.03	3.08
668.061	22.08
668.093	6.08
668.125	9.08
668.156	2.08
668.188	-12.92
668.22	-18.92
668.251	9.08
668.283	17.08
668.314	11.08
668.346	-3.92
668.377	9.08
668.409	4.08
668.441	26.08
668.472	6.08
668.504	19.08
668.535	1.08
668.567	0.08
668.599	5.08
668.63	15.08
668.662	-2.92
668.693	16.08
668.725	19.08
668.756	4.08
668.788	12.08
668.819	3.08
668.851	-15.92
668.882	2.08
668.914	1.08
668.946	-2.92
668.977	-25.92
669.009	-2.92
669.04	4.08
669.072	17.08
669.103	21.08
669.135	7.08
669.166	2.08
669.198	7.08
669.229	7.08
669.261	-8.92
669.292	-5.92
669.324	7.08
669.355	2.08
669.387	5.08
669.418	5.08
669.45	-6.92
669.481	-3.92
669.513	2.08
669.544	3.08
669.576	-4.92
669.607	20.08
669.639	24.08
669.67	-18.92
669.701	-3.92
669.733	-5.92
669.764	7.08
669.796	2.08
669.827	-3.92
669.859	-20.92
669.89	8.08
669.922	16.08
669.953	6.08
669.985	-2.92
670.016	6.08
670.047	1.08
670.079	1.08
670.11	10.08
670.142	9.08
670.173	14.08
670.204	-2.92
670.236	13.08
670.267	2.08
670.299	4.08
670.33	5.08
670.362	8.08
670.393	-3.92
670.424	7.08
670.456	-10.92
670.487	1.08
670.518	2.08
670.55	2.08
670.581	13.08
670.613	2.08
670.644	8.08
670.675	-13.92
670.707	5.08
670.738	1.08
670.769	-13.92
670.801	-31.92
670.832	-9.92
670.864	1.08
670.895	11.08
670.926	6.08
670.958	1.08
670.989	7.08
671.02	-0.92
671.052	-1.92
671.083	3.08
671.114	4.08
671.146	17.08
671.177	-7.92
671.208	7.08
671.24	-13.92
671.271	-13.92
671.302	15.08
671.333	12.08
671.365	5.08
671.396	-1.92
671.427	8.08
671.459	1.08
671.49	16.08
671.521	-11.92
671.553	-6.92
671.584	-2.92
671.615	-5.92
671.646	8.08
671.678	-8.92
671.709	-11.92
671.74	3.08
671.771	-2.92
671.803	-8.92
671.834	5.08
671.865	8.08
671.896	9.08
671.928	3.08
671.959	6.08
671.99	-11.92
672.021	20.08
672.053	-12.92
672.084	3.08
672.115	4.08
672.146	2.08
672.178	-6.92
672.209	-2.92
672.24	20.08
672.271	20.08
672.303	0.08
672.334	15.08
672.365	5.08
672.396	9.08
672.427	-11.92
672.459	6.08
672.49	9.08
672.521	-1.92
672.552	20.08
672.583	17.08
672.615	6.08
672.646	14.08
672.677	-6.92
672.708	-15.92
672.739	-10.92
672.77	10.08
672.802	15.08
672.833	7.08
672.864	6.08
672.895	-16.92
672.926	-3.92
672.957	-3.92
672.989	4.08
673.02	9.08
673.051	1.08
673.082	2.08
673.113	5.08
673.144	20.08
673.175	17.08
673.206	1.08
673.238	9.08
673.269	3.08
673.3	-1.92
673.331	12.08
673.362	14.08
673.393	-1.92
673.424	-3.92
673.455	23.08
673.487	2.08
673.518	9.08
673.549	-5.92
673.58	7.08
673.611	5.08
673.642	-4.92
673.673	-20.92
673.704	16.08
673.735	-7.92
673.766	-4.92
673.797	-0.92
673.828	-2.92
673.86	-1.92
673.891	-8.92
673.922	-15.92
673.953	-11.92
673.984	3.08
674.015	10.08
674.046	-8.92
674.077	-2.92
674.108	-11.92
674.139	-11.92
674.17	-4.92
674.201	2.08
674.232	-0.92
674.263	2.08
674.294	-4.92
674.325	-3.92
674.356	26.08
674.387	20.08
674.418	7.08
674.449	-13.92
674.48	-2.92
674.511	5.08
674.542	20.08
674.573	4.08
674.604	8.08
674.635	-3.92
674.666	11.08
674.697	-4.92
674.728	-3.92
674.759	-7.92
674.79	-8.92
674.821	-19.92
674.852	10.08
674.883	7.08
674.914	-0.92
674.945	6.08
674.976	2.08
675.007	0.08
675.038	5.08
675.069	-4.92
675.1	-7.92
675.131	5.08
675.162	0.08
675.193	-7.92
675.224	-7.92
675.254	4.08
675.285	5.08
675.316	9.08
675.347	15.08
675.378	3.08
675.409	-7.92
675.44	7.08
675.471	-2.92
675.502	-4.92
675.533	20.08
675.564	-2.92
675.595	3.08
675.625	35.08
675.656	10.08
675.687	7.08
675.718	-6.92
675.749	6.08
675.78	19.08
675.811	5.08
675.842	-1.92
675.873	2.08
675.903	3.08
675.934	14.08
675.965	1.08
675.996	-4.92
676.027	-10.92
676.058	-2.92
676.089	-6.92
676.119	-7.92
676.15	-7.92
676.181	0.08
676.212	10.08
676.243	6.08
676.274	5.08
676.304	15.08
676.335	-10.92
676.366	4.08
676.397	-11.92
676.428	5.08
676.459	10.08
676.489	10.08
676.52	4.08
676.551	9.08
676.582	2.08
676.613	19.08
676.643	-4.92
676.674	15.08
676.705	-2.92
676.736	0.08
676.767	24.08
676.797	10.08
676.828	8.08
676.859	3.08
676.89	6.08
676.92	9.08
676.951	20.08
676.982	14.08
677.013	18.08
677.044	21.08
677.074	33.08
677.105	-3.92
677.136	3.08
677.167	-6.92
677.197	20.08
677.228	-19.92
677.259	2.08
677.289	11.08
677.32	-12.92
677.351	-7.92
677.382	-0.92
677.412	-1.92
677.443	13.08
677.474	9.08
677.505	8.08
677.535	32.08
677.566	2.08
677.597	10.08
677.627	-7.92
677.658	-6.92
677.689	7.08
677.72	-13.92
677.75	-8.92
677.781	-9.92
677.812	-7.92
677.842	-0.92
677.873	1.08
677.904	4.08
677.934	10.08
677.965	-6.92
677.996	-15.92
678.026	-13.92
678.057	10.08
678.088	-3.92
678.118	-1.92
678.149	-10.92
678.18	-12.92
678.21	3.08
678.241	9.08
678.272	-10.92
678.302	17.08
678.333	-1.92
678.363	-2.92
678.394	7.08
678.425	-11.92
678.455	6.08
678.486	12.08
678.517	4.08
678.547	2.08
678.578	5.08
678.608	-1.92
678.639	3.08
678.67	2.08
678.7	-22.92
678.731	9.08
678.761	4.08
678.792	13.08
678.823	6.08
678.853	1.08
678.884	-11.92
678.914	-4.92
678.945	8.08
678.975	5.08
679.006	20.08
679.037	-14.92
679.067	17.08
679.098	-6.92
679.128	-10.92
679.159	-9.92
679.189	19.08
679.22	-7.92
679.25	10.08
679.281	1.08
679.312	-11.92
679.342	-10.92
679.373	34.08
679.403	1.08
679.434	3.08
679.464	-0.92
679.495	5.08
679.525	4.08
679.556	10.08
679.586	4.08
679.617	10.08
679.647	-6.92
679.678	10.08
679.708	1.08
679.739	13.08
679.769	1.08
679.8	-7.92
679.83	-0.92
679.861	0.08
679.891	4.08
679.922	-14.92
679.952	4.08
679.983	24.08
680.013	1.08
680.044	-1.92
680.074	5.08
680.105	14.08
680.135	-1.92
680.165	13.08
680.196	12.08
680.226	23.08
680.257	6.08
680.287	11.08
680.318	22.08
680.348	4.08
680.379	16.08
680.409	-1.92
680.439	-3.92
680.47	8.08
680.5	2.08
680.531	16.08
680.561	4.08
680.592	15.08
680.622	15.08
680.652	4.08
680.683	23.08
680.713	-3.92
680.744	-2.92
680.774	-7.92
680.804	12.08
680.835	-7.92
680.865	-2.92
680.896	14.08
680.926	12.08
680.956	11.08
680.987	11.08
681.017	13.08
681.047	12.08
681.078	-11.92
681.108	-14.92
681.139	14.08
681.169	22.08
681.199	8.08
681.23	21.08
681.26	11.08
681.29	7.08
681.321	-12.92
681.351	5.08
681.381	-3.92
681.412	3.08
681.442	13.08
681.472	12.08
681.503	12.08
681.533	-9.92
681.563	-9.92
681.594	-5.92
681.624	-0.92
681.654	-8.92
681.685	-0.92
681.715	12.08
681.745	11.08
681.775	-11.92
681.806	-7.92
681.836	-0.92
681.866	-1.92
681.897	1.08
681.927	0.08
681.957	-20.92
681.987	16.08
682.018	9.08
682.048	16.08
682.078	20.08
682.109	13.08
682.139	8.08
682.169	-10.92
682.199	8.08
682.23	-12.92
682.26	13.08
682.29	3.08
682.32	-1.92
682.351	-6.92
682.381	16.08
682.411	2.08
682.441	-1.92
682.472	-6.92
682.502	8.08
682.532	0.08
682.562	2.08
682.592	12.08
682.623	5.08
682.653	9.08
682.683	4.08
682.713	0.08
682.743	-6.92
682.774	-2.92
682.804	-10.92
682.834	18.08
682.864	-7.92
682.894	-1.92
682.925	-0.92
682.955	3.08
682.985	-1.92
683.015	4.08
683.045	12.08
683.076	-13.92
683.106	4.08
683.136	4.08
683.166	16.08
683.196	11.08
683.226	-11.92
683.257	-0.92
683.287	3.08
683.317	-13.92
683.347	-0.92
683.377	8.08
683.407	2.08
683.437	-0.92
683.468	9.08
683.498	-10.92
683.528	-13.92
683.558	-4.92
683.588	6.08
683.618	-6.92
683.648	-3.92
683.678	15.08
683.708	18.08
683.739	2.08
683.769	1.08
683.799	11.08
683.829	2.08
683.859	13.08
683.889	17.08
683.919	-7.92
683.949	3.08
683.979	3.08
684.009	3.08
684.039	9.08
684.07	4.08
684.1	19.08
684.13	16.08
684.16	5.08
684.19	-6.92
684.22	3.08
684.25	0.08
684.28	6.08
684.31	27.08
684.34	5.08
684.37	13.08
684.4	10.08
684.43	22.08
684.46	2.08
684.49	1.08
684.52	6.08
684.55	23.08
684.58	8.08
684.61	11.08
684.64	9.08
684.67	3.08
684.7	1.08
684.73	3.08
684.76	8.08
684.79	11.08
684.82	5.08
684.85	-10.92
684.88	29.08
684.91	6.08
684.94	1.08
684.97	-2.92
685	-3.92
685.03	-8.92
685.06	-1.92
685.09	-3.92
685.12	18.08
685.15	-5.92
685.18	10.08
685.21	0.08
685.24	-2.92
685.27	14.08
685.3	4.08
685.33	17.08
685.36	-7.92
685.39	-13.92
685.42	-18.92
685.45	6.08
685.48	3.08
685.51	1.08
685.54	24.08
685.569	13.08
685.599	11.08
685.629	7.08
685.659	-2.92
685.689	4.08
685.719	6.08
685.749	-16.92
685.779	12.08
685.809	13.08
685.839	5.08
685.869	-11.92
685.898	14.08
685.928	22.08
685.958	13.08
685.988	9.08
686.018	-5.92
686.048	17.08
686.078	25.08
686.108	3.08
686.137	3.08
686.167	12.08
686.197	-8.92
686.227	10.08
686.257	27.08
686.287	20.08
686.317	11.08
686.346	10.08
686.376	1.08
686.406	20.08
686.436	18.08
686.466	6.08
686.496	9.08
686.525	23.08
686.555	2.08
686.585	10.08
686.615	23.08
686.645	12.08
686.675	-7.92
686.704	5.08
686.734	10.08
686.764	10.08
686.794	4.08
686.824	13.08
686.853	25.08
686.883	11.08
686.913	15.08
686.943	9.08
686.973	-2.92
687.002	8.08
687.032	5.08
687.062	8.08
687.092	16.08
687.121	1.08
687.151	5.08
687.181	9.08
687.211	17.08
687.24	2.08
687.27	-1.92
687.3	-19.92
687.33	0.08
687.359	3.08
687.389	12.08
687.419	25.08
687.449	7.08
687.478	-0.92
687.508	1.08
687.538	16.08
687.568	6.08
687.597	6.08
687.627	4.08
687.657	6.08
687.686	9.08
687.716	11.08
687.746	-6.92
687.776	-9.92
687.805	8.08
687.835	1.08
687.865	34.08
687.894	11.08
687.924	4.08
687.954	-9.92
687.983	11.08
688.013	6.08
688.043	17.08
688.072	0.08
688.102	18.08
688.132	15.08
688.161	9.08
688.191	11.08
688.221	20.08
688.25	1.08
688.28	-0.92
688.31	4.08
688.339	5.08
688.369	2.08
688.399	13.08
688.428	7.08
688.458	1.08
688.488	-5.92
688.517	19.08
688.547	6.08
688.576	38.08
688.606	19.08
688.636	-6.92
688.665	12.08
688.695	24.08
688.725	18.08
688.754	16.08
688.784	19.08
688.813	23.08
688.843	6.08
688.873	6.08
688.902	0.08
688.932	3.08
688.961	4.08
688.991	19.08
689.02	8.08
689.05	7.08
689.08	24.08
689.109	16.08
689.139	4.08
689.168	26.08
689.198	-3.92
689.227	-2.92
689.257	-2.92
689.287	-1.92
689.316	-0.92
689.346	6.08
689.375	-8.92
689.405	9.08
689.434	6.08
689.464	2.08
689.493	-1.92
689.523	-1.92
689.552	22.08
689.582	12.08
689.611	10.08
689.641	11.08
689.67	2.08
689.7	20.08
689.73	25.08
689.759	11.08
689.789	22.08
689.818	-11.92
689.848	-2.92
689.877	20.08
689.906	-10.92
689.936	4.08
689.965	24.08
689.995	14.08
690.024	10.08
690.054	5.08
690.083	4.08
690.113	4.08
690.142	-0.92
690.172	15.08
690.201	11.08
690.231	7.08
690.26	7.08
690.29	2.08
690.319	-3.92
690.348	10.08
690.378	16.08
690.407	6.08
690.437	13.08
690.466	1.08
690.496	11.08
690.525	19.08
690.555	8.08
690.584	-0.92
690.613	1.08
690.643	3.08
690.672	12.08
690.702	8.08
690.731	6.08
690.76	24.08
690.79	52.08
690.819	69.08
690.849	42.08
690.878	24.08
690.907	39.08
690.937	25.08
690.966	6.08
690.996	-4.92
691.025	14.08
691.054	9.08
691.084	0.08
691.113	-10.92
691.142	4.08
691.172	18.08
691.201	10.08
691.23	16.08
691.26	23.08
691.289	3.08
691.319	0.08
691.348	-4.92
691.377	18.08
691.407	16.08
691.436	24.08
691.465	27.08
691.495	12.08
691.524	1.08
691.553	5.08
691.583	0.08
691.612	13.08
691.641	4.08
691.67	3.08
691.7	8.08
691.729	-9.92
691.758	-1.92
691.788	2.08
691.817	-3.92
691.846	-12.92
691.876	5.08
691.905	-0.92
691.934	-0.92
691.963	16.08
691.993	15.08
692.022	5.08
692.051	-3.92
692.081	17.08
692.11	17.08
692.139	-0.92
692.168	13.08
692.198	29.08
692.227	20.08
692.256	5.08
692.285	0.08
692.315	-6.92
692.344	6.08
692.373	-4.92
692.402	-22.92
692.432	6.08
692.461	20.08
692.49	8.08
692.519	2.08
692.548	20.08
692.578	13.08
692.607	-0.92
692.636	4.08
692.665	15.08
692.694	7.08
692.724	1.08
692.753	-18.92
692.782	15.08
692.811	3.08
692.84	7.08
692.87	1.08
692.899	-0.92
692.928	-3.92
692.957	3.08
692.986	21.08
693.016	8.08
693.045	5.08
693.074	9.08
693.103	4.08
693.132	1.08
693.161	10.08
693.191	-8.92
693.22	2.08
693.249	10.08
693.278	-1.92
693.307	19.08
693.336	-1.92
693.365	-8.92
693.395	6.08
693.424	-6.92
693.453	27.08
693.482	-5.92
693.511	9.08
693.54	13.08
693.569	5.08
693.598	0.08
693.628	21.08
693.657	23.08
693.686	16.08
693.715	18.08
693.744	9.08
693.773	13.08
693.802	4.08
693.831	4.08
693.86	12.08
693.889	0.08
693.919	2.08
693.948	3.08
693.977	6.08
694.006	0.08
694.035	-6.92
694.064	-4.92
694.093	-11.92
694.122	3.08
694.151	6.08
694.18	4.08
694.209	27.08
694.238	-3.92
694.267	26.08
694.296	8.08
694.325	4.08
694.354	8.08
694.383	13.08
694.412	-2.92
694.441	1.08
694.471	2.08
694.5	-6.92
694.529	7.08
694.558	25.08
694.587	19.08
694.616	-2.92
694.645	-5.92
694.674	10.08
694.703	10.08
694.732	1.08
694.761	12.08
694.79	8.08
694.819	1.08
694.848	11.08
694.877	28.08
694.906	36.08
694.935	8.08
694.963	20.08
694.992	4.08
695.021	12.08
695.05	11.08
695.079	4.08
695.108	-1.92
695.137	29.08
695.166	16.08
695.195	-9.92
695.224	17.08
695.253	3.08
695.282	16.08
695.311	14.08
695.34	14.08
695.369	14.08
695.398	-4.92
695.427	10.08
695.456	-1.92
695.485	9.08
695.513	14.08
695.542	2.08
695.571	-0.92
695.6	5.08
695.629	-2.92
695.658	14.08
695.687	11.08
695.716	3.08
695.745	33.08
695.774	5.08
695.802	5.08
695.831	11.08
695.86	14.08
695.889	18.08
695.918	7.08
695.947	1.08
695.976	-1.92
696.005	1.08
696.033	2.08
696.062	27.08
696.091	10.08
696.12	6.08
696.149	8.08
696.178	12.08
696.207	26.08
696.235	1.08
696.264	11.08
696.293	3.08
696.322	29.08
696.351	28.08
696.38	2.08
696.408	6.08
696.437	2.08
696.466	-4.92
696.495	21.08
696.524	11.08
696.553	17.08
696.581	12.08
696.61	13.08
696.639	8.08
696.668	11.08
696.697	1.08
696.725	23.08
696.754	13.08
696.783	-0.92
696.812	-1.92
696.84	5.08
696.869	18.08
696.898	11.08
696.927	13.08
696.956	15.08
696.984	0.08
697.013	7.08
697.042	9.08
697.071	9.08
697.099	19.08
697.128	25.08
697.157	5.08
697.186	9.08
697.214	6.08
697.243	8.08
697.272	6.08
697.301	0.08
697.329	13.08
697.358	-2.92
697.387	20.08
697.415	12.08
697.444	19.08
697.473	8.08
697.502	-5.92
697.53	4.08
697.559	-2.92
697.588	4.08
697.616	1.08
697.645	-6.92
697.674	7.08
697.703	17.08
697.731	17.08
697.76	16.08
697.789	-2.92
697.817	-3.92
697.846	18.08
697.875	5.08
697.903	35.08
697.932	16.08
697.961	5.08
697.989	21.08
698.018	17.08
698.047	14.08
698.075	11.08
698.104	-5.92
698.133	-12.92
698.161	3.08
698.19	10.08
698.218	-0.92
698.247	22.08
698.276	0.08
698.304	6.08
698.333	13.08
698.362	6.08
698.39	6.08
698.419	26.08
698.447	7.08
698.476	-1.92
698.505	16.08
698.533	8.08
698.562	4.08
698.591	-0.92
698.619	10.08
698.648	14.08
698.676	14.08
698.705	-3.92
698.733	-2.92
698.762	-3.92
698.791	-2.92
698.819	-6.92
698.848	6.08
698.876	24.08
698.905	4.08
698.933	7.08
698.962	-0.92
698.991	12.08
699.019	36.08
699.048	12.08
699.076	19.08
699.105	-12.92
699.133	-5.92
699.162	-4.92
699.19	22.08
699.219	8.08
699.248	-6.92
699.276	2.08
699.305	1.08
699.333	11.08
699.362	13.08
699.39	26.08
699.419	10.08
699.447	7.08
699.476	15.08
699.504	3.08
699.533	-5.92
699.561	-4.92
699.59	9.08
699.618	7.08
699.647	9.08
699.675	9.08
699.704	17.08
699.732	0.08
699.761	-3.92
699.789	-3.92
699.818	20.08
699.846	13.08
699.874	4.08
699.903	4.08
699.931	5.08
699.96	13.08
699.988	-8.92
700.017	5.08
700.045	15.08
700.074	5.08
700.102	15.08
700.13	3.08
700.159	10.08
700.187	4.08
700.216	5.08
700.244	-3.92
700.273	-7.92
700.301	20.08
700.329	21.08
700.358	10.08
700.386	-12.92
700.415	9.08
700.443	15.08
700.472	9.08
700.5	7.08
700.528	4.08
700.557	17.08
700.585	4.08
700.614	7.08
700.642	17.08
700.67	13.08
700.699	15.08
700.727	25.08
700.755	10.08
700.784	5.08
700.812	2.08
700.841	6.08
700.869	-2.92
700.897	-0.92
700.926	-1.92
700.954	-3.92
700.982	10.08
701.011	1.08
701.039	7.08
701.067	-5.92
701.096	6.08
701.124	0.08
701.152	9.08
701.181	1.08
701.209	4.08
701.237	12.08
701.266	1.08
701.294	-2.92
701.322	9.08
701.351	-3.92
701.379	6.08
701.407	-12.92
701.435	7.08
701.464	16.08
701.492	14.08
701.52	4.08
701.549	2.08
701.577	10.08
701.605	8.08
701.634	26.08
701.662	14.08
701.69	-1.92
701.718	5.08
701.747	11.08
701.775	7.08
701.803	-2.92
701.831	15.08
701.86	-8.92
701.888	7.08
701.916	4.08
701.944	23.08
701.973	1.08
702.001	2.08
702.029	9.08
702.057	-11.92
702.086	-11.92
702.114	1.08
702.142	12.08
702.17	-3.92
702.199	-4.92
702.227	11.08
702.255	13.08
702.283	-3.92
702.311	4.08
702.34	1.08
702.368	-2.92
702.396	6.08
702.424	9.08
702.452	12.08
702.481	12.08
702.509	-2.92
702.537	23.08
702.565	8.08
702.593	-1.92
702.621	2.08
702.65	2.08
702.678	11.08
702.706	9.08
702.734	9.08
702.762	11.08
702.79	5.08
702.819	9.08
702.847	17.08
702.875	11.08
702.903	22.08
702.931	6.08
702.959	-0.92
702.988	11.08
703.016	-9.92
703.044	12.08
703.072	-2.92
703.1	1.08
703.128	3.08
703.156	0.08
703.184	-4.92
703.212	8.08
703.241	3.08
703.269	18.08
703.297	9.08
703.325	21.08
703.353	6.08
703.381	1.08
703.409	15.08
703.437	-5.92
703.465	1.08
703.493	-2.92
703.522	-2.92
703.55	15.08
703.578	17.08
703.606	2.08
703.634	2.08
703.662	2.08
703.69	0.08
703.718	-4.92
703.746	11.08
703.774	-11.92
703.802	16.08
703.83	13.08
703.858	12.08
703.886	-9.92
703.914	2.08
703.942	39.08
703.97	6.08
703.998	9.08
704.027	15.08
704.055	3.08
704.083	15.08
704.111	5.08
704.139	13.08
704.167	19.08
704.195	7.08
704.223	5.08
704.251	10.08
704.279	19.08
704.307	5.08
704.335	-15.92
704.363	-3.92
704.391	-5.92
704.419	-7.92
704.447	0.08
704.475	8.08
704.503	5.08
704.531	17.08
704.558	18.08
704.586	0.08
704.614	5.08
704.642	4.08
704.67	3.08
704.698	12.08
704.726	16.08
704.754	9.08
704.782	0.08
704.81	1.08
704.838	12.08
704.866	7.08
704.894	-11.92
704.922	-16.92
704.95	3.08
704.978	10.08
705.006	4.08
705.034	2.08
705.061	0.08
705.089	6.08
705.117	8.08
705.145	1.08
705.173	9.08
705.201	-0.92
705.229	1.08
705.257	-1.92
705.285	8.08
705.313	11.08
705.34	-11.92
705.368	-5.92
705.396	4.08
705.424	20.08
705.452	3.08
705.48	16.08
705.508	-3.92
705.536	-2.92
705.563	14.08
705.591	7.08
705.619	9.08
705.647	-7.92
705.675	6.08
705.703	1.08
705.731	-5.92
705.758	13.08
705.786	3.08
705.814	22.08
705.842	6.08
705.87	2.08
705.898	3.08
705.925	9.08
705.953	1.08
705.981	-6.92
706.009	0.08
706.037	6.08
706.065	9.08
706.092	-4.92
706.12	3.08
706.148	-10.92
706.176	-7.92
706.204	15.08
706.231	-3.92
706.259	-1.92
706.287	3.08
706.315	4.08
706.342	-4.92
706.37	16.08
706.398	13.08
706.426	1.08
706.454	20.08
706.481	15.08
706.509	0.08
706.537	1.08
706.565	0.08
706.592	19.08
706.62	-3.92
706.648	6.08
706.676	5.08
706.703	6.08
706.731	8.08
706.759	11.08
706.787	23.08
706.814	7.08
706.842	25.08
706.87	15.08
706.897	3.08
706.925	5.08
706.953	16.08
706.981	30.08
707.008	9.08
707.036	0.08
707.064	-4.92
707.091	1.08
707.119	20.08
707.147	-3.92
707.174	-10.92
707.202	-0.92
707.23	-4.92
707.258	9.08
707.285	-9.92
707.313	-12.92
707.341	-5.92
707.368	11.08
707.396	9.08
707.424	17.08
707.451	21.08
707.479	-0.92
707.507	6.08
707.534	-3.92
707.562	3.08
707.59	-5.92
707.617	-0.92
707.645	-8.92
707.672	5.08
707.7	4.08
707.728	7.08
707.755	15.08
707.783	8.08
707.811	14.08
707.838	-6.92
707.866	-0.92
707.893	3.08
707.921	-7.92
707.949	0.08
707.976	5.08
708.004	5.08
708.031	-2.92
708.059	-2.92
708.087	1.08
708.114	0.08
708.142	-1.92
708.169	1.08
708.197	0.08
708.225	4.08
708.252	9.08
708.28	19.08
708.307	9.08
708.335	-14.92
708.362	-2.92
708.39	-2.92
708.418	-4.92
708.445	-10.92
708.473	0.08
708.5	-6.92
708.528	6.08
708.555	1.08
708.583	19.08
708.61	2.08
708.638	4.08
708.665	-17.92
708.693	4.08
708.72	-16.92
708.748	-1.92
708.776	6.08
708.803	21.08
708.831	17.08
708.858	7.08
708.886	2.08
708.913	8.08
708.941	7.08
708.968	10.08
708.996	-7.92
709.023	40.08
709.051	12.08
709.078	-12.92
709.105	1.08
709.133	3.08
709.16	-3.92
709.188	12.08
709.215	29.08
709.243	4.08
709.27	-2.92
709.298	4.08
709.325	7.08
709.353	9.08
709.38	1.08
709.408	17.08
709.435	13.08
709.462	-10.92
709.49	0.08
709.517	-5.92
709.545	-15.92
709.572	12.08
709.6	9.08
709.627	6.08
709.655	-14.92
709.682	-3.92
709.709	5.08
709.737	5.08
709.764	0.08
709.792	2.08
709.819	-0.92
709.846	-1.92
709.874	-0.92
709.901	12.08
709.929	19.08
709.956	15.08
709.983	11.08
710.011	2.08
710.038	10.08
710.066	-3.92
710.093	16.08
710.12	13.08
710.148	5.08
710.175	4.08
710.202	-7.92
710.23	-1.92
710.257	-3.92
710.284	6.08
710.312	-3.92
710.339	4.08
710.366	2.08
710.394	0.08
710.421	-6.92
710.448	-6.92
710.476	-19.92
710.503	14.08
710.53	18.08
710.558	26.08
710.585	4.08
710.612	2.08
710.64	-0.92
710.667	-9.92
710.694	-8.92
710.722	-4.92
710.749	0.08
710.776	-0.92
710.804	23.08
710.831	7.08
710.858	4.08
710.885	-10.92
710.913	4.08
710.94	21.08
710.967	-6.92
710.995	7.08
711.022	-2.92
711.049	-6.92
711.076	-4.92
711.104	-1.92
711.131	-8.92
711.158	-0.92
711.185	11.08
711.213	-18.92
711.24	-3.92
711.267	6.08
711.294	-10.92
711.322	16.08
711.349	-0.92
711.376	-0.92
711.403	4.08
711.431	9.08
711.458	3.08
711.485	4.08
711.512	-5.92
711.54	8.08
711.567	-0.92
711.594	-2.92
711.621	2.08
711.648	17.08
711.676	3.08
711.703	4.08
711.73	-23.92
711.757	0.08
711.784	3.08
711.812	4.08
711.839	2.08
711.866	-6.92
711.893	-12.92
711.92	4.08
711.947	0.08
711.975	10.08
712.002	11.08
712.029	9.08
712.056	0.08
712.083	-3.92
712.11	-26.92
712.138	-0.92
712.165	14.08
712.192	8.08
712.219	-5.92
712.246	-15.92
712.273	-4.92
712.3	-12.92
712.328	2.08
712.355	-11.92
712.382	-14.92
712.409	15.08
712.436	-14.92
712.463	6.08
712.49	16.08
712.517	-0.92
712.544	0.08
712.572	4.08
712.599	-10.92
712.626	13.08
712.653	2.08
712.68	-10.92
712.707	17.08
712.734	7.08
712.761	-11.92
712.788	8.08
712.815	-0.92
712.842	9.08
712.87	2.08
712.897	8.08
712.924	-4.92
712.951	19.08
712.978	9.08
713.005	-1.92
713.032	-0.92
713.059	-12.92
713.086	-12.92
713.113	-9.92
713.14	-13.92
713.167	-4.92
713.194	6.08
713.221	-4.92
713.248	2.08
713.275	-16.92
713.302	-15.92
713.329	-10.92
713.356	1.08
713.383	0.08
713.41	12.08
713.437	-3.92
713.464	9.08
713.491	12.08
713.518	-0.92
713.545	0.08
713.572	15.08
713.599	20.08
713.626	-3.92
713.653	10.08
713.68	8.08
713.707	-4.92
713.734	7.08
713.761	4.08
713.788	-3.92
713.815	3.08
713.842	4.08
713.869	10.08
713.896	0.08
713.923	0.08
713.95	-2.92
713.977	-4.92
714.004	19.08
714.031	8.08
714.058	2.08
714.085	5.08
714.112	4.08
714.139	-1.92
714.165	-6.92
714.192	-8.92
714.219	14.08
714.246	1.08
714.273	-15.92
714.3	-1.92
714.327	-5.92
714.354	5.08
714.381	0.08
714.408	20.08
714.435	5.08
714.461	-1.92
714.488	3.08
714.515	11.08
714.542	5.08
714.569	-2.92
714.596	-20.92
714.623	2.08
714.65	-18.92
714.677	11.08
714.703	-4.92
714.73	3.08
714.757	2.08
714.784	10.08
714.811	-19.92
714.838	0.08
714.865	-7.92
714.891	13.08
714.918	-1.92
714.945	-11.92
714.972	4.08
714.999	15.08
715.026	-6.92
715.052	-0.92
715.079	0.08
715.106	0.08
715.133	-2.92
715.16	-22.92
715.187	0.08
715.213	-12.92
715.24	-6.92
715.267	-4.92
715.294	-4.92
715.321	-0.92
715.347	2.08
715.374	11.08
715.401	18.08
715.428	4.08
715.455	5.08
715.481	-11.92
715.508	17.08
715.535	6.08
715.562	24.08
715.588	8.08
715.615	1.08
715.642	2.08
715.669	8.08
715.695	4.08
715.722	-0.92
715.749	13.08
715.776	24.08
715.802	4.08
715.829	-1.92
715.856	-17.92
715.883	15.08
715.909	8.08
715.936	-6.92
715.963	-1.92
715.99	-2.92
716.016	16.08
716.043	2.08
716.07	-1.92
716.096	-13.92
716.123	-6.92
716.15	3.08
716.177	4.08
716.203	-5.92
716.23	-7.92
716.257	7.08
716.283	12.08
716.31	2.08
716.337	-11.92
716.363	-6.92
716.39	-2.92
716.417	12.08
716.443	4.08
716.47	23.08
716.497	21.08
716.523	17.08
716.55	6.08
716.577	3.08
716.603	8.08
716.63	3.08
716.657	9.08
716.683	-8.92
716.71	12.08
716.737	-7.92
716.763	2.08
716.79	-0.92
716.817	12.08
716.843	3.08
716.87	5.08
716.897	-2.92
716.923	8.08
716.95	-3.92
716.976	1.08
717.003	-20.92
717.03	-6.92
717.056	6.08
717.083	0.08
717.109	3.08
717.136	1.08
717.163	4.08
717.189	16.08
717.216	-3.92
717.242	-2.92
717.269	5.08
717.296	-11.92
717.322	18.08
717.349	20.08
717.375	0.08
717.402	-2.92
717.428	7.08
717.455	-0.92
717.481	5.08
717.508	20.08
717.535	1.08
717.561	7.08
717.588	5.08
717.614	0.08
717.641	-1.92
717.667	11.08
717.694	-3.92
717.72	4.08
717.747	23.08
717.773	-6.92
717.8	10.08
717.826	11.08
717.853	7.08
717.88	17.08
717.906	24.08
717.933	9.08
717.959	-4.92
717.986	7.08
718.012	-12.92
718.039	5.08
718.065	16.08
718.092	24.08
718.118	0.08
718.144	-11.92
718.171	-0.92
718.197	13.08
718.224	-2.92
718.25	5.08
718.277	7.08
718.303	-6.92
718.33	8.08
718.356	-0.92
718.383	-7.92
718.409	9.08
718.436	16.08
718.462	14.08
718.489	-7.92
718.515	23.08
718.541	18.08
718.568	4.08
718.594	-5.92
718.621	-4.92
718.647	-0.92
718.674	24.08
718.7	25.08
718.726	-4.92
718.753	11.08
718.779	7.08
718.806	-3.92
718.832	-5.92
718.858	16.08
718.885	-0.92
718.911	9.08
718.938	5.08
718.964	2.08
718.99	14.08
719.017	17.08
719.043	6.08
719.07	6.08
719.096	-6.92
719.122	0.08
719.149	3.08
719.175	5.08
719.201	8.08
719.228	-4.92
719.254	-7.92
719.281	3.08
719.307	9.08
719.333	-3.92
719.36	12.08
719.386	-2.92
719.412	8.08
719.439	6.08
719.465	10.08
719.491	1.08
719.518	6.08
719.544	12.08
719.57	17.08
719.597	8.08
719.623	0.08
719.649	11.08
719.675	9.08
719.702	4.08
719.728	21.08
719.754	-2.92
719.781	2.08
719.807	8.08
719.833	-2.92
719.86	0.08
719.886	1.08
719.912	22.08
719.938	0.08
719.965	18.08
719.991	8.08
720.017	-2.92
720.044	6.08
720.07	1.08
720.096	2.08
720.122	0.08
720.149	11.08
720.175	31.08
720.201	7.08
720.227	-10.92
720.254	-1.92
720.28	5.08
720.306	-4.92
720.332	12.08
720.359	9.08
720.385	13.08
720.411	18.08
720.437	7.08
720.463	-2.92
720.49	24.08
720.516	6.08
720.542	-15.92
720.568	-3.92
720.595	30.08
720.621	17.08
720.647	6.08
720.673	7.08
720.699	2.08
720.725	25.08
720.752	14.08
720.778	15.08
720.804	11.08
720.83	-0.92
720.856	-8.92
720.883	-14.92
720.909	-7.92
720.935	8.08
720.961	13.08
720.987	-5.92
721.013	0.08
721.04	15.08
721.066	7.08
721.092	1.08
721.118	18.08
721.144	4.08
721.17	4.08
721.196	23.08
721.223	0.08
721.249	18.08
721.275	14.08
721.301	4.08
721.327	21.08
721.353	6.08
721.379	16.08
721.405	4.08
721.432	26.08
721.458	17.08
721.484	3.08
721.51	8.08
721.536	2.08
721.562	-4.92
721.588	3.08
721.614	-7.92
721.64	-6.92
721.666	-4.92
721.693	-8.92
721.719	6.08
721.745	1.08
721.771	-6.92
721.797	0.08
721.823	-3.92
721.849	21.08
721.875	17.08
721.901	10.08
721.927	-5.92
721.953	-2.92
721.979	19.08
722.005	7.08
722.031	2.08
722.057	0.08
722.083	19.08
722.109	9.08
722.135	12.08
722.161	18.08
722.187	0.08
722.214	-0.92
722.24	15.08
722.266	5.08
722.292	10.08
722.318	16.08
722.344	-0.92
722.37	9.08
722.396	7.08
722.422	4.08
722.448	3.08
722.474	-14.92
722.5	-1.92
722.526	6.08
722.552	2.08
722.578	5.08
722.603	15.08
722.629	0.08
722.655	9.08
722.681	-12.92
722.707	-2.92
722.733	-1.92
722.759	-6.92
722.785	-8.92
722.811	19.08
722.837	4.08
722.863	6.08
722.889	17.08
722.915	0.08
722.941	4.08
722.967	0.08
722.993	13.08
723.019	3.08
723.045	18.08
723.071	27.08
723.097	6.08
723.122	8.08
723.148	-3.92
723.174	-12.92
723.2	-2.92
723.226	9.08
723.252	0.08
723.278	-3.92
723.304	1.08
723.33	8.08
723.356	2.08
723.381	-1.92
723.407	-4.92
723.433	20.08
723.459	-12.92
723.485	3.08
723.511	12.08
723.537	-3.92
723.563	-8.92
723.588	13.08
723.614	17.08
723.64	-0.92
723.666	5.08
723.692	6.08
723.718	-3.92
723.744	12.08
723.769	2.08
723.795	-13.92
723.821	3.08
723.847	-6.92
723.873	2.08
723.899	20.08
723.924	-8.92
723.95	-3.92
723.976	-4.92
724.002	12.08
724.028	33.08
724.053	2.08
724.079	15.08
724.105	4.08
724.131	16.08
724.157	4.08
724.182	30.08
724.208	-4.92
724.234	0.08
724.26	5.08
724.286	22.08
724.311	-5.92
724.337	-5.92
724.363	-8.92
724.389	-6.92
724.415	5.08
724.44	15.08
724.466	-0.92
724.492	8.08
724.518	13.08
724.543	-4.92
724.569	8.08
724.595	10.08
724.621	-6.92
724.646	-9.92
724.672	2.08
724.698	-7.92
724.723	-0.92
724.749	8.08
724.775	10.08
724.801	7.08
724.826	0.08
724.852	-5.92
724.878	-7.92
724.904	-8.92
724.929	11.08
724.955	-0.92
724.981	3.08
725.006	4.08
725.032	8.08
725.058	16.08
725.083	4.08
725.109	-4.92
725.135	6.08
725.161	0.08
725.186	13.08
725.212	-1.92
725.238	7.08
725.263	0.08
725.289	-15.92
725.315	-7.92
725.34	14.08
725.366	5.08
725.392	-6.92
725.417	9.08
725.443	-2.92
725.468	5.08
725.494	-2.92
725.52	16.08
725.545	-4.92
725.571	2.08
725.597	8.08
725.622	9.08
725.648	-3.92
725.674	-2.92
725.699	20.08
725.725	-2.92
725.75	16.08
725.776	9.08
725.802	1.08
725.827	3.08
725.853	-2.92
725.878	-2.92
725.904	-11.92
725.93	0.08
725.955	-12.92
725.981	2.08
726.006	1.08
726.032	17.08
726.057	21.08
726.083	5.08
726.109	13.08
726.134	18.08
726.16	6.08
726.185	8.08
726.211	14.08
726.236	12.08
726.262	8.08
726.288	5.08
726.313	9.08
726.339	4.08
726.364	16.08
726.39	16.08
726.415	2.08
726.441	-6.92
726.466	3.08
726.492	8.08
726.517	25.08
726.543	16.08
726.568	0.08
726.594	16.08
726.619	14.08
726.645	5.08
726.67	15.08
726.696	9.08
726.721	-6.92
726.747	-13.92
726.772	1.08
726.798	-13.92
726.823	-1.92
726.849	-2.92
726.874	5.08
726.9	18.08
726.925	10.08
726.951	4.08
726.976	18.08
727.002	-6.92
727.027	-0.92
727.053	17.08
727.078	-12.92
727.104	-3.92
727.129	-5.92
727.155	2.08
727.18	11.08
727.205	13.08
727.231	7.08
727.256	5.08
727.282	1.08
727.307	12.08
727.333	8.08
727.358	6.08
727.383	13.08
727.409	-8.92
727.434	12.08
727.46	-0.92
727.485	1.08
727.511	25.08
727.536	-19.92
727.561	-6.92
727.587	-5.92
727.612	-4.92
727.637	8.08
727.663	-11.92
727.688	26.08
727.714	6.08
727.739	0.08
727.764	-2.92
727.79	6.08
727.815	7.08
727.841	14.08
727.866	9.08
727.891	10.08
727.917	-3.92
727.942	-3.92
727.967	9.08
727.993	-2.92
728.018	-1.92
728.043	0.08
728.069	4.08
728.094	-0.92
728.119	1.08
728.145	29.08
728.17	8.08
728.195	25.08
728.221	28.08
728.246	10.08
728.271	-2.92
728.297	-0.92
728.322	11.08
728.347	6.08
728.373	3.08
728.398	3.08
728.423	1.08
728.448	-5.92
728.474	0.08
728.499	29.08
728.524	0.08
728.55	-2.92
728.575	1.08
728.6	13.08
728.625	17.08
728.651	6.08
728.676	-7.92
728.701	0.08
728.727	4.08
728.752	-3.92
728.777	1.08
728.802	-7.92
728.828	4.08
728.853	12.08
728.878	5.08
728.903	5.08
728.929	4.08
728.954	4.08
728.979	12.08
729.004	-2.92
729.03	3.08
729.055	11.08
729.08	-4.92
729.105	3.08
729.13	24.08
729.156	8.08
729.181	-9.92
729.206	-23.92
729.231	1.08
729.256	13.08
729.282	1.08
729.307	1.08
729.332	-1.92
729.357	-4.92
729.382	-7.92
729.408	17.08
729.433	3.08
729.458	-1.92
729.483	16.08
729.508	39.08
729.533	10.08
729.559	3.08
729.584	-12.92
729.609	21.08
729.634	7.08
729.659	15.08
729.684	-3.92
729.71	12.08
729.735	-2.92
729.76	-9.92
729.785	-0.92
729.81	2.08
729.835	19.08
729.86	2.08
729.886	19.08
729.911	22.08
729.936	4.08
729.961	31.08
729.986	16.08
730.011	66.08
730.036	194.08
730.061	1018.08
730.086	2731.08
730.112	3421.08
730.137	2873.08
730.162	2179.08
730.187	1676.08
730.212	1287.08
730.237	801.08
730.262	459.08
730.287	248.08
730.312	149.08
730.337	83.08
730.362	66.08
730.387	33.08
730.413	16.08
730.438	28.08
730.463	27.08
730.488	14.08
730.513	13.08
730.538	5.08
730.563	27.08
730.588	24.08
730.613	19.08
730.638	9.08
730.663	2.08
730.688	33.08
730.713	2.08
730.738	10.08
730.763	14.08
730.788	-3.92
730.813	12.08
730.838	10.08
730.863	12.08
730.888	11.08
730.913	-7.92
730.938	8.08
730.963	25.08
730.988	122.08
731.013	412.08
731.038	623.08
731.063	581.08
731.088	459.08
731.113	353.08
731.138	274.08
731.163	177.08
731.188	98.08
731.213	66.08
731.238	37.08
731.263	15.08
731.288	8.08
731.313	24.08
731.338	20.08
731.363	17.08
731.388	16.08
731.413	5.08
731.438	23.08
731.463	-2.92
731.487	9.08
731.512	3.08
731.537	6.08
731.562	-6.92
731.587	0.08
731.612	-4.92
731.637	4.08
731.662	-4.92
731.687	5.08
731.712	-17.92
731.737	-6.92
731.762	-2.92
731.786	9.08
731.811	19.08
731.836	9.08
731.861	-5.92
731.886	1.08
731.911	-3.92
731.936	4.08
731.961	-4.92
731.986	4.08
732.01	1.08
732.035	4.08
732.06	22.08
732.085	11.08
732.11	12.08
732.135	-19.92
732.16	8.08
732.184	8.08
732.209	-0.92
732.234	15.08
732.259	4.08
732.284	10.08
732.309	11.08
732.334	15.08
732.358	8.08
732.383	-3.92
732.408	5.08
732.433	0.08
732.458	7.08
732.482	9.08
732.507	-0.92
732.532	16.08
732.557	26.08
732.582	20.08
732.607	29.08
732.631	66.08
732.656	90.08
732.681	159.08
732.706	345.08
732.73	449.08
732.755	404.08
732.78	304.08
732.805	227.08
732.83	189.08
732.854	125.08
732.879	78.08
732.904	47.08
732.929	32.08
732.953	23.08
732.978	20.08
733.003	10.08
733.028	-6.92
733.052	5.08
733.077	1.08
733.102	19.08
733.127	4.08
733.151	-3.92
733.176	8.08
733.201	2.08
733.226	8.08
733.25	16.08
733.275	12.08
733.3	0.08
733.324	16.08
733.349	9.08
733.374	24.08
733.399	8.08
733.423	3.08
733.448	7.08
733.473	-5.92
733.497	1.08
733.522	-14.92
733.547	10.08
733.571	16.08
733.596	12.08
733.621	4.08
733.646	-0.92
733.67	14.08
733.695	4.08
733.72	9.08
733.744	3.08
733.769	-0.92
733.794	18.08
733.818	3.08
733.843	1.08
733.867	3.08
733.892	4.08
733.917	16.08
733.941	-0.92
733.966	-8.92
733.991	1.08
734.015	24.08
734.04	18.08
734.065	26.08
734.089	22.08
734.114	-2.92
734.138	11.08
734.163	-0.92
734.188	3.08
734.212	12.08
734.237	17.08
734.261	16.08
734.286	-0.92
734.311	1.08
734.335	13.08
734.36	-2.92
734.384	10.08
734.409	7.08
734.434	3.08
734.458	7.08
734.483	13.08
734.507	-6.92
734.532	-7.92
734.556	3.08
734.581	3.08
734.606	-5.92
734.63	-7.92
734.655	-5.92
734.679	11.08
734.704	-3.92
734.728	-5.92
734.753	-3.92
734.777	13.08
734.802	-1.92
734.826	3.08
734.851	0.08
734.876	14.08
734.9	25.08
734.925	10.08
734.949	8.08
734.974	0.08
734.998	11.08
735.023	-16.92
735.047	0.08
735.072	20.08
735.096	1.08
735.121	0.08
735.145	-6.92
735.17	-3.92
735.194	16.08
735.219	1.08
735.243	17.08
735.268	17.08
735.292	7.08
735.317	2.08
735.341	-8.92
735.365	-7.92
735.39	4.08
735.414	12.08
735.439	1.08
735.463	2.08
735.488	0.08
735.512	5.08
735.537	7.08
735.561	14.08
735.586	1.08
735.61	3.08
735.634	10.08
735.659	6.08
735.683	16.08
735.708	-12.92
735.732	-6.92
735.757	-13.92
735.781	-8.92
735.805	-2.92
735.83	-6.92
735.854	-8.92
735.879	1.08
735.903	7.08
735.927	13.08
735.952	13.08
735.976	-2.92
736.001	-6.92
736.025	-0.92
736.049	22.08
736.074	7.08
736.098	3.08
736.123	16.08
736.147	4.08
736.171	7.08
736.196	-0.92
736.22	2.08
736.244	4.08
736.269	7.08
736.293	5.08
736.317	-3.92
736.342	7.08
736.366	19.08
736.39	30.08
736.415	1.08
736.439	1.08
736.463	12.08
736.488	11.08
736.512	0.08
736.536	11.08
736.561	22.08
736.585	-4.92
736.609	4.08
736.634	-5.92
736.658	-8.92
736.682	-27.92
736.707	-18.92
736.731	-21.92
736.755	-0.92
736.78	28.08
736.804	27.08
736.828	4.08
736.852	0.08
736.877	13.08
736.901	15.08
736.925	5.08
736.949	2.08
736.974	-3.92
736.998	-2.92
737.022	5.08
737.047	6.08
737.071	10.08
737.095	13.08
737.119	19.08
737.144	19.08
737.168	3.08
737.192	1.08
737.216	18.08
737.241	1.08
737.265	7.08
737.289	5.08
737.313	-2.92
737.337	13.08
737.362	6.08
737.386	-3.92
737.41	2.08
737.434	-0.92
737.459	-5.92
737.483	28.08
737.507	1.08
737.531	23.08
737.555	1.08
737.58	11.08
737.604	10.08
737.628	-8.92
737.652	6.08
737.676	-11.92
737.701	8.08
737.725	11.08
737.749	0.08
737.773	8.08
737.797	3.08
737.821	3.08
737.846	1.08
737.87	29.08
737.894	2.08
737.918	-0.92
737.942	-9.92
737.966	1.08
737.99	25.08
738.015	10.08
738.039	3.08
738.063	6.08
738.087	19.08
738.111	-6.92
738.135	7.08
738.159	-3.92
738.184	-3.92
738.208	15.08
738.232	3.08
738.256	20.08
738.28	17.08
738.304	8.08
738.328	5.08
738.352	7.08
738.376	-5.92
738.4	10.08
738.425	5.08
738.449	-1.92
738.473	15.08
738.497	12.08
738.521	3.08
738.545	15.08
738.569	4.08
738.593	27.08
738.617	-3.92
738.641	-0.92
738.665	-6.92
738.689	8.08
738.713	-4.92
738.737	1.08
738.762	20.08
738.786	-5.92
738.81	-8.92
738.834	11.08
738.858	-7.92
738.882	-2.92
738.906	-9.92
738.93	6.08
738.954	4.08
738.978	16.08
739.002	-0.92
739.026	16.08
739.05	13.08
739.074	-4.92
739.098	21.08
739.122	8.08
739.146	18.08
739.17	18.08
739.194	10.08
739.218	8.08
739.242	2.08
739.266	-0.92
739.29	14.08
739.314	3.08
739.338	0.08
739.362	1.08
739.386	8.08
739.41	0.08
739.434	-0.92
739.458	-0.92
739.482	13.08
739.506	8.08
739.53	-12.92
739.554	16.08
739.577	-0.92
739.601	16.08
739.625	-6.92
739.649	-6.92
739.673	2.08
739.697	10.08
739.721	6.08
739.745	13.08
739.769	12.08
739.793	12.08
739.817	13.08
739.841	-7.92
739.865	-0.92
739.889	-12.92
739.912	11.08
739.936	-3.92
739.96	9.08
739.984	28.08
740.008	13.08
740.032	-0.92
740.056	-0.92
740.08	11.08
740.104	-2.92
740.127	2.08
740.151	0.08
740.175	12.08
740.199	28.08
740.223	55.08
740.247	25.08
740.271	11.08
740.295	8.08
740.318	-3.92
740.342	8.08
740.366	-5.92
740.39	17.08
740.414	-10.92
740.438	-14.92
740.461	3.08
740.485	5.08
740.509	-4.92
740.533	2.08
740.557	1.08
740.581	-3.92
740.604	4.08
740.628	-0.92
740.652	7.08
740.676	-2.92
740.7	19.08
740.723	-5.92
740.747	-6.92
740.771	4.08
740.795	-12.92
740.819	-1.92
740.842	-0.92
740.866	4.08
740.89	8.08
740.914	8.08
740.938	-22.92
740.961	10.08
740.985	7.08
741.009	1.08
741.033	5.08
741.056	6.08
741.08	-0.92
741.104	-5.92
741.128	5.08
741.151	19.08
741.175	7.08
741.199	-2.92
741.223	17.08
741.246	-13.92
741.27	4.08
741.294	8.08
741.318	-5.92
741.341	-12.92
741.365	-3.92
741.389	7.08
741.413	0.08
741.436	1.08
741.46	-0.92
741.484	26.08
741.507	19.08
741.531	24.08
741.555	27.08
741.579	2.08
741.602	15.08
741.626	13.08
741.65	3.08
741.673	-4.92
741.697	10.08
741.721	-3.92
741.744	-10.92
741.768	-5.92
741.792	-1.92
741.815	4.08
741.839	23.08
741.863	23.08
741.886	25.08
741.91	11.08
741.934	10.08
741.957	-3.92
741.981	14.08
742.005	1.08
742.028	-3.92
742.052	-3.92
742.075	18.08
742.099	19.08
742.123	17.08
742.146	14.08
742.17	8.08
742.194	-17.92
742.217	-5.92
742.241	3.08
742.264	-5.92
742.288	17.08
742.312	11.08
742.335	0.08
742.359	-3.92
742.382	6.08
742.406	10.08
742.43	-8.92
742.453	7.08
742.477	-17.92
742.5	-5.92
742.524	4.08
742.548	-3.92
742.571	-5.92
742.595	-2.92
742.618	-0.92
742.642	9.08
742.665	9.08
742.689	-3.92
742.712	1.08
742.736	-5.92
742.76	-7.92
742.783	5.08
742.807	4.08
742.83	20.08
742.854	0.08
742.877	8.08
742.901	-2.92
742.924	-10.92
742.948	-6.92
742.971	5.08
742.995	2.08
743.018	-6.92
743.042	-1.92
743.065	0.08
743.089	-15.92
743.112	-8.92
743.136	-5.92
743.159	1.08
743.183	7.08
743.206	16.08
743.23	11.08
743.253	7.08
743.277	13.08
743.3	-10.92
743.324	4.08
743.347	-4.92
743.371	27.08
743.394	32.08
743.418	37.08
743.441	13.08
743.465	2.08
743.488	-3.92
743.512	-2.92
743.535	2.08
743.558	5.08
743.582	0.08
743.605	0.08
743.629	11.08
743.652	8.08
743.676	-2.92
743.699	11.08
743.723	24.08
743.746	21.08
743.769	4.08
743.793	8.08
743.816	-12.92
743.84	20.08
743.863	4.08
743.886	5.08
743.91	7.08
743.933	6.08
743.957	9.08
743.98	7.08
744.003	2.08
744.027	10.08
744.05	-5.92
744.074	11.08
744.097	-16.92
744.12	-4.92
744.144	6.08
744.167	17.08
744.19	-5.92
744.214	4.08
744.237	-11.92
744.26	14.08
744.284	6.08
744.307	-9.92
744.331	-4.92
744.354	9.08
744.377	-8.92
744.401	-1.92
744.424	19.08
744.447	3.08
744.471	10.08
