Data from HighRes_mercury_15_13_11_07_2024_HR4C61891__90__15-14-32-185.txt Node

Date: Thu Nov 07 15:14:32 EST 2024
User: crc00042
Spectrometer: HR4C6189
Trigger mode: 4
Integration Time (sec): 1.000000E-1
Scans to average: 1
Electric dark correction enabled: true
Nonlinearity correction enabled: false
Boxcar width: 0
XAxis mode: Wavelengths
Number of Pixels in Spectrum: 3648
>>>>>Begin Spectral Data<<<<<
639.567	-26.08
639.602	-26.08
639.636	-26.08
639.67	-37.08
639.704	-13.08
639.738	-5.08
639.773	7.92
639.807	-15.08
639.841	0.92
639.875	10.92
639.909	-7.08
639.943	-11.08
639.978	-10.08
640.012	-0.08
640.046	15.92
640.08	6.92
640.114	8.92
640.148	-3.08
640.182	-0.08
640.217	-1.08
640.251	20.92
640.285	20.92
640.319	-13.08
640.353	-15.08
640.387	-5.08
640.421	2.92
640.455	-8.08
640.49	-1.08
640.524	1.92
640.558	3.92
640.592	-1.08
640.626	6.92
640.66	18.92
640.694	-23.08
640.728	2.92
640.762	4.92
640.796	4.92
640.83	12.92
640.865	12.92
640.899	-0.08
640.933	4.92
640.967	-20.08
641.001	-0.08
641.035	10.92
641.069	10.92
641.103	-21.08
641.137	0.92
641.171	-9.08
641.205	12.92
641.239	3.92
641.273	3.92
641.307	3.92
641.341	6.92
641.375	1.92
641.409	-2.08
641.443	1.92
641.477	17.92
641.511	16.92
641.545	-4.08
641.579	7.92
641.614	14.92
641.648	22.92
641.682	-2.08
641.716	20.92
641.75	17.92
641.784	6.92
641.818	7.92
641.852	21.92
641.886	0.92
641.919	4.92
641.953	7.92
641.987	0.92
642.021	-3.08
642.055	6.92
642.089	0.92
642.123	-0.08
642.157	-8.08
642.191	-9.08
642.225	4.92
642.259	-9.08
642.293	14.92
642.327	-7.08
642.361	-1.08
642.395	16.92
642.429	15.92
642.463	0.92
642.497	12.92
642.531	5.92
642.565	-8.08
642.599	-5.08
642.633	3.92
642.666	13.92
642.7	14.92
642.734	17.92
642.768	-7.08
642.802	-0.08
642.836	7.92
642.87	1.92
642.904	8.92
642.938	10.92
642.972	16.92
643.005	-1.08
643.039	8.92
643.073	4.92
643.107	17.92
643.141	6.92
643.175	11.92
643.209	14.92
643.243	4.92
643.276	19.92
643.31	6.92
643.344	-8.08
643.378	-12.08
643.412	7.92
643.446	-5.08
643.48	0.92
643.513	6.92
643.547	5.92
643.581	-3.08
643.615	-6.08
643.649	2.92
643.683	4.92
643.716	0.92
643.75	22.92
643.784	-6.08
643.818	5.92
643.852	-4.08
643.886	-6.08
643.919	6.92
643.953	3.92
643.987	-4.08
644.021	5.92
644.055	0.92
644.088	1.92
644.122	-25.08
644.156	-15.08
644.19	-0.08
644.224	4.92
644.257	10.92
644.291	11.92
644.325	5.92
644.359	0.92
644.392	17.92
644.426	18.92
644.46	15.92
644.494	7.92
644.527	-12.08
644.561	-8.08
644.595	3.92
644.629	-0.08
644.662	-4.08
644.696	12.92
644.73	4.92
644.764	7.92
644.797	18.92
644.831	12.92
644.865	18.92
644.899	0.92
644.932	26.92
644.966	1.92
645	21.92
645.033	0.92
645.067	-6.08
645.101	-1.08
645.135	6.92
645.168	3.92
645.202	-8.08
645.236	1.92
645.269	6.92
645.303	0.92
645.337	-26.08
645.37	-9.08
645.404	10.92
645.438	0.92
645.471	-8.08
645.505	2.92
645.539	-12.08
645.572	5.92
645.606	-4.08
645.64	6.92
645.673	1.92
645.707	29.92
645.741	10.92
645.774	8.92
645.808	5.92
645.842	14.92
645.875	10.92
645.909	0.92
645.943	-1.08
645.976	9.92
646.01	8.92
646.043	13.92
646.077	22.92
646.111	-4.08
646.144	4.92
646.178	18.92
646.212	8.92
646.245	10.92
646.279	6.92
646.312	5.92
646.346	-1.08
646.38	6.92
646.413	28.92
646.447	15.92
646.48	5.92
646.514	6.92
646.547	-18.08
646.581	2.92
646.615	9.92
646.648	1.92
646.682	6.92
646.715	9.92
646.749	30.92
646.782	11.92
646.816	5.92
646.85	18.92
646.883	5.92
646.917	8.92
646.95	10.92
646.984	-0.08
647.017	10.92
647.051	1.92
647.084	7.92
647.118	2.92
647.151	-16.08
647.185	-0.08
647.218	-2.08
647.252	3.92
647.285	-0.08
647.319	-17.08
647.353	6.92
647.386	19.92
647.42	0.92
647.453	6.92
647.487	10.92
647.52	-3.08
647.553	-1.08
647.587	-7.08
647.62	-7.08
647.654	-0.08
647.687	15.92
647.721	7.92
647.754	3.92
647.788	-8.08
647.821	0.92
647.855	7.92
647.888	13.92
647.922	11.92
647.955	12.92
647.989	2.92
648.022	1.92
648.055	4.92
648.089	-5.08
648.122	26.92
648.156	0.92
648.189	8.92
648.223	-5.08
648.256	19.92
648.29	10.92
648.323	-2.08
648.356	7.92
648.39	14.92
648.423	-6.08
648.457	8.92
648.49	10.92
648.523	-2.08
648.557	0.92
648.59	0.92
648.624	12.92
648.657	10.92
648.69	20.92
648.724	3.92
648.757	16.92
648.791	8.92
648.824	16.92
648.857	35.92
648.891	19.92
648.924	-3.08
648.957	11.92
648.991	1.92
649.024	7.92
649.057	2.92
649.091	6.92
649.124	24.92
649.158	20.92
649.191	13.92
649.224	10.92
649.258	11.92
649.291	6.92
649.324	4.92
649.358	9.92
649.391	11.92
649.424	5.92
649.458	-5.08
649.491	9.92
649.524	-15.08
649.557	-17.08
649.591	-5.08
649.624	22.92
649.657	-3.08
649.691	0.92
649.724	6.92
649.757	1.92
649.791	-10.08
649.824	5.92
649.857	20.92
649.89	4.92
649.924	-13.08
649.957	-4.08
649.99	-16.08
650.023	-0.08
650.057	0.92
650.09	-6.08
650.123	-0.08
650.157	11.92
650.19	12.92
650.223	-16.08
650.256	-11.08
650.29	-4.08
650.323	0.92
650.356	5.92
650.389	1.92
650.423	-13.08
650.456	9.92
650.489	7.92
650.522	-2.08
650.555	14.92
650.589	21.92
650.622	0.92
650.655	22.92
650.688	14.92
650.721	-2.08
650.755	2.92
650.788	12.92
650.821	0.92
650.854	-2.08
650.887	-8.08
650.921	3.92
650.954	5.92
650.987	11.92
651.02	0.92
651.053	-9.08
651.087	-25.08
651.12	17.92
651.153	-2.08
651.186	4.92
651.219	-13.08
651.252	-4.08
651.286	4.92
651.319	11.92
651.352	0.92
651.385	0.92
651.418	6.92
651.451	17.92
651.484	3.92
651.518	-5.08
651.551	12.92
651.584	-5.08
651.617	12.92
651.65	4.92
651.683	22.92
651.716	1.92
651.749	-2.08
651.783	5.92
651.816	-7.08
651.849	16.92
651.882	25.92
651.915	-9.08
651.948	7.92
651.981	-16.08
652.014	-25.08
652.047	-27.08
652.08	-4.08
652.114	7.92
652.147	-3.08
652.18	-4.08
652.213	10.92
652.246	-5.08
652.279	-1.08
652.312	8.92
652.345	-0.08
652.378	5.92
652.411	3.92
652.444	10.92
652.477	-0.08
652.51	15.92
652.543	-3.08
652.576	13.92
652.609	-9.08
652.642	8.92
652.675	5.92
652.709	-1.08
652.742	3.92
652.775	3.92
652.808	9.92
652.841	4.92
652.874	-0.08
652.907	-1.08
652.94	2.92
652.973	-2.08
653.006	0.92
653.039	2.92
653.072	12.92
653.105	-8.08
653.138	-10.08
653.171	7.92
653.204	0.92
653.237	-0.08
653.27	4.92
653.303	18.92
653.336	14.92
653.368	-11.08
653.401	-16.08
653.434	-0.08
653.467	5.92
653.5	-21.08
653.533	-14.08
653.566	6.92
653.599	5.92
653.632	1.92
653.665	-4.08
653.698	-18.08
653.731	-15.08
653.764	11.92
653.797	-5.08
653.83	6.92
653.863	4.92
653.896	6.92
653.929	4.92
653.961	-1.08
653.994	12.92
654.027	7.92
654.06	3.92
654.093	2.92
654.126	-5.08
654.159	-2.08
654.192	1.92
654.225	1.92
654.258	-7.08
654.29	6.92
654.323	1.92
654.356	-6.08
654.389	0.92
654.422	3.92
654.455	14.92
654.488	-10.08
654.521	-12.08
654.553	-7.08
654.586	-3.08
654.619	-0.08
654.652	-7.08
654.685	-1.08
654.718	7.92
654.751	19.92
654.783	-4.08
654.816	18.92
654.849	1.92
654.882	6.92
654.915	-1.08
654.948	4.92
654.98	6.92
655.013	11.92
655.046	9.92
655.079	-4.08
655.112	-6.08
655.144	-4.08
655.177	-6.08
655.21	12.92
655.243	14.92
655.276	12.92
655.308	-7.08
655.341	-13.08
655.374	-2.08
655.407	-22.08
655.44	-16.08
655.472	10.92
655.505	3.92
655.538	-0.08
655.571	4.92
655.603	-8.08
655.636	-18.08
655.669	-4.08
655.702	1.92
655.734	-6.08
655.767	-6.08
655.8	13.92
655.833	2.92
655.865	-12.08
655.898	-4.08
655.931	-11.08
655.964	1.92
655.996	4.92
656.029	9.92
656.062	-9.08
656.095	-11.08
656.127	-11.08
656.16	-8.08
656.193	1.92
656.225	1.92
656.258	-4.08
656.291	0.92
656.324	-1.08
656.356	28.92
656.389	15.92
656.422	15.92
656.454	-6.08
656.487	-2.08
656.52	6.92
656.552	0.92
656.585	0.92
656.618	15.92
656.65	15.92
656.683	3.92
656.716	7.92
656.748	12.92
656.781	3.92
656.814	-1.08
656.846	18.92
656.879	-1.08
656.912	8.92
656.944	-8.08
656.977	7.92
657.01	-1.08
657.042	6.92
657.075	2.92
657.108	-14.08
657.14	-10.08
657.173	0.92
657.205	17.92
657.238	11.92
657.271	-7.08
657.303	-18.08
657.336	-7.08
657.369	-0.08
657.401	4.92
657.434	-2.08
657.466	10.92
657.499	0.92
657.532	20.92
657.564	12.92
657.597	-3.08
657.629	-8.08
657.662	4.92
657.694	4.92
657.727	-13.08
657.76	5.92
657.792	-13.08
657.825	-9.08
657.857	2.92
657.89	-4.08
657.922	11.92
657.955	-16.08
657.987	-1.08
658.02	-0.08
658.053	18.92
658.085	8.92
658.118	-12.08
658.15	6.92
658.183	20.92
658.215	-7.08
658.248	-7.08
658.28	14.92
658.313	23.92
658.345	13.92
658.378	0.92
658.41	7.92
658.443	-5.08
658.475	-1.08
658.508	-15.08
658.54	-12.08
658.573	-3.08
658.605	4.92
658.638	-0.08
658.67	-9.08
658.703	2.92
658.735	-12.08
658.768	3.92
658.8	-7.08
658.833	12.92
658.865	7.92
658.898	15.92
658.93	1.92
658.963	14.92
658.995	-11.08
659.028	10.92
659.06	-2.08
659.092	0.92
659.125	-7.08
659.157	16.92
659.19	-7.08
659.222	1.92
659.255	10.92
659.287	4.92
659.32	13.92
659.352	-1.08
659.384	5.92
659.417	-10.08
659.449	-5.08
659.482	-0.08
659.514	-15.08
659.546	4.92
659.579	-0.08
659.611	3.92
659.644	10.92
659.676	-1.08
659.708	-5.08
659.741	-16.08
659.773	9.92
659.806	-1.08
659.838	1.92
659.87	7.92
659.903	-8.08
659.935	9.92
659.967	-1.08
660	15.92
660.032	-24.08
660.065	21.92
660.097	7.92
660.129	2.92
660.162	-12.08
660.194	3.92
660.226	-1.08
660.259	6.92
660.291	-0.08
660.323	7.92
660.356	6.92
660.388	-8.08
660.42	-4.08
660.453	7.92
660.485	16.92
660.517	14.92
660.55	2.92
660.582	3.92
660.614	24.92
660.647	6.92
660.679	-1.08
660.711	-4.08
660.743	-7.08
660.776	-2.08
660.808	-0.08
660.84	1.92
660.873	0.92
660.905	1.92
660.937	-9.08
660.969	4.92
661.002	0.92
661.034	17.92
661.066	5.92
661.099	1.92
661.131	18.92
661.163	0.92
661.195	3.92
661.228	5.92
661.26	11.92
661.292	10.92
661.324	-7.08
661.357	0.92
661.389	11.92
661.421	4.92
661.453	-0.08
661.485	21.92
661.518	12.92
661.55	-10.08
661.582	-12.08
661.614	2.92
661.647	-7.08
661.679	8.92
661.711	-6.08
661.743	-12.08
661.775	-2.08
661.808	20.92
661.84	-15.08
661.872	2.92
661.904	3.92
661.936	6.92
661.969	-8.08
662.001	1.92
662.033	2.92
662.065	1.92
662.097	1.92
662.129	1.92
662.162	-7.08
662.194	-6.08
662.226	-10.08
662.258	6.92
662.29	3.92
662.322	-12.08
662.355	-11.08
662.387	16.92
662.419	6.92
662.451	15.92
662.483	21.92
662.515	-5.08
662.547	2.92
662.58	-0.08
662.612	-4.08
662.644	8.92
662.676	23.92
662.708	8.92
662.74	-9.08
662.772	0.92
662.804	5.92
662.836	11.92
662.869	8.92
662.901	23.92
662.933	18.92
662.965	22.92
662.997	17.92
663.029	-10.08
663.061	-0.08
663.093	15.92
663.125	8.92
663.157	-1.08
663.189	-1.08
663.221	3.92
663.254	9.92
663.286	14.92
663.318	6.92
663.35	-12.08
663.382	-2.08
663.414	9.92
663.446	5.92
663.478	-0.08
663.51	26.92
663.542	-12.08
663.574	-0.08
663.606	5.92
663.638	-7.08
663.67	-6.08
663.702	4.92
663.734	12.92
663.766	11.92
663.798	-0.08
663.83	11.92
663.862	13.92
663.894	10.92
663.926	-9.08
663.958	17.92
663.99	-3.08
664.022	-11.08
664.054	-3.08
664.086	-20.08
664.118	-15.08
664.15	-23.08
664.182	1.92
664.214	5.92
664.246	20.92
664.278	9.92
664.31	12.92
664.342	6.92
664.374	2.92
664.406	6.92
664.438	-6.08
664.47	12.92
664.502	3.92
664.534	3.92
664.566	-0.08
664.598	12.92
664.63	4.92
664.662	2.92
664.693	-1.08
664.725	-6.08
664.757	2.92
664.789	-7.08
664.821	-11.08
664.853	9.92
664.885	2.92
664.917	-2.08
664.949	14.92
664.981	7.92
665.013	10.92
665.045	0.92
665.076	6.92
665.108	9.92
665.14	1.92
665.172	22.92
665.204	4.92
665.236	-0.08
665.268	11.92
665.3	-3.08
665.331	-2.08
665.363	-6.08
665.395	-4.08
665.427	-10.08
665.459	17.92
665.491	10.92
665.523	4.92
665.555	5.92
665.586	8.92
665.618	-15.08
665.65	-4.08
665.682	14.92
665.714	2.92
665.746	-3.08
665.777	-3.08
665.809	-9.08
665.841	7.92
665.873	-9.08
665.905	4.92
665.937	2.92
665.968	-6.08
666	14.92
666.032	12.92
666.064	-4.08
666.096	-8.08
666.127	5.92
666.159	17.92
666.191	22.92
666.223	11.92
666.255	2.92
666.286	2.92
666.318	2.92
666.35	29.92
666.382	1.92
666.413	-1.08
666.445	-13.08
666.477	-14.08
666.509	0.92
666.54	9.92
666.572	-8.08
666.604	-5.08
666.636	-0.08
666.667	20.92
666.699	14.92
666.731	-6.08
666.763	4.92
666.794	-6.08
666.826	-17.08
666.858	-4.08
666.89	17.92
666.921	3.92
666.953	-0.08
666.985	13.92
667.017	17.92
667.048	11.92
667.08	19.92
667.112	0.92
667.143	-13.08
667.175	5.92
667.207	6.92
667.238	2.92
667.27	5.92
667.302	-3.08
667.334	4.92
667.365	20.92
667.397	12.92
667.429	-21.08
667.46	24.92
667.492	11.92
667.524	-2.08
667.555	-13.08
667.587	-7.08
667.619	-4.08
667.65	5.92
667.682	7.92
667.714	21.92
667.745	6.92
667.777	8.92
667.808	1.92
667.84	2.92
667.872	0.92
667.903	14.92
667.935	-13.08
667.967	-4.08
667.998	-9.08
668.03	-0.08
668.061	-5.08
668.093	6.92
668.125	8.92
668.156	10.92
668.188	-1.08
668.22	1.92
668.251	14.92
668.283	12.92
668.314	21.92
668.346	12.92
668.377	23.92
668.409	21.92
668.441	18.92
668.472	6.92
668.504	7.92
668.535	6.92
668.567	15.92
668.599	9.92
668.63	-2.08
668.662	16.92
668.693	16.92
668.725	9.92
668.756	2.92
668.788	-0.08
668.819	8.92
668.851	-13.08
668.882	0.92
668.914	-6.08
668.946	7.92
668.977	13.92
669.009	-12.08
669.04	-9.08
669.072	9.92
669.103	0.92
669.135	-6.08
669.166	2.92
669.198	15.92
669.229	17.92
669.261	-9.08
669.292	-5.08
669.324	8.92
669.355	-5.08
669.387	-1.08
669.418	-6.08
669.45	-15.08
669.481	0.92
669.513	-0.08
669.544	3.92
669.576	11.92
669.607	28.92
669.639	24.92
669.67	-1.08
669.701	13.92
669.733	-15.08
669.764	-2.08
669.796	2.92
669.827	-5.08
669.859	0.92
669.89	14.92
669.922	12.92
669.953	17.92
669.985	29.92
670.016	27.92
670.047	8.92
670.079	7.92
670.11	1.92
670.142	2.92
670.173	0.92
670.204	-5.08
670.236	7.92
670.267	-12.08
670.299	-0.08
670.33	-0.08
670.362	2.92
670.393	-8.08
670.424	14.92
670.456	-20.08
670.487	2.92
670.518	5.92
670.55	9.92
670.581	10.92
670.613	10.92
670.644	-10.08
670.675	-8.08
670.707	-19.08
670.738	0.92
670.769	-1.08
670.801	-0.08
670.832	10.92
670.864	12.92
670.895	9.92
670.926	1.92
670.958	-5.08
670.989	8.92
671.02	8.92
671.052	2.92
671.083	-5.08
671.114	-5.08
671.146	11.92
671.177	9.92
671.208	-12.08
671.24	-11.08
671.271	2.92
671.302	-7.08
671.333	-8.08
671.365	-13.08
671.396	-13.08
671.427	2.92
671.459	-1.08
671.49	3.92
671.521	1.92
671.553	7.92
671.584	6.92
671.615	-0.08
671.646	10.92
671.678	-2.08
671.709	-13.08
671.74	-5.08
671.771	-2.08
671.803	-3.08
671.834	11.92
671.865	-3.08
671.896	11.92
671.928	4.92
671.959	-4.08
671.99	-0.08
672.021	-12.08
672.053	-4.08
672.084	14.92
672.115	15.92
672.146	2.92
672.178	-16.08
672.209	-12.08
672.24	-4.08
672.271	18.92
672.303	10.92
672.334	-6.08
672.365	-3.08
672.396	13.92
672.427	-1.08
672.459	2.92
672.49	19.92
672.521	-1.08
672.552	2.92
672.583	0.92
672.615	-9.08
672.646	10.92
672.677	-0.08
672.708	-5.08
672.739	-11.08
672.77	17.92
672.802	3.92
672.833	-8.08
672.864	8.92
672.895	6.92
672.926	2.92
672.957	-8.08
672.989	-5.08
673.02	5.92
673.051	2.92
673.082	2.92
673.113	-7.08
673.144	-10.08
673.175	-7.08
673.206	2.92
673.238	10.92
673.269	10.92
673.3	-14.08
673.331	10.92
673.362	5.92
673.393	11.92
673.424	0.92
673.455	19.92
673.487	11.92
673.518	8.92
673.549	0.92
673.58	7.92
673.611	-2.08
673.642	0.92
673.673	-17.08
673.704	7.92
673.735	-8.08
673.766	-4.08
673.797	0.92
673.828	10.92
673.86	0.92
673.891	-11.08
673.922	-7.08
673.953	-9.08
673.984	1.92
674.015	-0.08
674.046	5.92
674.077	2.92
674.108	-8.08
674.139	-1.08
674.17	-8.08
674.201	-12.08
674.232	1.92
674.263	-10.08
674.294	13.92
674.325	-9.08
674.356	1.92
674.387	18.92
674.418	2.92
674.449	-7.08
674.48	-9.08
674.511	1.92
674.542	13.92
674.573	-11.08
674.604	9.92
674.635	-0.08
674.666	9.92
674.697	-2.08
674.728	-5.08
674.759	0.92
674.79	-10.08
674.821	-21.08
674.852	-3.08
674.883	-8.08
674.914	2.92
674.945	14.92
674.976	12.92
675.007	-0.08
675.038	-5.08
675.069	-8.08
675.1	-17.08
675.131	9.92
675.162	-7.08
675.193	-19.08
675.224	4.92
675.254	2.92
675.285	-1.08
675.316	4.92
675.347	1.92
675.378	-13.08
675.409	-17.08
675.44	-4.08
675.471	5.92
675.502	2.92
675.533	10.92
675.564	-6.08
675.595	1.92
675.625	14.92
675.656	-3.08
675.687	-1.08
675.718	-7.08
675.749	-2.08
675.78	10.92
675.811	-6.08
675.842	16.92
675.873	0.92
675.903	-0.08
675.934	4.92
675.965	-1.08
675.996	-5.08
676.027	4.92
676.058	8.92
676.089	-14.08
676.119	2.92
676.15	-3.08
676.181	-0.08
676.212	-0.08
676.243	6.92
676.274	5.92
676.304	15.92
676.335	-17.08
676.366	-5.08
676.397	11.92
676.428	4.92
676.459	7.92
676.489	8.92
676.52	8.92
676.551	-0.08
676.582	10.92
676.613	2.92
676.643	-2.08
676.674	6.92
676.705	-3.08
676.736	-0.08
676.767	18.92
676.797	21.92
676.828	2.92
676.859	-11.08
676.89	-5.08
676.92	-10.08
676.951	6.92
676.982	12.92
677.013	3.92
677.044	23.92
677.074	11.92
677.105	-2.08
677.136	3.92
677.167	10.92
677.197	2.92
677.228	16.92
677.259	-9.08
677.289	6.92
677.32	-2.08
677.351	2.92
677.382	0.92
677.412	-4.08
677.443	2.92
677.474	12.92
677.505	-8.08
677.535	7.92
677.566	3.92
677.597	5.92
677.627	2.92
677.658	-1.08
677.689	-1.08
677.72	7.92
677.75	0.92
677.781	-8.08
677.812	6.92
677.842	15.92
677.873	11.92
677.904	8.92
677.934	1.92
677.965	-11.08
677.996	-16.08
678.026	1.92
678.057	1.92
678.088	-15.08
678.118	-0.08
678.149	1.92
678.18	19.92
678.21	-1.08
678.241	2.92
678.272	-8.08
678.302	15.92
678.333	20.92
678.363	8.92
678.394	-0.08
678.425	-8.08
678.455	3.92
678.486	2.92
678.517	5.92
678.547	9.92
678.578	-2.08
678.608	-14.08
678.639	11.92
678.67	8.92
678.7	-12.08
678.731	-8.08
678.761	-7.08
678.792	5.92
678.823	11.92
678.853	6.92
678.884	-9.08
678.914	10.92
678.945	7.92
678.975	-14.08
679.006	7.92
679.037	-8.08
679.067	11.92
679.098	-10.08
679.128	-4.08
679.159	-3.08
679.189	21.92
679.22	-1.08
679.25	11.92
679.281	18.92
679.312	0.92
679.342	16.92
679.373	24.92
679.403	-4.08
679.434	28.92
679.464	2.92
679.495	0.92
679.525	3.92
679.556	-11.08
679.586	9.92
679.617	-0.08
679.647	-4.08
679.678	12.92
679.708	-4.08
679.739	-14.08
679.769	-2.08
679.8	-14.08
679.83	-2.08
679.861	7.92
679.891	-21.08
679.922	-7.08
679.952	-3.08
679.983	30.92
680.013	12.92
680.044	-0.08
680.074	11.92
680.105	25.92
680.135	14.92
680.165	4.92
680.196	3.92
680.226	13.92
680.257	4.92
680.287	6.92
680.318	3.92
680.348	-8.08
680.379	29.92
680.409	6.92
680.439	-9.08
680.47	0.92
680.5	1.92
680.531	6.92
680.561	18.92
680.592	2.92
680.622	8.92
680.652	-1.08
680.683	10.92
680.713	6.92
680.744	-3.08
680.774	-1.08
680.804	24.92
680.835	-5.08
680.865	-7.08
680.896	6.92
680.926	18.92
680.956	11.92
680.987	-1.08
681.017	-10.08
681.047	4.92
681.078	0.92
681.108	-3.08
681.139	2.92
681.169	1.92
681.199	-10.08
681.23	-0.08
681.26	-7.08
681.29	7.92
681.321	-1.08
681.351	-9.08
681.381	-12.08
681.412	1.92
681.442	-0.08
681.472	12.92
681.503	17.92
681.533	3.92
681.563	5.92
681.594	11.92
681.624	12.92
681.654	-11.08
681.685	-2.08
681.715	-10.08
681.745	9.92
681.775	-9.08
681.806	9.92
681.836	0.92
681.866	0.92
681.897	10.92
681.927	3.92
681.957	-15.08
681.987	20.92
682.018	5.92
682.048	-9.08
682.078	-4.08
682.109	9.92
682.139	18.92
682.169	-0.08
682.199	-1.08
682.23	6.92
682.26	2.92
682.29	7.92
682.32	3.92
682.351	-6.08
682.381	2.92
682.411	-6.08
682.441	-1.08
682.472	-9.08
682.502	0.92
682.532	5.92
682.562	-12.08
682.592	3.92
682.623	25.92
682.653	12.92
682.683	-10.08
682.713	-0.08
682.743	0.92
682.774	-10.08
682.804	-9.08
682.834	13.92
682.864	-2.08
682.894	-11.08
682.925	6.92
682.955	7.92
682.985	-4.08
683.015	10.92
683.045	-2.08
683.076	-4.08
683.106	-4.08
683.136	7.92
683.166	2.92
683.196	-10.08
683.226	2.92
683.257	1.92
683.287	-0.08
683.317	-9.08
683.347	-10.08
683.377	-2.08
683.407	8.92
683.437	5.92
683.468	10.92
683.498	4.92
683.528	1.92
683.558	-9.08
683.588	-15.08
683.618	-6.08
683.648	-4.08
683.678	0.92
683.708	17.92
683.739	-4.08
683.769	3.92
683.799	-6.08
683.829	10.92
683.859	1.92
683.889	4.92
683.919	-2.08
683.949	0.92
683.979	-1.08
684.009	-5.08
684.039	12.92
684.07	-0.08
684.1	4.92
684.13	8.92
684.16	-0.08
684.19	5.92
684.22	2.92
684.25	10.92
684.28	-7.08
684.31	7.92
684.34	14.92
684.37	9.92
684.4	9.92
684.43	7.92
684.46	8.92
684.49	13.92
684.52	20.92
684.55	12.92
684.58	10.92
684.61	7.92
684.64	12.92
684.67	21.92
684.7	14.92
684.73	9.92
684.76	0.92
684.79	14.92
684.82	6.92
684.85	-15.08
684.88	-0.08
684.91	12.92
684.94	-3.08
684.97	-9.08
685	-16.08
685.03	-7.08
685.06	-7.08
685.09	-1.08
685.12	6.92
685.15	-8.08
685.18	10.92
685.21	12.92
685.24	5.92
685.27	7.92
685.3	-12.08
685.33	-10.08
685.36	-10.08
685.39	2.92
685.42	1.92
685.45	-2.08
685.48	-0.08
685.51	-5.08
685.54	21.92
685.569	12.92
685.599	0.92
685.629	12.92
685.659	-0.08
685.689	-9.08
685.719	2.92
685.749	-11.08
685.779	16.92
685.809	0.92
685.839	10.92
685.869	-0.08
685.898	33.92
685.928	-6.08
685.958	-17.08
685.988	7.92
686.018	5.92
686.048	9.92
686.078	7.92
686.108	17.92
686.137	-6.08
686.167	0.92
686.197	-15.08
686.227	8.92
686.257	27.92
686.287	12.92
686.317	1.92
686.346	-0.08
686.376	-11.08
686.406	-4.08
686.436	0.92
686.466	-1.08
686.496	15.92
686.525	-7.08
686.555	0.92
686.585	19.92
686.615	22.92
686.645	5.92
686.675	6.92
686.704	-0.08
686.734	-8.08
686.764	8.92
686.794	0.92
686.824	2.92
686.853	7.92
686.883	19.92
686.913	15.92
686.943	-2.08
686.973	-11.08
687.002	-1.08
687.032	-1.08
687.062	-5.08
687.092	24.92
687.121	15.92
687.151	5.92
687.181	7.92
687.211	23.92
687.24	-4.08
687.27	-0.08
687.3	-8.08
687.33	-2.08
687.359	-3.08
687.389	14.92
687.419	11.92
687.449	5.92
687.478	15.92
687.508	1.92
687.538	22.92
687.568	-8.08
687.597	-6.08
687.627	2.92
687.657	6.92
687.686	4.92
687.716	10.92
687.746	-14.08
687.776	-10.08
687.805	9.92
687.835	0.92
687.865	12.92
687.894	18.92
687.924	4.92
687.954	2.92
687.983	3.92
688.013	12.92
688.043	5.92
688.072	-6.08
688.102	-2.08
688.132	2.92
688.161	-4.08
688.191	2.92
688.221	36.92
688.25	6.92
688.28	-13.08
688.31	-11.08
688.339	4.92
688.369	2.92
688.399	-4.08
688.428	-8.08
688.458	16.92
688.488	-5.08
688.517	-1.08
688.547	3.92
688.576	26.92
688.606	18.92
688.636	-0.08
688.665	21.92
688.695	19.92
688.725	16.92
688.754	27.92
688.784	16.92
688.813	6.92
688.843	6.92
688.873	3.92
688.902	-13.08
688.932	-7.08
688.961	6.92
688.991	9.92
689.02	15.92
689.05	2.92
689.08	5.92
689.109	6.92
689.139	0.92
689.168	7.92
689.198	4.92
689.227	2.92
689.257	3.92
689.287	10.92
689.316	1.92
689.346	-9.08
689.375	-15.08
689.405	3.92
689.434	5.92
689.464	2.92
689.493	4.92
689.523	7.92
689.552	-3.08
689.582	8.92
689.611	-7.08
689.641	14.92
689.67	-0.08
689.7	10.92
689.73	16.92
689.759	8.92
689.789	10.92
689.818	11.92
689.848	10.92
689.877	6.92
689.906	-2.08
689.936	-6.08
689.965	12.92
689.995	10.92
690.024	11.92
690.054	5.92
690.083	6.92
690.113	22.92
690.142	8.92
690.172	-10.08
690.201	13.92
690.231	8.92
690.26	13.92
690.29	9.92
690.319	9.92
690.348	10.92
690.378	2.92
690.407	7.92
690.437	-18.08
690.466	11.92
690.496	-6.08
690.525	13.92
690.555	3.92
690.584	3.92
690.613	3.92
690.643	17.92
690.672	12.92
690.702	3.92
690.731	0.92
690.76	29.92
690.79	54.92
690.819	51.92
690.849	33.92
690.878	16.92
690.907	30.92
690.937	30.92
690.966	26.92
690.996	0.92
691.025	6.92
691.054	-2.08
691.084	8.92
691.113	15.92
691.142	6.92
691.172	4.92
691.201	12.92
691.23	-5.08
691.26	-1.08
691.289	-3.08
691.319	-6.08
691.348	2.92
691.377	14.92
691.407	5.92
691.436	11.92
691.465	-7.08
691.495	-5.08
691.524	-10.08
691.553	-6.08
691.583	3.92
691.612	3.92
691.641	11.92
691.67	6.92
691.7	0.92
691.729	2.92
691.758	-9.08
691.788	0.92
691.817	2.92
691.846	-5.08
691.876	2.92
691.905	10.92
691.934	12.92
691.963	1.92
691.993	-9.08
692.022	-7.08
692.051	-17.08
692.081	0.92
692.11	19.92
692.139	-0.08
692.168	14.92
692.198	7.92
692.227	-0.08
692.256	-4.08
692.285	13.92
692.315	5.92
692.344	14.92
692.373	20.92
692.402	-13.08
692.432	-0.08
692.461	9.92
692.49	-3.08
692.519	8.92
692.548	31.92
692.578	27.92
692.607	-1.08
692.636	-1.08
692.665	24.92
692.694	8.92
692.724	6.92
692.753	7.92
692.782	9.92
692.811	13.92
692.84	3.92
692.87	10.92
692.899	5.92
692.928	-1.08
692.957	6.92
692.986	9.92
693.016	8.92
693.045	10.92
693.074	17.92
693.103	-2.08
693.132	-7.08
693.161	13.92
693.191	3.92
693.22	0.92
693.249	-5.08
693.278	-7.08
693.307	1.92
693.336	1.92
693.365	-1.08
693.395	-4.08
693.424	-3.08
693.453	8.92
693.482	-1.08
693.511	8.92
693.54	18.92
693.569	25.92
693.598	10.92
693.628	22.92
693.657	21.92
693.686	29.92
693.715	14.92
693.744	14.92
693.773	19.92
693.802	2.92
693.831	0.92
693.86	18.92
693.889	7.92
693.919	27.92
693.948	1.92
693.977	1.92
694.006	-1.08
694.035	3.92
694.064	10.92
694.093	10.92
694.122	4.92
694.151	4.92
694.18	12.92
694.209	30.92
694.238	11.92
694.267	32.92
694.296	13.92
694.325	0.92
694.354	21.92
694.383	22.92
694.412	2.92
694.441	1.92
694.471	-12.08
694.5	-4.08
694.529	-9.08
694.558	19.92
694.587	10.92
694.616	0.92
694.645	-4.08
694.674	-4.08
694.703	4.92
694.732	19.92
694.761	21.92
694.79	2.92
694.819	-8.08
694.848	-1.08
694.877	7.92
694.906	19.92
694.935	7.92
694.963	20.92
694.992	-8.08
695.021	13.92
695.05	11.92
695.079	4.92
695.108	0.92
695.137	35.92
695.166	0.92
695.195	-8.08
695.224	2.92
695.253	9.92
695.282	10.92
695.311	11.92
695.34	-1.08
695.369	28.92
695.398	0.92
695.427	12.92
695.456	-0.08
695.485	-2.08
695.513	6.92
695.542	-2.08
695.571	3.92
695.6	15.92
695.629	1.92
695.658	28.92
695.687	3.92
695.716	4.92
695.745	15.92
695.774	-1.08
695.802	9.92
695.831	10.92
695.86	33.92
695.889	17.92
695.918	8.92
695.947	6.92
695.976	2.92
696.005	-3.08
696.033	17.92
696.062	14.92
696.091	10.92
696.12	13.92
696.149	18.92
696.178	9.92
696.207	17.92
696.235	-2.08
696.264	12.92
696.293	-0.08
696.322	21.92
696.351	17.92
696.38	3.92
696.408	12.92
696.437	0.92
696.466	11.92
696.495	29.92
696.524	3.92
696.553	23.92
696.581	12.92
696.61	0.92
696.639	1.92
696.668	6.92
696.697	-4.08
696.725	18.92
696.754	15.92
696.783	4.92
696.812	1.92
696.84	11.92
696.869	2.92
696.898	-9.08
696.927	-3.08
696.956	15.92
696.984	-5.08
697.013	12.92
697.042	0.92
697.071	22.92
697.099	23.92
697.128	28.92
697.157	24.92
697.186	-2.08
697.214	4.92
697.243	10.92
697.272	5.92
697.301	4.92
697.329	7.92
697.358	31.92
697.387	17.92
697.415	7.92
697.444	9.92
697.473	2.92
697.502	6.92
697.53	13.92
697.559	6.92
697.588	22.92
697.616	1.92
697.645	1.92
697.674	4.92
697.703	10.92
697.731	3.92
697.76	-4.08
697.789	2.92
697.817	10.92
697.846	20.92
697.875	5.92
697.903	21.92
697.932	1.92
697.961	-12.08
697.989	9.92
698.018	7.92
698.047	6.92
698.075	14.92
698.104	-12.08
698.133	-7.08
698.161	-4.08
698.19	-1.08
698.218	14.92
698.247	19.92
698.276	-3.08
698.304	12.92
698.333	13.92
698.362	4.92
698.39	18.92
698.419	3.92
698.447	7.92
698.476	10.92
698.505	12.92
698.533	6.92
698.562	24.92
698.591	11.92
698.619	3.92
698.648	11.92
698.676	8.92
698.705	5.92
698.733	-3.08
698.762	10.92
698.791	4.92
698.819	17.92
698.848	6.92
698.876	17.92
698.905	21.92
698.933	7.92
698.962	1.92
698.991	-3.08
699.019	4.92
699.048	5.92
699.076	7.92
699.105	-2.08
699.133	-1.08
699.162	29.92
699.19	28.92
699.219	14.92
699.248	6.92
699.276	8.92
699.305	2.92
699.333	1.92
699.362	-2.08
699.39	7.92
699.419	-4.08
699.447	-10.08
699.476	1.92
699.504	-7.08
699.533	-6.08
699.561	-6.08
699.59	-5.08
699.618	-6.08
699.647	1.92
699.675	-1.08
699.704	8.92
699.732	5.92
699.761	13.92
699.789	-4.08
699.818	13.92
699.846	7.92
699.874	6.92
699.903	11.92
699.931	3.92
699.96	7.92
699.988	7.92
700.017	-1.08
700.045	3.92
700.074	3.92
700.102	6.92
700.13	-2.08
700.159	17.92
700.187	-2.08
700.216	3.92
700.244	-1.08
700.273	-3.08
700.301	8.92
700.329	16.92
700.358	4.92
700.386	-6.08
700.415	7.92
700.443	10.92
700.472	6.92
700.5	7.92
700.528	3.92
700.557	-0.08
700.585	-7.08
700.614	10.92
700.642	16.92
700.67	19.92
700.699	10.92
700.727	-2.08
700.755	6.92
700.784	0.92
700.812	-7.08
700.841	8.92
700.869	0.92
700.897	-11.08
700.926	6.92
700.954	17.92
700.982	16.92
701.011	1.92
701.039	19.92
701.067	14.92
701.096	8.92
701.124	-14.08
701.152	9.92
701.181	8.92
701.209	-27.08
701.237	5.92
701.266	-3.08
701.294	-17.08
701.322	1.92
701.351	10.92
701.379	17.92
701.407	12.92
701.435	0.92
701.464	13.92
701.492	27.92
701.52	6.92
701.549	-2.08
701.577	-4.08
701.605	-3.08
701.634	-2.08
701.662	24.92
701.69	-6.08
701.718	-4.08
701.747	-3.08
701.775	-0.08
701.803	10.92
701.831	22.92
701.86	18.92
701.888	2.92
701.916	3.92
701.944	-1.08
701.973	-2.08
702.001	-2.08
702.029	5.92
702.057	-6.08
702.086	-7.08
702.114	-7.08
702.142	11.92
702.17	-4.08
702.199	11.92
702.227	-6.08
702.255	8.92
702.283	0.92
702.311	7.92
702.34	12.92
702.368	-6.08
702.396	2.92
702.424	1.92
702.452	14.92
702.481	9.92
702.509	-13.08
702.537	10.92
702.565	6.92
702.593	-4.08
702.621	-9.08
702.65	-6.08
702.678	-5.08
702.706	11.92
702.734	-2.08
702.762	2.92
702.79	3.92
702.819	6.92
702.847	12.92
702.875	6.92
702.903	15.92
702.931	-5.08
702.959	-2.08
702.988	6.92
703.016	10.92
703.044	1.92
703.072	2.92
703.1	-8.08
703.128	0.92
703.156	1.92
703.184	-10.08
703.212	12.92
703.241	1.92
703.269	0.92
703.297	6.92
703.325	-11.08
703.353	-6.08
703.381	-1.08
703.409	1.92
703.437	0.92
703.465	7.92
703.493	6.92
703.522	16.92
703.55	13.92
703.578	5.92
703.606	0.92
703.634	8.92
703.662	-5.08
703.69	-4.08
703.718	-1.08
703.746	18.92
703.774	2.92
703.802	22.92
703.83	2.92
703.858	9.92
703.886	1.92
703.914	-6.08
703.942	11.92
703.97	-2.08
703.998	5.92
704.027	12.92
704.055	19.92
704.083	5.92
704.111	-12.08
704.139	7.92
704.167	-4.08
704.195	12.92
704.223	-9.08
704.251	-6.08
704.279	3.92
704.307	4.92
704.335	-8.08
704.363	-2.08
704.391	-4.08
704.419	-0.08
704.447	-1.08
704.475	-0.08
704.503	-1.08
704.531	1.92
704.558	8.92
704.586	0.92
704.614	6.92
704.642	8.92
704.67	5.92
704.698	4.92
704.726	-2.08
704.754	3.92
704.782	0.92
704.81	7.92
704.838	11.92
704.866	16.92
704.894	-7.08
704.922	0.92
704.95	2.92
704.978	1.92
705.006	-5.08
705.034	7.92
705.061	-4.08
705.089	0.92
705.117	4.92
705.145	7.92
705.173	0.92
705.201	1.92
705.229	4.92
705.257	10.92
705.285	8.92
705.313	6.92
705.34	0.92
705.368	1.92
705.396	14.92
705.424	17.92
705.452	4.92
705.48	-1.08
705.508	-0.08
705.536	7.92
705.563	-6.08
705.591	0.92
705.619	7.92
705.647	-7.08
705.675	-1.08
705.703	3.92
705.731	9.92
705.758	6.92
705.786	2.92
705.814	26.92
705.842	-3.08
705.87	8.92
705.898	22.92
705.925	3.92
705.953	5.92
705.981	6.92
706.009	30.92
706.037	9.92
706.065	8.92
706.092	-12.08
706.12	-0.08
706.148	-1.08
706.176	4.92
706.204	8.92
706.231	13.92
706.259	9.92
706.287	3.92
706.315	5.92
706.342	-2.08
706.37	6.92
706.398	15.92
706.426	5.92
706.454	-0.08
706.481	20.92
706.509	10.92
706.537	-0.08
706.565	-6.08
706.592	5.92
706.62	-11.08
706.648	0.92
706.676	-14.08
706.703	-2.08
706.731	-10.08
706.759	3.92
706.787	7.92
706.814	-1.08
706.842	9.92
706.87	17.92
706.897	2.92
706.925	-6.08
706.953	5.92
706.981	-1.08
707.008	6.92
707.036	6.92
707.064	1.92
707.091	-22.08
707.119	-4.08
707.147	-0.08
707.174	-5.08
707.202	0.92
707.23	-7.08
707.258	9.92
707.285	-21.08
707.313	-3.08
707.341	-5.08
707.368	1.92
707.396	10.92
707.424	16.92
707.451	-0.08
707.479	16.92
707.507	-6.08
707.534	-5.08
707.562	-2.08
707.59	-13.08
707.617	-24.08
707.645	-0.08
707.672	-10.08
707.7	-13.08
707.728	8.92
707.755	-4.08
707.783	7.92
707.811	-5.08
707.838	-0.08
707.866	7.92
707.893	-5.08
707.921	-9.08
707.949	-1.08
707.976	3.92
708.004	-2.08
708.031	-5.08
708.059	-13.08
708.087	-8.08
708.114	-3.08
708.142	-1.08
708.169	-1.08
708.197	-15.08
708.225	0.92
708.252	5.92
708.28	26.92
708.307	14.92
708.335	-0.08
708.362	-4.08
708.39	-4.08
708.418	2.92
708.445	-1.08
708.473	-17.08
708.5	2.92
708.528	-4.08
708.555	-11.08
708.583	-3.08
708.61	-1.08
708.638	8.92
708.665	-18.08
708.693	-7.08
708.72	-5.08
708.748	-22.08
708.776	-14.08
708.803	9.92
708.831	10.92
708.858	19.92
708.886	-14.08
708.913	-4.08
708.941	-5.08
708.968	4.92
708.996	0.92
709.023	41.92
709.051	14.92
709.078	-0.08
709.105	-5.08
709.133	4.92
709.16	-0.08
709.188	-1.08
709.215	-16.08
709.243	-5.08
709.27	0.92
709.298	8.92
709.325	3.92
709.353	0.92
709.38	8.92
709.408	12.92
709.435	9.92
709.462	21.92
709.49	6.92
709.517	-11.08
709.545	-2.08
709.572	-14.08
709.6	-3.08
709.627	2.92
709.655	-2.08
709.682	2.92
709.709	-7.08
709.737	0.92
709.764	-4.08
709.792	25.92
709.819	6.92
709.846	19.92
709.874	3.92
709.901	25.92
709.929	18.92
709.956	12.92
709.983	-6.08
710.011	14.92
710.038	7.92
710.066	0.92
710.093	22.92
710.12	-1.08
710.148	-10.08
710.175	-7.08
710.202	3.92
710.23	6.92
710.257	-2.08
710.284	-2.08
710.312	9.92
710.339	-2.08
710.366	-1.08
710.394	-7.08
710.421	1.92
710.448	11.92
710.476	-8.08
710.503	-11.08
710.53	19.92
710.558	21.92
710.585	18.92
710.612	-0.08
710.64	-1.08
710.667	-5.08
710.694	5.92
710.722	15.92
710.749	2.92
710.776	-9.08
710.804	14.92
710.831	5.92
710.858	-0.08
710.885	5.92
710.913	-14.08
710.94	8.92
710.967	10.92
710.995	5.92
711.022	4.92
711.049	9.92
711.076	8.92
711.104	5.92
711.131	-13.08
711.158	5.92
711.185	2.92
711.213	0.92
711.24	-3.08
711.267	-6.08
711.294	-7.08
711.322	8.92
711.349	-0.08
711.376	-17.08
711.403	6.92
711.431	-4.08
711.458	0.92
711.485	-0.08
711.512	16.92
711.54	1.92
711.567	-0.08
711.594	-2.08
711.621	3.92
711.648	-8.08
711.676	14.92
711.703	12.92
711.73	0.92
711.757	4.92
711.784	-1.08
711.812	-1.08
711.839	-5.08
711.866	-6.08
711.893	-8.08
711.92	-5.08
711.947	-9.08
711.975	-0.08
712.002	-0.08
712.029	13.92
712.056	5.92
712.083	13.92
712.11	-16.08
712.138	-1.08
712.165	-6.08
712.192	2.92
712.219	1.92
712.246	-8.08
712.273	-14.08
712.3	-18.08
712.328	-2.08
712.355	2.92
712.382	-24.08
712.409	4.92
712.436	-2.08
712.463	11.92
712.49	7.92
712.517	10.92
712.544	-4.08
712.572	6.92
712.599	-16.08
712.626	-1.08
712.653	0.92
712.68	-19.08
712.707	14.92
712.734	27.92
712.761	6.92
712.788	-4.08
712.815	-8.08
712.842	17.92
712.87	12.92
712.897	-6.08
712.924	-7.08
712.951	1.92
712.978	16.92
713.005	3.92
713.032	0.92
713.059	-2.08
713.086	-11.08
713.113	-17.08
713.14	-19.08
713.167	0.92
713.194	12.92
713.221	0.92
713.248	10.92
713.275	-2.08
713.302	-16.08
713.329	7.92
713.356	9.92
713.383	12.92
713.41	13.92
713.437	-4.08
713.464	6.92
713.491	7.92
713.518	-7.08
713.545	-1.08
713.572	2.92
713.599	8.92
713.626	1.92
713.653	8.92
713.68	-0.08
713.707	-5.08
713.734	16.92
713.761	6.92
713.788	-10.08
713.815	8.92
713.842	-10.08
713.869	-8.08
713.896	4.92
713.923	3.92
713.95	1.92
713.977	5.92
714.004	-2.08
714.031	-8.08
714.058	1.92
714.085	-7.08
714.112	14.92
714.139	4.92
714.165	9.92
714.192	1.92
714.219	8.92
714.246	-2.08
714.273	-12.08
714.3	-1.08
714.327	-0.08
714.354	2.92
714.381	-2.08
714.408	-13.08
714.435	-3.08
714.461	-2.08
714.488	12.92
714.515	-16.08
714.542	-13.08
714.569	7.92
714.596	3.92
714.623	-4.08
714.65	-6.08
714.677	-3.08
714.703	1.92
714.73	13.92
714.757	-2.08
714.784	14.92
714.811	-10.08
714.838	-6.08
714.865	3.92
714.891	14.92
714.918	9.92
714.945	-2.08
714.972	10.92
714.999	11.92
715.026	-7.08
715.052	6.92
715.079	-5.08
715.106	-4.08
715.133	-1.08
715.16	-6.08
715.187	2.92
715.213	15.92
715.24	-3.08
715.267	-0.08
715.294	-16.08
715.321	-12.08
715.347	-4.08
715.374	-9.08
715.401	4.92
715.428	-7.08
715.455	1.92
715.481	-9.08
715.508	1.92
715.535	-10.08
715.562	19.92
715.588	8.92
715.615	-5.08
715.642	0.92
715.669	16.92
715.695	-4.08
715.722	-2.08
715.749	14.92
715.776	23.92
715.802	-5.08
715.829	11.92
715.856	-7.08
715.883	16.92
715.909	-3.08
715.936	1.92
715.963	3.92
715.99	-4.08
716.016	-13.08
716.043	1.92
716.07	-8.08
716.096	-13.08
716.123	2.92
716.15	-5.08
716.177	11.92
716.203	10.92
716.23	23.92
716.257	17.92
716.283	7.92
716.31	1.92
716.337	2.92
716.363	4.92
716.39	-6.08
716.417	9.92
716.443	11.92
716.47	5.92
716.497	16.92
716.523	2.92
716.55	6.92
716.577	-5.08
716.603	5.92
716.63	-9.08
716.657	10.92
716.683	7.92
716.71	1.92
716.737	0.92
716.763	-9.08
716.79	2.92
716.817	15.92
716.843	9.92
716.87	-5.08
716.897	-5.08
716.923	12.92
716.95	-0.08
716.976	6.92
717.003	-6.08
717.03	-9.08
717.056	5.92
717.083	-13.08
717.109	1.92
717.136	11.92
717.163	-8.08
717.189	11.92
717.216	-14.08
717.242	-3.08
717.269	14.92
717.296	-2.08
717.322	5.92
717.349	20.92
717.375	1.92
717.402	-4.08
717.428	-8.08
717.455	-5.08
717.481	11.92
717.508	9.92
717.535	13.92
717.561	11.92
717.588	-7.08
717.614	0.92
717.641	-6.08
717.667	5.92
717.694	15.92
717.72	0.92
717.747	11.92
717.773	0.92
717.8	9.92
717.826	6.92
717.853	3.92
717.88	23.92
717.906	10.92
717.933	0.92
717.959	13.92
717.986	4.92
718.012	1.92
718.039	16.92
718.065	11.92
718.092	6.92
718.118	-0.08
718.144	5.92
718.171	13.92
718.197	22.92
718.224	0.92
718.25	17.92
718.277	9.92
718.303	3.92
718.33	13.92
718.356	3.92
718.383	-18.08
718.409	1.92
718.436	0.92
718.462	6.92
718.489	2.92
718.515	5.92
718.541	14.92
718.568	12.92
718.594	-0.08
718.621	12.92
718.647	8.92
718.674	8.92
718.7	-1.08
718.726	5.92
718.753	-6.08
718.779	9.92
718.806	7.92
718.832	21.92
718.858	12.92
718.885	-2.08
718.911	-6.08
718.938	-5.08
718.964	-13.08
718.99	-4.08
719.017	7.92
719.043	-3.08
719.07	12.92
719.096	9.92
719.122	-4.08
719.149	-10.08
719.175	-4.08
719.201	2.92
719.228	3.92
719.254	12.92
719.281	-2.08
719.307	0.92
719.333	0.92
719.36	-0.08
719.386	-1.08
719.412	9.92
719.439	-6.08
719.465	-5.08
719.491	-16.08
719.518	6.92
719.544	5.92
719.57	-0.08
719.597	-6.08
719.623	-3.08
719.649	3.92
719.675	3.92
719.702	2.92
719.728	33.92
719.754	8.92
719.781	6.92
719.807	2.92
719.833	-0.08
719.86	7.92
719.886	12.92
719.912	16.92
719.938	-2.08
719.965	-0.08
719.991	3.92
720.017	-5.08
720.044	-1.08
720.07	-8.08
720.096	12.92
720.122	5.92
720.149	11.92
720.175	8.92
720.201	13.92
720.227	-4.08
720.254	1.92
720.28	17.92
720.306	2.92
720.332	-8.08
720.359	4.92
720.385	6.92
720.411	5.92
720.437	2.92
720.463	7.92
720.49	23.92
720.516	4.92
720.542	-3.08
720.568	-2.08
720.595	8.92
720.621	-1.08
720.647	-1.08
720.673	2.92
720.699	3.92
720.725	17.92
720.752	15.92
720.778	12.92
720.804	14.92
720.83	16.92
720.856	-0.08
720.883	0.92
720.909	-2.08
720.935	-8.08
720.961	18.92
720.987	10.92
721.013	10.92
721.04	0.92
721.066	-3.08
721.092	9.92
721.118	4.92
721.144	-1.08
721.17	-2.08
721.196	0.92
721.223	-17.08
721.249	-3.08
721.275	10.92
721.301	-2.08
721.327	18.92
721.353	5.92
721.379	15.92
721.405	4.92
721.432	27.92
721.458	-1.08
721.484	19.92
721.51	-2.08
721.536	5.92
721.562	8.92
721.588	12.92
721.614	-3.08
721.64	-2.08
721.666	-6.08
721.693	6.92
721.719	5.92
721.745	-1.08
721.771	-5.08
721.797	9.92
721.823	6.92
721.849	21.92
721.875	15.92
721.901	0.92
721.927	-14.08
721.953	19.92
721.979	18.92
722.005	24.92
722.031	0.92
722.057	9.92
722.083	7.92
722.109	25.92
722.135	4.92
722.161	35.92
722.187	-8.08
722.214	-0.08
722.24	12.92
722.266	-4.08
722.292	8.92
722.318	1.92
722.344	-4.08
722.37	-4.08
722.396	-0.08
722.422	-12.08
722.448	0.92
722.474	-18.08
722.5	-15.08
722.526	9.92
722.552	-2.08
722.578	-5.08
722.603	16.92
722.629	-1.08
722.655	-5.08
722.681	-1.08
722.707	0.92
722.733	-3.08
722.759	-5.08
722.785	3.92
722.811	-0.08
722.837	8.92
722.863	22.92
722.889	16.92
722.915	13.92
722.941	-10.08
722.967	-4.08
722.993	20.92
723.019	4.92
723.045	22.92
723.071	16.92
723.097	-4.08
723.122	2.92
723.148	-5.08
723.174	-7.08
723.2	16.92
723.226	-2.08
723.252	-1.08
723.278	-5.08
723.304	-2.08
723.33	4.92
723.356	-13.08
723.381	-6.08
723.407	-15.08
723.433	16.92
723.459	-14.08
723.485	-0.08
723.511	7.92
723.537	3.92
723.563	-9.08
723.588	9.92
723.614	1.92
723.64	10.92
723.666	6.92
723.692	8.92
723.718	14.92
723.744	11.92
723.769	1.92
723.795	-8.08
723.821	9.92
723.847	-3.08
723.873	2.92
723.899	3.92
723.924	4.92
723.95	11.92
723.976	7.92
724.002	5.92
724.028	5.92
724.053	10.92
724.079	-7.08
724.105	-2.08
724.131	-5.08
724.157	-3.08
724.182	17.92
724.208	10.92
724.234	9.92
724.26	4.92
724.286	14.92
724.311	-11.08
724.337	-8.08
724.363	-5.08
724.389	-7.08
724.415	0.92
724.44	22.92
724.466	-4.08
724.492	11.92
724.518	13.92
724.543	-4.08
724.569	4.92
724.595	4.92
724.621	4.92
724.646	1.92
724.672	3.92
724.698	7.92
724.723	1.92
724.749	-9.08
724.775	-2.08
724.801	10.92
724.826	-2.08
724.852	-6.08
724.878	-3.08
724.904	-14.08
724.929	-5.08
724.955	4.92
724.981	5.92
725.006	14.92
725.032	14.92
725.058	9.92
725.083	-6.08
725.109	-6.08
725.135	-5.08
725.161	7.92
725.186	8.92
725.212	3.92
725.238	7.92
725.263	-6.08
725.289	-13.08
725.315	-18.08
725.34	4.92
725.366	5.92
725.392	7.92
725.417	-15.08
725.443	-10.08
725.468	13.92
725.494	7.92
725.52	21.92
725.545	3.92
725.571	-14.08
725.597	-8.08
725.622	6.92
725.648	-4.08
725.674	14.92
725.699	-4.08
725.725	0.92
725.75	34.92
725.776	4.92
725.802	-0.08
725.827	1.92
725.853	-1.08
725.878	0.92
725.904	1.92
725.93	2.92
725.955	-24.08
725.981	1.92
726.006	9.92
726.032	-5.08
726.057	2.92
726.083	-21.08
726.109	6.92
726.134	2.92
726.16	0.92
726.185	-9.08
726.211	-5.08
726.236	13.92
726.262	2.92
726.288	13.92
726.313	14.92
726.339	7.92
726.364	5.92
726.39	-2.08
726.415	8.92
726.441	13.92
726.466	0.92
726.492	5.92
726.517	14.92
726.543	-9.08
726.568	-14.08
726.594	-9.08
726.619	12.92
726.645	5.92
726.67	-4.08
726.696	16.92
726.721	-11.08
726.747	-9.08
726.772	7.92
726.798	10.92
726.823	2.92
726.849	4.92
726.874	15.92
726.9	34.92
726.925	23.92
726.951	1.92
726.976	-0.08
727.002	1.92
727.027	-9.08
727.053	13.92
727.078	-5.08
727.104	5.92
727.129	-3.08
727.155	-5.08
727.18	9.92
727.205	3.92
727.231	4.92
727.256	9.92
727.282	3.92
727.307	26.92
727.333	2.92
727.358	-9.08
727.383	-13.08
727.409	-17.08
727.434	4.92
727.46	-6.08
727.485	9.92
727.511	5.92
727.536	-6.08
727.561	3.92
727.587	3.92
727.612	5.92
727.637	-1.08
727.663	4.92
727.688	7.92
727.714	-0.08
727.739	-4.08
727.764	-13.08
727.79	14.92
727.815	18.92
727.841	19.92
727.866	5.92
727.891	9.92
727.917	-16.08
727.942	-0.08
727.967	6.92
727.993	-20.08
728.018	-1.08
728.043	1.92
728.069	8.92
728.094	17.92
728.119	-4.08
728.145	7.92
728.17	1.92
728.195	0.92
728.221	2.92
728.246	-18.08
728.271	-9.08
728.297	8.92
728.322	-6.08
728.347	1.92
728.373	8.92
728.398	18.92
728.423	-10.08
728.448	-14.08
728.474	15.92
728.499	10.92
728.524	6.92
728.55	-4.08
728.575	-1.08
728.6	5.92
728.625	4.92
728.651	3.92
728.676	0.92
728.701	-2.08
728.727	-8.08
728.752	-6.08
728.777	2.92
728.802	6.92
728.828	-6.08
728.853	-5.08
728.878	-7.08
728.903	-14.08
728.929	-17.08
728.954	8.92
728.979	11.92
729.004	1.92
729.03	-9.08
729.055	-2.08
729.08	0.92
729.105	-9.08
729.13	14.92
729.156	0.92
729.181	6.92
729.206	-7.08
729.231	-1.08
729.256	19.92
729.282	4.92
729.307	-1.08
729.332	-5.08
729.357	4.92
729.382	4.92
729.408	4.92
729.433	9.92
729.458	-2.08
729.483	6.92
729.508	14.92
729.533	19.92
729.559	-3.08
729.584	-15.08
729.609	2.92
729.634	14.92
729.659	-3.08
729.684	-24.08
729.71	11.92
729.735	11.92
729.76	1.92
729.785	13.92
729.81	26.92
729.835	-4.08
729.86	1.92
729.886	4.92
729.911	11.92
729.936	10.92
729.961	26.92
729.986	16.92
730.011	73.92
730.036	209.92
730.061	973.92
730.086	2698.92
730.112	3346.92
730.137	2840.92
730.162	2137.92
730.187	1643.92
730.212	1235.92
730.237	774.92
730.262	454.92
730.287	242.92
730.312	160.92
730.337	86.92
730.362	68.92
730.387	23.92
730.413	9.92
730.438	12.92
730.463	16.92
730.488	-8.08
730.513	12.92
730.538	-4.08
730.563	25.92
730.588	1.92
730.613	18.92
730.638	6.92
730.663	18.92
730.688	21.92
730.713	9.92
730.738	6.92
730.763	5.92
730.788	-4.08
730.813	0.92
730.838	-12.08
730.863	-6.08
730.888	-4.08
730.913	-4.08
730.938	-3.08
730.963	30.92
730.988	129.92
731.013	423.92
731.038	597.92
731.063	603.92
731.088	460.92
731.113	333.92
731.138	265.92
731.163	196.92
731.188	94.92
731.213	80.92
731.238	53.92
731.263	33.92
731.288	11.92
731.313	5.92
731.338	5.92
731.363	11.92
731.388	10.92
731.413	19.92
731.438	17.92
731.463	8.92
731.487	5.92
731.512	-5.08
731.537	-1.08
731.562	-1.08
731.587	16.92
731.612	17.92
731.637	-12.08
731.662	-13.08
731.687	2.92
731.712	-8.08
731.737	1.92
731.762	8.92
731.786	6.92
731.811	9.92
731.836	1.92
731.861	-2.08
731.886	10.92
731.911	16.92
731.936	16.92
731.961	11.92
731.986	1.92
732.01	-2.08
732.035	-0.08
732.06	0.92
732.085	-14.08
732.11	-4.08
732.135	-7.08
732.16	2.92
732.184	-1.08
732.209	7.92
732.234	16.92
732.259	-0.08
732.284	17.92
732.309	-7.08
732.334	-2.08
732.358	-8.08
732.383	-14.08
732.408	-10.08
732.433	2.92
732.458	-0.08
732.482	8.92
732.507	20.92
732.532	3.92
732.557	10.92
732.582	19.92
732.607	34.92
732.631	54.92
732.656	97.92
732.681	157.92
732.706	349.92
732.73	458.92
732.755	392.92
732.78	287.92
732.805	231.92
732.83	166.92
732.854	126.92
732.879	79.92
732.904	38.92
732.929	22.92
732.953	30.92
732.978	7.92
733.003	-3.08
733.028	-5.08
733.052	18.92
733.077	14.92
733.102	8.92
733.127	-3.08
733.151	-11.08
733.176	-2.08
733.201	2.92
733.226	1.92
733.25	-6.08
733.275	3.92
733.3	18.92
733.324	35.92
733.349	-3.08
733.374	2.92
733.399	1.92
733.423	9.92
733.448	-2.08
733.473	1.92
733.497	1.92
733.522	3.92
733.547	10.92
733.571	6.92
733.596	1.92
733.621	4.92
733.646	5.92
733.67	-4.08
733.695	-13.08
733.72	7.92
733.744	11.92
733.769	1.92
733.794	4.92
733.818	13.92
733.843	1.92
733.867	-5.08
733.892	-0.08
733.917	5.92
733.941	-2.08
733.966	-6.08
733.991	-9.08
734.015	6.92
734.04	7.92
734.065	14.92
734.089	34.92
734.114	-2.08
734.138	4.92
734.163	0.92
734.188	10.92
734.212	5.92
734.237	7.92
734.261	-5.08
734.286	-1.08
734.311	3.92
734.335	-0.08
734.36	-5.08
734.384	-4.08
734.409	-5.08
734.434	-14.08
734.458	7.92
734.483	-24.08
734.507	-9.08
734.532	-2.08
734.556	1.92
734.581	-6.08
734.606	-2.08
734.63	-4.08
734.655	-0.08
734.679	-6.08
734.704	3.92
734.728	1.92
734.753	2.92
734.777	12.92
734.802	3.92
734.826	6.92
734.851	10.92
734.876	7.92
734.9	7.92
734.925	-1.08
734.949	15.92
734.974	-2.08
734.998	6.92
735.023	-21.08
735.047	-6.08
735.072	25.92
735.096	-3.08
735.121	-2.08
735.145	-0.08
735.17	-13.08
735.194	-0.08
735.219	4.92
735.243	11.92
735.268	2.92
735.292	-3.08
735.317	-3.08
735.341	0.92
735.365	-22.08
735.39	1.92
735.414	8.92
735.439	3.92
735.463	0.92
735.488	11.92
735.512	-2.08
735.537	-4.08
735.561	4.92
735.586	10.92
735.61	7.92
735.634	-1.08
735.659	5.92
735.683	27.92
735.708	9.92
735.732	-1.08
735.757	10.92
735.781	-1.08
735.805	9.92
735.83	2.92
735.854	3.92
735.879	-7.08
735.903	9.92
735.927	-1.08
735.952	0.92
735.976	2.92
736.001	-4.08
736.025	4.92
736.049	-1.08
736.074	3.92
736.098	8.92
736.123	9.92
736.147	3.92
736.171	14.92
736.196	8.92
736.22	-12.08
736.244	-5.08
736.269	14.92
736.293	2.92
736.317	7.92
736.342	16.92
736.366	26.92
736.39	4.92
736.415	7.92
736.439	-1.08
736.463	-0.08
736.488	1.92
736.512	9.92
736.536	6.92
736.561	17.92
736.585	12.92
736.609	-0.08
736.634	2.92
736.658	-4.08
736.682	-1.08
736.707	-7.08
736.731	-1.08
736.755	9.92
736.78	6.92
736.804	14.92
736.828	12.92
736.852	2.92
736.877	4.92
736.901	-5.08
736.925	11.92
736.949	7.92
736.974	-2.08
736.998	-9.08
737.022	0.92
737.047	-1.08
737.071	-11.08
737.095	16.92
737.119	18.92
737.144	9.92
737.168	-17.08
737.192	-4.08
737.216	7.92
737.241	-2.08
737.265	3.92
737.289	-6.08
737.313	2.92
737.337	6.92
737.362	12.92
737.386	10.92
737.41	14.92
737.434	8.92
737.459	-5.08
737.483	0.92
737.507	7.92
737.531	25.92
737.555	-1.08
737.58	9.92
737.604	-11.08
737.628	-10.08
737.652	1.92
737.676	1.92
737.701	7.92
737.725	-2.08
737.749	-3.08
737.773	7.92
737.797	16.92
737.821	2.92
737.846	-2.08
737.87	12.92
737.894	19.92
737.918	-9.08
737.942	-1.08
737.966	21.92
737.99	6.92
738.015	-0.08
738.039	-12.08
738.063	-8.08
738.087	10.92
738.111	0.92
738.135	10.92
738.159	15.92
738.184	10.92
738.208	10.92
738.232	13.92
738.256	27.92
738.28	10.92
738.304	21.92
738.328	-5.08
738.352	-6.08
738.376	-2.08
738.4	13.92
738.425	10.92
738.449	-0.08
738.473	30.92
738.497	2.92
738.521	10.92
738.545	7.92
738.569	4.92
738.593	15.92
738.617	1.92
738.641	9.92
738.665	2.92
738.689	8.92
738.713	4.92
738.737	17.92
738.762	13.92
738.786	2.92
738.81	-17.08
738.834	3.92
738.858	2.92
738.882	7.92
738.906	-2.08
738.93	2.92
738.954	3.92
738.978	16.92
739.002	0.92
739.026	14.92
739.05	-4.08
739.074	-1.08
739.098	27.92
739.122	12.92
739.146	-2.08
739.17	16.92
739.194	5.92
739.218	-3.08
739.242	1.92
739.266	-4.08
739.29	4.92
739.314	4.92
739.338	-2.08
739.362	7.92
739.386	1.92
739.41	5.92
739.434	-13.08
739.458	20.92
739.482	-4.08
739.506	-9.08
739.53	1.92
739.554	16.92
739.577	4.92
739.601	12.92
739.625	-16.08
739.649	-1.08
739.673	-9.08
739.697	17.92
739.721	-2.08
739.745	0.92
739.769	5.92
739.793	-1.08
739.817	18.92
739.841	-2.08
739.865	3.92
739.889	-5.08
739.912	10.92
739.936	23.92
739.96	14.92
739.984	13.92
740.008	10.92
740.032	0.92
740.056	6.92
740.08	-1.08
740.104	-9.08
740.127	1.92
740.151	9.92
740.175	6.92
740.199	13.92
740.223	46.92
740.247	17.92
740.271	-1.08
740.295	7.92
740.318	-32.08
740.342	-5.08
740.366	-2.08
740.39	13.92
740.414	-8.08
740.438	-9.08
740.461	17.92
740.485	7.92
740.509	-15.08
740.533	3.92
740.557	0.92
740.581	2.92
740.604	3.92
740.628	14.92
740.652	-2.08
740.676	-17.08
740.7	5.92
740.723	-5.08
740.747	-8.08
740.771	8.92
740.795	1.92
740.819	9.92
740.842	5.92
740.866	15.92
740.89	9.92
740.914	-17.08
740.938	-6.08
740.961	7.92
740.985	1.92
741.009	-8.08
741.033	14.92
741.056	-1.08
741.08	-1.08
741.104	10.92
741.128	5.92
741.151	15.92
741.175	2.92
741.199	1.92
741.223	4.92
741.246	-11.08
741.27	11.92
741.294	4.92
741.318	-0.08
741.341	9.92
741.365	11.92
741.389	19.92
741.413	14.92
741.436	12.92
741.46	5.92
741.484	3.92
741.507	3.92
741.531	21.92
741.555	2.92
741.579	-5.08
741.602	-2.08
741.626	4.92
741.65	-20.08
741.673	-1.08
741.697	6.92
741.721	17.92
741.744	-17.08
741.768	-4.08
741.792	-13.08
741.815	-2.08
741.839	25.92
741.863	21.92
741.886	25.92
741.91	10.92
741.934	11.92
741.957	3.92
741.981	26.92
742.005	3.92
742.028	-1.08
742.052	-6.08
742.075	-6.08
742.099	6.92
742.123	3.92
742.146	4.92
742.17	3.92
742.194	-8.08
742.217	2.92
742.241	-3.08
742.264	-5.08
742.288	20.92
742.312	22.92
742.335	1.92
742.359	-4.08
742.382	3.92
742.406	12.92
742.43	-8.08
742.453	-0.08
742.477	-9.08
742.5	17.92
742.524	-0.08
742.548	-5.08
742.571	-1.08
742.595	3.92
742.618	-9.08
742.642	-10.08
742.665	13.92
742.689	1.92
742.712	18.92
742.736	6.92
742.76	-4.08
742.783	-5.08
742.807	20.92
742.83	29.92
742.854	-12.08
742.877	-3.08
742.901	10.92
742.924	-9.08
742.948	0.92
742.971	14.92
742.995	9.92
743.018	-13.08
743.042	-14.08
743.065	-11.08
743.089	12.92
743.112	-3.08
743.136	-6.08
743.159	-4.08
743.183	-5.08
743.206	-8.08
743.23	-6.08
743.253	-1.08
743.277	-2.08
743.3	7.92
743.324	-0.08
743.347	-6.08
743.371	26.92
743.394	-0.08
743.418	22.92
743.441	4.92
743.465	-0.08
743.488	3.92
743.512	-11.08
743.535	-6.08
743.558	6.92
743.582	7.92
743.605	12.92
743.629	14.92
743.652	16.92
743.676	1.92
743.699	7.92
743.723	18.92
743.746	1.92
743.769	-12.08
743.793	-6.08
743.816	-8.08
743.84	14.92
743.863	9.92
743.886	14.92
743.91	20.92
743.933	6.92
743.957	-2.08
743.98	-9.08
744.003	0.92
744.027	5.92
744.05	-8.08
744.074	14.92
744.097	-10.08
744.12	-7.08
744.144	7.92
744.167	9.92
744.19	17.92
744.214	-6.08
744.237	-9.08
744.26	18.92
744.284	-6.08
744.307	-7.08
744.331	5.92
744.354	-3.08
744.377	1.92
744.401	-10.08
744.424	1.92
744.447	1.92
744.471	-7.08
