Data from HighRes_mercury_15_13_11_07_2024_HR4C61891__44__15-14-27-586.txt Node

Date: Thu Nov 07 15:14:27 EST 2024
User: crc00042
Spectrometer: HR4C6189
Trigger mode: 4
Integration Time (sec): 1.000000E-1
Scans to average: 1
Electric dark correction enabled: true
Nonlinearity correction enabled: false
Boxcar width: 0
XAxis mode: Wavelengths
Number of Pixels in Spectrum: 3648
>>>>>Begin Spectral Data<<<<<
639.567	-41.92
639.602	-41.92
639.636	-41.92
639.67	-59.92
639.704	-21.92
639.738	3.08
639.773	-1.92
639.807	-19.92
639.841	-10.92
639.875	12.08
639.909	3.08
639.943	-7.92
639.978	-0.92
640.012	1.08
640.046	15.08
640.08	13.08
640.114	2.08
640.148	-7.92
640.182	-9.92
640.217	5.08
640.251	9.08
640.285	18.08
640.319	-12.92
640.353	-3.92
640.387	-1.92
640.421	12.08
640.455	6.08
640.49	-2.92
640.524	-4.92
640.558	-2.92
640.592	9.08
640.626	8.08
640.66	8.08
640.694	3.08
640.728	-0.92
640.762	6.08
640.796	19.08
640.83	25.08
640.865	-3.92
640.899	10.08
640.933	3.08
640.967	9.08
641.001	-4.92
641.035	11.08
641.069	6.08
641.103	-0.92
641.137	8.08
641.171	-8.92
641.205	-3.92
641.239	4.08
641.273	17.08
641.307	-5.92
641.341	-14.92
641.375	-9.92
641.409	-12.92
641.443	-10.92
641.477	5.08
641.511	12.08
641.545	10.08
641.579	5.08
641.614	3.08
641.648	-15.92
641.682	-20.92
641.716	-4.92
641.75	10.08
641.784	13.08
641.818	3.08
641.852	-8.92
641.886	-14.92
641.919	14.08
641.953	-4.92
641.987	-10.92
642.021	5.08
642.055	17.08
642.089	14.08
642.123	-0.92
642.157	0.08
642.191	-0.92
642.225	3.08
642.259	1.08
642.293	13.08
642.327	-3.92
642.361	-4.92
642.395	1.08
642.429	18.08
642.463	0.08
642.497	7.08
642.531	5.08
642.565	5.08
642.599	8.08
642.633	-3.92
642.666	6.08
642.7	6.08
642.734	39.08
642.768	-9.92
642.802	-0.92
642.836	12.08
642.87	0.08
642.904	3.08
642.938	6.08
642.972	1.08
643.005	-0.92
643.039	17.08
643.073	-2.92
643.107	5.08
643.141	-2.92
643.175	16.08
643.209	-10.92
643.243	0.08
643.276	3.08
643.31	4.08
643.344	-10.92
643.378	11.08
643.412	19.08
643.446	18.08
643.48	-5.92
643.513	10.08
643.547	5.08
643.581	0.08
643.615	18.08
643.649	-5.92
643.683	-6.92
643.716	11.08
643.75	19.08
643.784	-4.92
643.818	-3.92
643.852	-5.92
643.886	-13.92
643.919	10.08
643.953	10.08
643.987	4.08
644.021	-11.92
644.055	17.08
644.088	4.08
644.122	-6.92
644.156	-15.92
644.19	-16.92
644.224	13.08
644.257	5.08
644.291	13.08
644.325	0.08
644.359	-0.92
644.392	12.08
644.426	18.08
644.46	12.08
644.494	-8.92
644.527	-19.92
644.561	-7.92
644.595	19.08
644.629	-8.92
644.662	-4.92
644.696	11.08
644.73	-0.92
644.764	11.08
644.797	-4.92
644.831	-9.92
644.865	10.08
644.899	-4.92
644.932	8.08
644.966	-0.92
645	26.08
645.033	9.08
645.067	17.08
645.101	9.08
645.135	3.08
645.168	-5.92
645.202	-1.92
645.236	-3.92
645.269	-2.92
645.303	5.08
645.337	-15.92
645.37	-7.92
645.404	12.08
645.438	0.08
645.471	-3.92
645.505	3.08
645.539	-3.92
645.572	-10.92
645.606	-7.92
645.64	-9.92
645.673	6.08
645.707	12.08
645.741	6.08
645.774	-4.92
645.808	6.08
645.842	-5.92
645.875	4.08
645.909	-6.92
645.943	2.08
645.976	11.08
646.01	0.08
646.043	19.08
646.077	7.08
646.111	14.08
646.144	22.08
646.178	12.08
646.212	-14.92
646.245	12.08
646.279	1.08
646.312	4.08
646.346	13.08
646.38	-3.92
646.413	3.08
646.447	0.08
646.48	0.08
646.514	-2.92
646.547	-13.92
646.581	6.08
646.615	9.08
646.648	-2.92
646.682	0.08
646.715	-1.92
646.749	15.08
646.782	-9.92
646.816	-0.92
646.85	9.08
646.883	11.08
646.917	4.08
646.95	6.08
646.984	-5.92
647.017	-7.92
647.051	-5.92
647.084	-3.92
647.118	-9.92
647.151	7.08
647.185	10.08
647.218	-4.92
647.252	5.08
647.285	-2.92
647.319	-12.92
647.353	3.08
647.386	20.08
647.42	10.08
647.453	9.08
647.487	-2.92
647.52	13.08
647.553	11.08
647.587	-0.92
647.62	-5.92
647.654	0.08
647.687	0.08
647.721	7.08
647.754	5.08
647.788	-3.92
647.821	-10.92
647.855	5.08
647.888	11.08
647.922	5.08
647.955	3.08
647.989	18.08
648.022	13.08
648.055	19.08
648.089	4.08
648.122	16.08
648.156	3.08
648.189	-4.92
648.223	7.08
648.256	9.08
648.29	12.08
648.323	0.08
648.356	13.08
648.39	3.08
648.423	13.08
648.457	6.08
648.49	26.08
648.523	20.08
648.557	-7.92
648.59	-9.92
648.624	2.08
648.657	2.08
648.69	30.08
648.724	11.08
648.757	14.08
648.791	12.08
648.824	18.08
648.857	18.08
648.891	-2.92
648.924	6.08
648.957	15.08
648.991	5.08
649.024	8.08
649.057	-1.92
649.091	-7.92
649.124	9.08
649.158	-0.92
649.191	15.08
649.224	5.08
649.258	3.08
649.291	3.08
649.324	7.08
649.358	4.08
649.391	-5.92
649.424	-7.92
649.458	18.08
649.491	8.08
649.524	-7.92
649.557	0.08
649.591	-4.92
649.624	13.08
649.657	8.08
649.691	7.08
649.724	1.08
649.757	-7.92
649.791	4.08
649.824	6.08
649.857	23.08
649.89	18.08
649.924	-16.92
649.957	-11.92
649.99	-7.92
650.023	-3.92
650.057	-8.92
650.09	8.08
650.123	4.08
650.157	-2.92
650.19	-4.92
650.223	0.08
650.256	-6.92
650.29	-10.92
650.323	-14.92
650.356	1.08
650.389	3.08
650.423	2.08
650.456	10.08
650.489	-2.92
650.522	-4.92
650.555	17.08
650.589	13.08
650.622	-22.92
650.655	10.08
650.688	10.08
650.721	-11.92
650.755	-2.92
650.788	14.08
650.821	22.08
650.854	-3.92
650.887	-1.92
650.921	5.08
650.954	0.08
650.987	9.08
651.02	-0.92
651.053	0.08
651.087	-12.92
651.12	25.08
651.153	1.08
651.186	-3.92
651.219	-12.92
651.252	4.08
651.286	10.08
651.319	-7.92
651.352	4.08
651.385	10.08
651.418	-4.92
651.451	8.08
651.484	5.08
651.518	1.08
651.551	25.08
651.584	0.08
651.617	17.08
651.65	10.08
651.683	-1.92
651.716	-3.92
651.749	-14.92
651.783	-3.92
651.816	8.08
651.849	4.08
651.882	-2.92
651.915	3.08
651.948	10.08
651.981	-1.92
652.014	-8.92
652.047	-19.92
652.08	-3.92
652.114	-0.92
652.147	0.08
652.18	-3.92
652.213	25.08
652.246	-8.92
652.279	-2.92
652.312	14.08
652.345	-4.92
652.378	8.08
652.411	14.08
652.444	19.08
652.477	9.08
652.51	10.08
652.543	-24.92
652.576	-6.92
652.609	-6.92
652.642	2.08
652.675	11.08
652.709	1.08
652.742	11.08
652.775	-0.92
652.808	11.08
652.841	-10.92
652.874	-7.92
652.907	-9.92
652.94	0.08
652.973	-6.92
653.006	1.08
653.039	-5.92
653.072	4.08
653.105	2.08
653.138	-15.92
653.171	-4.92
653.204	-0.92
653.237	7.08
653.27	-10.92
653.303	-1.92
653.336	0.08
653.368	-0.92
653.401	3.08
653.434	15.08
653.467	2.08
653.5	-7.92
653.533	-11.92
653.566	-4.92
653.599	2.08
653.632	-4.92
653.665	6.08
653.698	-10.92
653.731	0.08
653.764	-0.92
653.797	-3.92
653.83	5.08
653.863	-14.92
653.896	-7.92
653.929	-7.92
653.961	-7.92
653.994	-5.92
654.027	-8.92
654.06	12.08
654.093	9.08
654.126	6.08
654.159	-6.92
654.192	10.08
654.225	3.08
654.258	-12.92
654.29	0.08
654.323	10.08
654.356	4.08
654.389	13.08
654.422	-0.92
654.455	-0.92
654.488	11.08
654.521	-16.92
654.553	-3.92
654.586	-9.92
654.619	1.08
654.652	4.08
654.685	11.08
654.718	5.08
654.751	2.08
654.783	-0.92
654.816	2.08
654.849	0.08
654.882	-8.92
654.915	-13.92
654.948	2.08
654.98	6.08
655.013	1.08
655.046	-2.92
655.079	-22.92
655.112	2.08
655.144	-3.92
655.177	5.08
655.21	12.08
655.243	3.08
655.276	3.08
655.308	3.08
655.341	-3.92
655.374	13.08
655.407	5.08
655.44	1.08
655.472	-0.92
655.505	16.08
655.538	11.08
655.571	7.08
655.603	0.08
655.636	-10.92
655.669	7.08
655.702	-1.92
655.734	-4.92
655.767	-5.92
655.8	6.08
655.833	5.08
655.865	16.08
655.898	10.08
655.931	0.08
655.964	16.08
655.996	6.08
656.029	6.08
656.062	9.08
656.095	6.08
656.127	-15.92
656.16	-4.92
656.193	3.08
656.225	0.08
656.258	8.08
656.291	-0.92
656.324	6.08
656.356	7.08
656.389	-7.92
656.422	2.08
656.454	1.08
656.487	21.08
656.52	-5.92
656.552	-7.92
656.585	-1.92
656.618	4.08
656.65	6.08
656.683	-7.92
656.716	-11.92
656.748	16.08
656.781	7.08
656.814	5.08
656.846	6.08
656.879	-6.92
656.912	-0.92
656.944	-12.92
656.977	-13.92
657.01	12.08
657.042	0.08
657.075	13.08
657.108	12.08
657.14	14.08
657.173	9.08
657.205	30.08
657.238	11.08
657.271	13.08
657.303	-14.92
657.336	4.08
657.369	5.08
657.401	0.08
657.434	-9.92
657.466	9.08
657.499	7.08
657.532	7.08
657.564	-0.92
657.597	-1.92
657.629	-1.92
657.662	8.08
657.694	9.08
657.727	-0.92
657.76	20.08
657.792	1.08
657.825	-11.92
657.857	1.08
657.89	3.08
657.922	11.08
657.955	-6.92
657.987	-1.92
658.02	3.08
658.053	1.08
658.085	3.08
658.118	5.08
658.15	14.08
658.183	26.08
658.215	3.08
658.248	-9.92
658.28	-0.92
658.313	1.08
658.345	7.08
658.378	5.08
658.41	11.08
658.443	19.08
658.475	-1.92
658.508	5.08
658.54	13.08
658.573	0.08
658.605	-12.92
658.638	7.08
658.67	-4.92
658.703	1.08
658.735	-7.92
658.768	-0.92
658.8	-6.92
658.833	35.08
658.865	10.08
658.898	1.08
658.93	-14.92
658.963	-9.92
658.995	-10.92
659.028	19.08
659.06	19.08
659.092	3.08
659.125	-8.92
659.157	8.08
659.19	-8.92
659.222	-0.92
659.255	7.08
659.287	6.08
659.32	4.08
659.352	12.08
659.384	24.08
659.417	1.08
659.449	-9.92
659.482	25.08
659.514	3.08
659.546	7.08
659.579	1.08
659.611	5.08
659.644	-2.92
659.676	-6.92
659.708	-2.92
659.741	-10.92
659.773	2.08
659.806	-15.92
659.838	10.08
659.87	10.08
659.903	-8.92
659.935	-1.92
659.967	19.08
660	13.08
660.032	-11.92
660.065	5.08
660.097	4.08
660.129	12.08
660.162	-4.92
660.194	5.08
660.226	2.08
660.259	11.08
660.291	-7.92
660.323	-13.92
660.356	-9.92
660.388	-4.92
660.42	1.08
660.453	7.08
660.485	16.08
660.517	2.08
660.55	9.08
660.582	-6.92
660.614	1.08
660.647	2.08
660.679	-9.92
660.711	13.08
660.743	-4.92
660.776	-20.92
660.808	-8.92
660.84	-4.92
660.873	4.08
660.905	4.08
660.937	-7.92
660.969	-0.92
661.002	16.08
661.034	15.08
661.066	-6.92
661.099	16.08
661.131	12.08
661.163	1.08
661.195	1.08
661.228	19.08
661.26	1.08
661.292	-0.92
661.324	16.08
661.357	2.08
661.389	3.08
661.421	10.08
661.453	10.08
661.485	8.08
661.518	16.08
661.55	-17.92
661.582	-5.92
661.614	6.08
661.647	2.08
661.679	8.08
661.711	-8.92
661.743	-6.92
661.775	-10.92
661.808	25.08
661.84	-8.92
661.872	0.08
661.904	-4.92
661.936	-19.92
661.969	-1.92
662.001	-14.92
662.033	12.08
662.065	-9.92
662.097	13.08
662.129	12.08
662.162	-7.92
662.194	1.08
662.226	3.08
662.258	27.08
662.29	-0.92
662.322	-3.92
662.355	-7.92
662.387	19.08
662.419	10.08
662.451	22.08
662.483	10.08
662.515	-11.92
662.547	-0.92
662.58	5.08
662.612	7.08
662.644	-4.92
662.676	-4.92
662.708	20.08
662.74	0.08
662.772	8.08
662.804	6.08
662.836	19.08
662.869	11.08
662.901	15.08
662.933	-3.92
662.965	9.08
662.997	13.08
663.029	1.08
663.061	-10.92
663.093	4.08
663.125	14.08
663.157	-4.92
663.189	5.08
663.221	9.08
663.254	12.08
663.286	-4.92
663.318	3.08
663.35	3.08
663.382	-2.92
663.414	18.08
663.446	5.08
663.478	-0.92
663.51	33.08
663.542	4.08
663.574	6.08
663.606	-2.92
663.638	-5.92
663.67	-4.92
663.702	9.08
663.734	2.08
663.766	28.08
663.798	-2.92
663.83	4.08
663.862	3.08
663.894	4.08
663.926	-1.92
663.958	9.08
663.99	22.08
664.022	2.08
664.054	18.08
664.086	3.08
664.118	9.08
664.15	5.08
664.182	3.08
664.214	12.08
664.246	11.08
664.278	9.08
664.31	11.08
664.342	10.08
664.374	-11.92
664.406	-11.92
664.438	-10.92
664.47	2.08
664.502	3.08
664.534	0.08
664.566	6.08
664.598	7.08
664.63	-7.92
664.662	5.08
664.693	10.08
664.725	6.08
664.757	-5.92
664.789	0.08
664.821	5.08
664.853	24.08
664.885	7.08
664.917	-7.92
664.949	22.08
664.981	18.08
665.013	7.08
665.045	0.08
665.076	-21.92
665.108	-9.92
665.14	6.08
665.172	13.08
665.204	8.08
665.236	-0.92
665.268	16.08
665.3	-5.92
665.331	-18.92
665.363	12.08
665.395	-15.92
665.427	-1.92
665.459	5.08
665.491	-3.92
665.523	-2.92
665.555	4.08
665.586	2.08
665.618	-0.92
665.65	-0.92
665.682	22.08
665.714	11.08
665.746	6.08
665.777	11.08
665.809	-2.92
665.841	4.08
665.873	1.08
665.905	-1.92
665.937	15.08
665.968	3.08
666	-7.92
666.032	-8.92
666.064	-15.92
666.096	6.08
666.127	12.08
666.159	12.08
666.191	7.08
666.223	8.08
666.255	3.08
666.286	8.08
666.318	6.08
666.35	18.08
666.382	4.08
666.413	0.08
666.445	-6.92
666.477	-21.92
666.509	-0.92
666.54	0.08
666.572	-7.92
666.604	-2.92
666.636	-1.92
666.667	9.08
666.699	8.08
666.731	3.08
666.763	-15.92
666.794	-6.92
666.826	2.08
666.858	-12.92
666.89	10.08
666.921	9.08
666.953	11.08
666.985	6.08
667.017	12.08
667.048	2.08
667.08	3.08
667.112	-19.92
667.143	-7.92
667.175	2.08
667.207	20.08
667.238	7.08
667.27	3.08
667.302	5.08
667.334	3.08
667.365	18.08
667.397	5.08
667.429	-7.92
667.46	13.08
667.492	8.08
667.524	8.08
667.555	6.08
667.587	16.08
667.619	8.08
667.65	-5.92
667.682	7.08
667.714	-2.92
667.745	4.08
667.777	0.08
667.808	12.08
667.84	20.08
667.872	-12.92
667.903	18.08
667.935	2.08
667.967	7.08
667.998	-1.92
668.03	11.08
668.061	-1.92
668.093	0.08
668.125	10.08
668.156	15.08
668.188	-5.92
668.22	-9.92
668.251	11.08
668.283	4.08
668.314	-2.92
668.346	2.08
668.377	10.08
668.409	0.08
668.441	34.08
668.472	16.08
668.504	12.08
668.535	-4.92
668.567	15.08
668.599	-5.92
668.63	-13.92
668.662	-2.92
668.693	15.08
668.725	0.08
668.756	11.08
668.788	14.08
668.819	5.08
668.851	-23.92
668.882	5.08
668.914	9.08
668.946	-4.92
668.977	2.08
669.009	6.08
669.04	-8.92
669.072	-1.92
669.103	0.08
669.135	5.08
669.166	4.08
669.198	3.08
669.229	2.08
669.261	12.08
669.292	10.08
669.324	14.08
669.355	18.08
669.387	-4.92
669.418	4.08
669.45	-11.92
669.481	-6.92
669.513	5.08
669.544	16.08
669.576	0.08
669.607	15.08
669.639	9.08
669.67	-12.92
669.701	10.08
669.733	-22.92
669.764	-15.92
669.796	-2.92
669.827	-0.92
669.859	7.08
669.89	5.08
669.922	4.08
669.953	-3.92
669.985	20.08
670.016	7.08
670.047	-0.92
670.079	0.08
670.11	1.08
670.142	-2.92
670.173	1.08
670.204	4.08
670.236	-0.92
670.267	-5.92
670.299	9.08
670.33	2.08
670.362	6.08
670.393	-2.92
670.424	-8.92
670.456	-12.92
670.487	1.08
670.518	1.08
670.55	3.08
670.581	-2.92
670.613	4.08
670.644	4.08
670.675	-0.92
670.707	1.08
670.738	8.08
670.769	0.08
670.801	-4.92
670.832	13.08
670.864	-15.92
670.895	6.08
670.926	0.08
670.958	5.08
670.989	7.08
671.02	7.08
671.052	-14.92
671.083	6.08
671.114	-11.92
671.146	4.08
671.177	6.08
671.208	0.08
671.24	-7.92
671.271	-12.92
671.302	-0.92
671.333	1.08
671.365	-15.92
671.396	-6.92
671.427	4.08
671.459	-6.92
671.49	7.08
671.521	-0.92
671.553	-5.92
671.584	7.08
671.615	5.08
671.646	-5.92
671.678	17.08
671.709	7.08
671.74	-19.92
671.771	-3.92
671.803	-13.92
671.834	-4.92
671.865	-6.92
671.896	11.08
671.928	8.08
671.959	0.08
671.99	3.08
672.021	-7.92
672.053	-21.92
672.084	3.08
672.115	-7.92
672.146	-6.92
672.178	-14.92
672.209	0.08
672.24	0.08
672.271	21.08
672.303	13.08
672.334	2.08
672.365	-0.92
672.396	-3.92
672.427	18.08
672.459	2.08
672.49	9.08
672.521	8.08
672.552	20.08
672.583	2.08
672.615	-6.92
672.646	0.08
672.677	-16.92
672.708	-9.92
672.739	5.08
672.77	11.08
672.802	8.08
672.833	-11.92
672.864	-9.92
672.895	-1.92
672.926	-1.92
672.957	-10.92
672.989	-5.92
673.02	-2.92
673.051	-12.92
673.082	8.08
673.113	14.08
673.144	-1.92
673.175	0.08
673.206	-2.92
673.238	4.08
673.269	-5.92
673.3	-10.92
673.331	5.08
673.362	2.08
673.393	10.08
673.424	10.08
673.455	11.08
673.487	12.08
673.518	18.08
673.549	1.08
673.58	-23.92
673.611	5.08
673.642	5.08
673.673	-20.92
673.704	8.08
673.735	12.08
673.766	-9.92
673.797	-24.92
673.828	-0.92
673.86	-5.92
673.891	2.08
673.922	-17.92
673.953	-19.92
673.984	-6.92
674.015	12.08
674.046	-2.92
674.077	2.08
674.108	-10.92
674.139	-3.92
674.17	-2.92
674.201	-7.92
674.232	-3.92
674.263	-0.92
674.294	-9.92
674.325	-9.92
674.356	4.08
674.387	12.08
674.418	5.08
674.449	-3.92
674.48	-1.92
674.511	-3.92
674.542	11.08
674.573	-8.92
674.604	1.08
674.635	11.08
674.666	21.08
674.697	1.08
674.728	8.08
674.759	-0.92
674.79	-8.92
674.821	6.08
674.852	4.08
674.883	-4.92
674.914	6.08
674.945	7.08
674.976	4.08
675.007	0.08
675.038	10.08
675.069	1.08
675.1	-3.92
675.131	-17.92
675.162	6.08
675.193	-2.92
675.224	-4.92
675.254	19.08
675.285	-6.92
675.316	4.08
675.347	7.08
675.378	-0.92
675.409	0.08
675.44	5.08
675.471	0.08
675.502	-25.92
675.533	5.08
675.564	-3.92
675.595	4.08
675.625	27.08
675.656	8.08
675.687	-2.92
675.718	-14.92
675.749	4.08
675.78	-5.92
675.811	-1.92
675.842	19.08
675.873	2.08
675.903	-2.92
675.934	-17.92
675.965	-13.92
675.996	-13.92
676.027	15.08
676.058	-12.92
676.089	-16.92
676.119	13.08
676.15	-4.92
676.181	-8.92
676.212	-10.92
676.243	19.08
676.274	5.08
676.304	22.08
676.335	-12.92
676.366	-10.92
676.397	-9.92
676.428	-7.92
676.459	16.08
676.489	14.08
676.52	-0.92
676.551	2.08
676.582	-2.92
676.613	-10.92
676.643	-10.92
676.674	23.08
676.705	0.08
676.736	12.08
676.767	22.08
676.797	4.08
676.828	-1.92
676.859	0.08
676.89	-3.92
676.92	12.08
676.951	-3.92
676.982	0.08
677.013	-12.92
677.044	13.08
677.074	19.08
677.105	1.08
677.136	10.08
677.167	1.08
677.197	6.08
677.228	-4.92
677.259	9.08
677.289	8.08
677.32	6.08
677.351	-0.92
677.382	4.08
677.412	0.08
677.443	22.08
677.474	3.08
677.505	-11.92
677.535	8.08
677.566	-0.92
677.597	-1.92
677.627	-0.92
677.658	3.08
677.689	16.08
677.72	-5.92
677.75	0.08
677.781	3.08
677.812	13.08
677.842	4.08
677.873	2.08
677.904	5.08
677.934	-12.92
677.965	-15.92
677.996	-16.92
678.026	2.08
678.057	13.08
678.088	7.08
678.118	-12.92
678.149	-3.92
678.18	15.08
678.21	3.08
678.241	9.08
678.272	4.08
678.302	-11.92
678.333	16.08
678.363	19.08
678.394	7.08
678.425	10.08
678.455	-3.92
678.486	6.08
678.517	-7.92
678.547	6.08
678.578	16.08
678.608	-17.92
678.639	-0.92
678.67	-7.92
678.7	2.08
678.731	3.08
678.761	6.08
678.792	8.08
678.823	11.08
678.853	1.08
678.884	-11.92
678.914	-1.92
678.945	-2.92
678.975	-12.92
679.006	9.08
679.037	-2.92
679.067	16.08
679.098	8.08
679.128	-4.92
679.159	0.08
679.189	7.08
679.22	-20.92
679.25	11.08
679.281	17.08
679.312	7.08
679.342	-11.92
679.373	41.08
679.403	2.08
679.434	-4.92
679.464	-5.92
679.495	-16.92
679.525	-10.92
679.556	2.08
679.586	19.08
679.617	-0.92
679.647	-1.92
679.678	2.08
679.708	7.08
679.739	-0.92
679.769	-4.92
679.8	2.08
679.83	2.08
679.861	12.08
679.891	-3.92
679.922	-8.92
679.952	3.08
679.983	14.08
680.013	3.08
680.044	-2.92
680.074	8.08
680.105	7.08
680.135	14.08
680.165	6.08
680.196	4.08
680.226	1.08
680.257	0.08
680.287	9.08
680.318	-1.92
680.348	4.08
680.379	12.08
680.409	11.08
680.439	-1.92
680.47	-3.92
680.5	-6.92
680.531	8.08
680.561	7.08
680.592	18.08
680.622	-0.92
680.652	1.08
680.683	16.08
680.713	5.08
680.744	6.08
680.774	-14.92
680.804	3.08
680.835	-2.92
680.865	-5.92
680.896	25.08
680.926	19.08
680.956	-2.92
680.987	7.08
681.017	-0.92
681.047	1.08
681.078	-14.92
681.108	-7.92
681.139	7.08
681.169	3.08
681.199	-1.92
681.23	11.08
681.26	8.08
681.29	-6.92
681.321	-10.92
681.351	5.08
681.381	-0.92
681.412	8.08
681.442	6.08
681.472	6.08
681.503	8.08
681.533	-7.92
681.563	-0.92
681.594	-0.92
681.624	12.08
681.654	-3.92
681.685	-1.92
681.715	0.08
681.745	-8.92
681.775	-0.92
681.806	0.08
681.836	14.08
681.866	1.08
681.897	5.08
681.927	0.08
681.957	-17.92
681.987	-5.92
682.018	-0.92
682.048	10.08
682.078	-4.92
682.109	23.08
682.139	0.08
682.169	-4.92
682.199	-3.92
682.23	-5.92
682.26	0.08
682.29	0.08
682.32	-0.92
682.351	0.08
682.381	-8.92
682.411	2.08
682.441	0.08
682.472	-5.92
682.502	-8.92
682.532	-13.92
682.562	-9.92
682.592	2.08
682.623	9.08
682.653	9.08
682.683	-0.92
682.713	-0.92
682.743	-0.92
682.774	10.08
682.804	1.08
682.834	24.08
682.864	-4.92
682.894	-3.92
682.925	-1.92
682.955	1.08
682.985	2.08
683.015	0.08
683.045	11.08
683.076	-20.92
683.106	5.08
683.136	-8.92
683.166	-4.92
683.196	-11.92
683.226	7.08
683.257	-7.92
683.287	-17.92
683.317	-2.92
683.347	0.08
683.377	-3.92
683.407	4.08
683.437	9.08
683.468	10.08
683.498	-3.92
683.528	-4.92
683.558	3.08
683.588	-6.92
683.618	-12.92
683.648	-6.92
683.678	7.08
683.708	13.08
683.739	3.08
683.769	7.08
683.799	6.08
683.829	-9.92
683.859	17.08
683.889	18.08
683.919	1.08
683.949	4.08
683.979	5.08
684.009	1.08
684.039	10.08
684.07	4.08
684.1	27.08
684.13	11.08
684.16	-7.92
684.19	-13.92
684.22	-15.92
684.25	3.08
684.28	2.08
684.31	16.08
684.34	13.08
684.37	1.08
684.4	-7.92
684.43	1.08
684.46	-2.92
684.49	-3.92
684.52	12.08
684.55	10.08
684.58	7.08
684.61	18.08
684.64	4.08
684.67	7.08
684.7	6.08
684.73	9.08
684.76	0.08
684.79	4.08
684.82	4.08
684.85	-1.92
684.88	-2.92
684.91	16.08
684.94	11.08
684.97	0.08
685	7.08
685.03	-2.92
685.06	0.08
685.09	5.08
685.12	8.08
685.15	-2.92
685.18	4.08
685.21	7.08
685.24	13.08
685.27	7.08
685.3	-2.92
685.33	7.08
685.36	-8.92
685.39	-7.92
685.42	-1.92
685.45	18.08
685.48	5.08
685.51	1.08
685.54	1.08
685.569	22.08
685.599	5.08
685.629	8.08
685.659	-9.92
685.689	-0.92
685.719	0.08
685.749	3.08
685.779	22.08
685.809	0.08
685.839	0.08
685.869	-2.92
685.898	15.08
685.928	10.08
685.958	10.08
685.988	21.08
686.018	2.08
686.048	23.08
686.078	7.08
686.108	8.08
686.137	5.08
686.167	9.08
686.197	-6.92
686.227	1.08
686.257	28.08
686.287	10.08
686.317	6.08
686.346	-1.92
686.376	2.08
686.406	0.08
686.436	17.08
686.466	-0.92
686.496	10.08
686.525	8.08
686.555	-6.92
686.585	12.08
686.615	39.08
686.645	14.08
686.675	-1.92
686.704	6.08
686.734	10.08
686.764	-6.92
686.794	5.08
686.824	-2.92
686.853	1.08
686.883	19.08
686.913	16.08
686.943	13.08
686.973	-14.92
687.002	7.08
687.032	12.08
687.062	-8.92
687.092	16.08
687.121	-1.92
687.151	3.08
687.181	-3.92
687.211	13.08
687.24	0.08
687.27	19.08
687.3	-2.92
687.33	5.08
687.359	-9.92
687.389	9.08
687.419	9.08
687.449	0.08
687.478	10.08
687.508	-9.92
687.538	5.08
687.568	27.08
687.597	-11.92
687.627	-2.92
687.657	-0.92
687.686	6.08
687.716	19.08
687.746	-2.92
687.776	-5.92
687.805	20.08
687.835	2.08
687.865	21.08
687.894	1.08
687.924	4.08
687.954	-5.92
687.983	-3.92
688.013	14.08
688.043	13.08
688.072	-10.92
688.102	16.08
688.132	-0.92
688.161	10.08
688.191	1.08
688.221	10.08
688.25	2.08
688.28	-3.92
688.31	-4.92
688.339	8.08
688.369	0.08
688.399	0.08
688.428	-10.92
688.458	13.08
688.488	4.08
688.517	19.08
688.547	-7.92
688.576	47.08
688.606	18.08
688.636	-3.92
688.665	7.08
688.695	20.08
688.725	15.08
688.754	6.08
688.784	2.08
688.813	9.08
688.843	8.08
688.873	-5.92
688.902	-7.92
688.932	11.08
688.961	16.08
688.991	18.08
689.02	21.08
689.05	2.08
689.08	12.08
689.109	15.08
689.139	19.08
689.168	9.08
689.198	6.08
689.227	-4.92
689.257	4.08
689.287	2.08
689.316	21.08
689.346	-9.92
689.375	-12.92
689.405	8.08
689.434	-3.92
689.464	-2.92
689.493	-8.92
689.523	-8.92
689.552	-2.92
689.582	11.08
689.611	1.08
689.641	12.08
689.67	2.08
689.7	6.08
689.73	4.08
689.759	3.08
689.789	19.08
689.818	8.08
689.848	11.08
689.877	14.08
689.906	3.08
689.936	-0.92
689.965	-14.92
689.995	0.08
690.024	17.08
690.054	13.08
690.083	14.08
690.113	0.08
690.142	2.08
690.172	13.08
690.201	2.08
690.231	-0.92
690.26	-2.92
690.29	1.08
690.319	3.08
690.348	-2.92
690.378	-1.92
690.407	-6.92
690.437	2.08
690.466	11.08
690.496	-4.92
690.525	16.08
690.555	5.08
690.584	-0.92
690.613	5.08
690.643	14.08
690.672	-1.92
690.702	2.08
690.731	4.08
690.76	9.08
690.79	62.08
690.819	35.08
690.849	33.08
690.878	32.08
690.907	19.08
690.937	42.08
690.966	19.08
690.996	4.08
691.025	-0.92
691.054	-2.92
691.084	2.08
691.113	-1.92
691.142	14.08
691.172	11.08
691.201	9.08
691.23	16.08
691.26	17.08
691.289	1.08
691.319	-1.92
691.348	-3.92
691.377	6.08
691.407	6.08
691.436	6.08
691.465	8.08
691.495	9.08
691.524	-20.92
691.553	-5.92
691.583	-0.92
691.612	15.08
691.641	8.08
691.67	-1.92
691.7	-7.92
691.729	-28.92
691.758	2.08
691.788	-0.92
691.817	9.08
691.846	-2.92
691.876	3.08
691.905	6.08
691.934	1.08
691.963	18.08
691.993	-1.92
692.022	-0.92
692.051	3.08
692.081	26.08
692.11	28.08
692.139	-2.92
692.168	12.08
692.198	18.08
692.227	23.08
692.256	6.08
692.285	7.08
692.315	0.08
692.344	14.08
692.373	6.08
692.402	-0.92
692.432	-0.92
692.461	-9.92
692.49	-10.92
692.519	-11.92
692.548	15.08
692.578	5.08
692.607	1.08
692.636	-4.92
692.665	21.08
692.694	-3.92
692.724	13.08
692.753	10.08
692.782	25.08
692.811	10.08
692.84	10.08
692.87	6.08
692.899	-6.92
692.928	-8.92
692.957	30.08
692.986	15.08
693.016	13.08
693.045	9.08
693.074	9.08
693.103	2.08
693.132	16.08
693.161	11.08
693.191	20.08
693.22	-11.92
693.249	4.08
693.278	3.08
693.307	4.08
693.336	-11.92
693.365	-21.92
693.395	6.08
693.424	-4.92
693.453	25.08
693.482	2.08
693.511	10.08
693.54	11.08
693.569	8.08
693.598	13.08
693.628	12.08
693.657	10.08
693.686	12.08
693.715	13.08
693.744	13.08
693.773	24.08
693.802	6.08
693.831	9.08
693.86	17.08
693.889	2.08
693.919	16.08
693.948	3.08
693.977	0.08
694.006	-5.92
694.035	-0.92
694.064	3.08
694.093	4.08
694.122	8.08
694.151	1.08
694.18	12.08
694.209	24.08
694.238	10.08
694.267	32.08
694.296	16.08
694.325	16.08
694.354	27.08
694.383	8.08
694.412	0.08
694.441	8.08
694.471	-1.92
694.5	-10.92
694.529	6.08
694.558	12.08
694.587	8.08
694.616	6.08
694.645	-2.92
694.674	21.08
694.703	18.08
694.732	-1.92
694.761	15.08
694.79	24.08
694.819	-1.92
694.848	0.08
694.877	22.08
694.906	36.08
694.935	15.08
694.963	21.08
694.992	-2.92
695.021	21.08
695.05	11.08
695.079	6.08
695.108	17.08
695.137	34.08
695.166	8.08
695.195	5.08
695.224	27.08
695.253	5.08
695.282	-0.92
695.311	4.08
695.34	12.08
695.369	6.08
695.398	2.08
695.427	18.08
695.456	7.08
695.485	11.08
695.513	0.08
695.542	16.08
695.571	-1.92
695.6	5.08
695.629	13.08
695.658	15.08
695.687	10.08
695.716	12.08
695.745	23.08
695.774	-3.92
695.802	3.08
695.831	16.08
695.86	12.08
695.889	6.08
695.918	6.08
695.947	-0.92
695.976	13.08
696.005	16.08
696.033	16.08
696.062	21.08
696.091	-4.92
696.12	13.08
696.149	15.08
696.178	-5.92
696.207	16.08
696.235	-19.92
696.264	5.08
696.293	0.08
696.322	-4.92
696.351	19.08
696.38	4.08
696.408	9.08
696.437	-1.92
696.466	17.08
696.495	14.08
696.524	3.08
696.553	12.08
696.581	14.08
696.61	31.08
696.639	-0.92
696.668	-10.92
696.697	3.08
696.725	16.08
696.754	-3.92
696.783	2.08
696.812	1.08
696.84	6.08
696.869	20.08
696.898	-9.92
696.927	-0.92
696.956	10.08
696.984	-1.92
697.013	11.08
697.042	2.08
697.071	-3.92
697.099	29.08
697.128	8.08
697.157	5.08
697.186	4.08
697.214	-7.92
697.243	-4.92
697.272	1.08
697.301	6.08
697.329	17.08
697.358	3.08
697.387	7.08
697.415	9.08
697.444	11.08
697.473	2.08
697.502	-1.92
697.53	7.08
697.559	5.08
697.588	11.08
697.616	11.08
697.645	9.08
697.674	2.08
697.703	20.08
697.731	2.08
697.76	12.08
697.789	1.08
697.817	3.08
697.846	17.08
697.875	16.08
697.903	44.08
697.932	15.08
697.961	12.08
697.989	23.08
698.018	9.08
698.047	1.08
698.075	12.08
698.104	3.08
698.133	2.08
698.161	0.08
698.19	-8.92
698.218	-0.92
698.247	-0.92
698.276	0.08
698.304	21.08
698.333	12.08
698.362	-0.92
698.39	8.08
698.419	0.08
698.447	-12.92
698.476	6.08
698.505	18.08
698.533	16.08
698.562	-1.92
698.591	1.08
698.619	-7.92
698.648	9.08
698.676	18.08
698.705	-1.92
698.733	-16.92
698.762	0.08
698.791	1.08
698.819	0.08
698.848	8.08
698.876	5.08
698.905	7.08
698.933	12.08
698.962	4.08
698.991	16.08
699.019	14.08
699.048	9.08
699.076	1.08
699.105	-3.92
699.133	-14.92
699.162	17.08
699.19	17.08
699.219	13.08
699.248	12.08
699.276	16.08
699.305	-2.92
699.333	0.08
699.362	1.08
699.39	13.08
699.419	-14.92
699.447	14.08
699.476	25.08
699.504	0.08
699.533	0.08
699.561	-4.92
699.59	-1.92
699.618	2.08
699.647	2.08
699.675	0.08
699.704	19.08
699.732	0.08
699.761	13.08
699.789	-6.92
699.818	9.08
699.846	1.08
699.874	3.08
699.903	-1.92
699.931	7.08
699.96	11.08
699.988	6.08
700.017	6.08
700.045	-0.92
700.074	-1.92
700.102	-1.92
700.13	-18.92
700.159	-10.92
700.187	-2.92
700.216	-5.92
700.244	-8.92
700.273	0.08
700.301	-3.92
700.329	3.08
700.358	0.08
700.386	-0.92
700.415	20.08
700.443	3.08
700.472	-6.92
700.5	1.08
700.528	6.08
700.557	5.08
700.585	16.08
700.614	7.08
700.642	3.08
700.67	13.08
700.699	0.08
700.727	2.08
700.755	5.08
700.784	-4.92
700.812	-9.92
700.841	19.08
700.869	-1.92
700.897	1.08
700.926	-4.92
700.954	4.08
700.982	20.08
701.011	7.08
701.039	13.08
701.067	18.08
701.096	13.08
701.124	-5.92
701.152	6.08
701.181	3.08
701.209	-16.92
701.237	6.08
701.266	-7.92
701.294	2.08
701.322	-11.92
701.351	3.08
701.379	5.08
701.407	-10.92
701.435	1.08
701.464	8.08
701.492	9.08
701.52	-16.92
701.549	0.08
701.577	-2.92
701.605	6.08
701.634	6.08
701.662	15.08
701.69	-0.92
701.718	-8.92
701.747	10.08
701.775	-2.92
701.803	-6.92
701.831	6.08
701.86	-0.92
701.888	8.08
701.916	-15.92
701.944	-5.92
701.973	-8.92
702.001	-11.92
702.029	-3.92
702.057	0.08
702.086	-8.92
702.114	-17.92
702.142	3.08
702.17	1.08
702.199	6.08
702.227	-2.92
702.255	-3.92
702.283	-11.92
702.311	1.08
702.34	9.08
702.368	-15.92
702.396	-10.92
702.424	6.08
702.452	-12.92
702.481	6.08
702.509	6.08
702.537	0.08
702.565	10.08
702.593	-0.92
702.621	3.08
702.65	15.08
702.678	6.08
702.706	9.08
702.734	-24.92
702.762	0.08
702.79	2.08
702.819	0.08
702.847	22.08
702.875	14.08
702.903	-0.92
702.931	-11.92
702.959	-8.92
702.988	-4.92
703.016	-8.92
703.044	15.08
703.072	-0.92
703.1	3.08
703.128	-4.92
703.156	11.08
703.184	3.08
703.212	5.08
703.241	22.08
703.269	4.08
703.297	-1.92
703.325	-1.92
703.353	-5.92
703.381	-5.92
703.409	-0.92
703.437	-12.92
703.465	3.08
703.493	-7.92
703.522	-4.92
703.55	24.08
703.578	5.08
703.606	-17.92
703.634	-8.92
703.662	0.08
703.69	-8.92
703.718	10.08
703.746	15.08
703.774	10.08
703.802	22.08
703.83	-23.92
703.858	-4.92
703.886	12.08
703.914	10.08
703.942	13.08
703.97	-2.92
703.998	-1.92
704.027	35.08
704.055	17.08
704.083	15.08
704.111	-4.92
704.139	-9.92
704.167	-7.92
704.195	-6.92
704.223	-0.92
704.251	2.08
704.279	2.08
704.307	13.08
704.335	-7.92
704.363	7.08
704.391	-9.92
704.419	-14.92
704.447	-3.92
704.475	8.08
704.503	-6.92
704.531	8.08
704.558	4.08
704.586	3.08
704.614	-4.92
704.642	5.08
704.67	-2.92
704.698	-5.92
704.726	10.08
704.754	-2.92
704.782	-4.92
704.81	-9.92
704.838	17.08
704.866	8.08
704.894	-3.92
704.922	-0.92
704.95	-6.92
704.978	12.08
705.006	8.08
705.034	28.08
705.061	-1.92
705.089	3.08
705.117	-3.92
705.145	6.08
705.173	7.08
705.201	9.08
705.229	16.08
705.257	-1.92
705.285	6.08
705.313	11.08
705.34	0.08
705.368	-12.92
705.396	3.08
705.424	20.08
705.452	5.08
705.48	16.08
705.508	18.08
705.536	-1.92
705.563	-0.92
705.591	15.08
705.619	3.08
705.647	8.08
705.675	6.08
705.703	20.08
705.731	5.08
705.758	24.08
705.786	9.08
705.814	1.08
705.842	11.08
705.87	20.08
705.898	5.08
705.925	-1.92
705.953	11.08
705.981	-6.92
706.009	5.08
706.037	16.08
706.065	7.08
706.092	-1.92
706.12	-5.92
706.148	-24.92
706.176	-2.92
706.204	0.08
706.231	-4.92
706.259	-12.92
706.287	-17.92
706.315	1.08
706.342	-0.92
706.37	18.08
706.398	-0.92
706.426	-9.92
706.454	13.08
706.481	10.08
706.509	-8.92
706.537	-13.92
706.565	-0.92
706.592	21.08
706.62	4.08
706.648	15.08
706.676	-7.92
706.703	-1.92
706.731	4.08
706.759	-9.92
706.787	6.08
706.814	5.08
706.842	-8.92
706.87	-9.92
706.897	-0.92
706.925	7.08
706.953	10.08
706.981	6.08
707.008	4.08
707.036	3.08
707.064	0.08
707.091	-15.92
707.119	20.08
707.147	1.08
707.174	4.08
707.202	7.08
707.23	-6.92
707.258	3.08
707.285	-8.92
707.313	3.08
707.341	7.08
707.368	-8.92
707.396	3.08
707.424	15.08
707.451	15.08
707.479	0.08
707.507	-4.92
707.534	-0.92
707.562	16.08
707.59	5.08
707.617	-12.92
707.645	0.08
707.672	10.08
707.7	3.08
707.728	8.08
707.755	20.08
707.783	3.08
707.811	-6.92
707.838	-16.92
707.866	-1.92
707.893	0.08
707.921	4.08
707.949	-2.92
707.976	3.08
708.004	5.08
708.031	6.08
708.059	-5.92
708.087	5.08
708.114	-8.92
708.142	-21.92
708.169	-17.92
708.197	-16.92
708.225	4.08
708.252	-0.92
708.28	30.08
708.307	20.08
708.335	18.08
708.362	-2.92
708.39	-8.92
708.418	-11.92
708.445	-2.92
708.473	-19.92
708.5	-13.92
708.528	23.08
708.555	11.08
708.583	18.08
708.61	-2.92
708.638	6.08
708.665	-0.92
708.693	-13.92
708.72	6.08
708.748	-2.92
708.776	-7.92
708.803	11.08
708.831	-5.92
708.858	6.08
708.886	14.08
708.913	12.08
708.941	-7.92
708.968	15.08
708.996	4.08
709.023	35.08
709.051	4.08
709.078	-11.92
709.105	4.08
709.133	5.08
709.16	-9.92
709.188	0.08
709.215	6.08
709.243	16.08
709.27	-0.92
709.298	4.08
709.325	2.08
709.353	1.08
709.38	-3.92
709.408	7.08
709.435	-0.92
709.462	-2.92
709.49	6.08
709.517	-10.92
709.545	-4.92
709.572	-10.92
709.6	-0.92
709.627	9.08
709.655	-3.92
709.682	5.08
709.709	4.08
709.737	0.08
709.764	4.08
709.792	7.08
709.819	-1.92
709.846	16.08
709.874	9.08
709.901	8.08
709.929	14.08
709.956	8.08
709.983	5.08
710.011	-1.92
710.038	5.08
710.066	15.08
710.093	15.08
710.12	11.08
710.148	-0.92
710.175	-10.92
710.202	0.08
710.23	14.08
710.257	6.08
710.284	32.08
710.312	7.08
710.339	3.08
710.366	-9.92
710.394	-5.92
710.421	-10.92
710.448	-3.92
710.476	-1.92
710.503	4.08
710.53	29.08
710.558	11.08
710.585	27.08
710.612	-1.92
710.64	3.08
710.667	-12.92
710.694	-13.92
710.722	-11.92
710.749	1.08
710.776	-0.92
710.804	16.08
710.831	-12.92
710.858	-4.92
710.885	1.08
710.913	9.08
710.94	11.08
710.967	-3.92
710.995	-0.92
711.022	22.08
711.049	1.08
711.076	-5.92
711.104	2.08
711.131	-11.92
711.158	7.08
711.185	12.08
711.213	3.08
711.24	5.08
711.267	-12.92
711.294	-2.92
711.322	18.08
711.349	1.08
711.376	2.08
711.403	-2.92
711.431	-0.92
711.458	6.08
711.485	-8.92
711.512	-4.92
711.54	11.08
711.567	5.08
711.594	-4.92
711.621	-0.92
711.648	-1.92
711.676	7.08
711.703	-7.92
711.73	-8.92
711.757	-6.92
711.784	1.08
711.812	7.08
711.839	7.08
711.866	4.08
711.893	-6.92
711.92	10.08
711.947	10.08
711.975	21.08
712.002	11.08
712.029	-3.92
712.056	6.08
712.083	7.08
712.11	-14.92
712.138	4.08
712.165	3.08
712.192	13.08
712.219	-9.92
712.246	-6.92
712.273	-7.92
712.3	6.08
712.328	-3.92
712.355	17.08
712.382	13.08
712.409	17.08
712.436	-1.92
712.463	11.08
712.49	10.08
712.517	7.08
712.544	-8.92
712.572	-3.92
712.599	-9.92
712.626	9.08
712.653	-4.92
712.68	4.08
712.707	12.08
712.734	2.08
712.761	8.08
712.788	-3.92
712.815	0.08
712.842	20.08
712.87	1.08
712.897	-7.92
712.924	-1.92
712.951	23.08
712.978	2.08
713.005	27.08
713.032	18.08
713.059	10.08
713.086	-4.92
713.113	-4.92
713.14	4.08
713.167	6.08
713.194	25.08
713.221	9.08
713.248	2.08
713.275	-8.92
713.302	0.08
713.329	22.08
713.356	10.08
713.383	12.08
713.41	9.08
713.437	-15.92
713.464	4.08
713.491	18.08
713.518	23.08
713.545	10.08
713.572	-5.92
713.599	24.08
713.626	4.08
713.653	0.08
713.68	6.08
713.707	2.08
713.734	9.08
713.761	0.08
713.788	-0.92
713.815	4.08
713.842	13.08
713.869	3.08
713.896	-4.92
713.923	12.08
713.95	4.08
713.977	-3.92
714.004	-1.92
714.031	-0.92
714.058	-1.92
714.085	2.08
714.112	5.08
714.139	7.08
714.165	-2.92
714.192	-5.92
714.219	15.08
714.246	1.08
714.273	2.08
714.3	2.08
714.327	10.08
714.354	16.08
714.381	8.08
714.408	-7.92
714.435	-9.92
714.461	4.08
714.488	9.08
714.515	0.08
714.542	-1.92
714.569	8.08
714.596	-23.92
714.623	-12.92
714.65	1.08
714.677	15.08
714.703	2.08
714.73	9.08
714.757	3.08
714.784	8.08
714.811	0.08
714.838	2.08
714.865	-1.92
714.891	20.08
714.918	-0.92
714.945	-7.92
714.972	7.08
714.999	11.08
715.026	6.08
715.052	19.08
715.079	-11.92
715.106	-0.92
715.133	-4.92
715.16	-0.92
715.187	12.08
715.213	15.08
715.24	-0.92
715.267	-9.92
715.294	-1.92
715.321	14.08
715.347	-1.92
715.374	-12.92
715.401	12.08
715.428	1.08
715.455	-0.92
715.481	-5.92
715.508	-7.92
715.535	-8.92
715.562	25.08
715.588	0.08
715.615	-1.92
715.642	6.08
715.669	12.08
715.695	2.08
715.722	2.08
715.749	15.08
715.776	7.08
715.802	4.08
715.829	-2.92
715.856	-17.92
715.883	8.08
715.909	-14.92
715.936	3.08
715.963	-0.92
715.99	-3.92
716.016	10.08
716.043	-2.92
716.07	-1.92
716.096	3.08
716.123	-14.92
716.15	-3.92
716.177	1.08
716.203	19.08
716.23	9.08
716.257	22.08
716.283	16.08
716.31	1.08
716.337	-5.92
716.363	-3.92
716.39	-5.92
716.417	15.08
716.443	6.08
716.47	16.08
716.497	18.08
716.523	28.08
716.55	3.08
716.577	23.08
716.603	9.08
716.63	-14.92
716.657	0.08
716.683	5.08
716.71	12.08
716.737	-6.92
716.763	0.08
716.79	-2.92
716.817	16.08
716.843	21.08
716.87	-5.92
716.897	15.08
716.923	16.08
716.95	-5.92
716.976	-7.92
717.003	-2.92
717.03	9.08
717.056	15.08
717.083	6.08
717.109	19.08
717.136	7.08
717.163	4.08
717.189	14.08
717.216	4.08
717.242	-0.92
717.269	11.08
717.296	29.08
717.322	25.08
717.349	11.08
717.375	10.08
717.402	-1.92
717.428	10.08
717.455	4.08
717.481	4.08
717.508	5.08
717.535	19.08
717.561	23.08
717.588	-5.92
717.614	-5.92
717.641	-1.92
717.667	-2.92
717.694	3.08
717.72	4.08
717.747	2.08
717.773	-18.92
717.8	18.08
717.826	1.08
717.853	18.08
717.88	20.08
717.906	0.08
717.933	2.08
717.959	11.08
717.986	1.08
718.012	-11.92
718.039	3.08
718.065	26.08
718.092	0.08
718.118	8.08
718.144	15.08
718.171	9.08
718.197	12.08
718.224	10.08
718.25	6.08
718.277	11.08
718.303	8.08
718.33	5.08
718.356	-19.92
718.383	-9.92
718.409	-4.92
718.436	-1.92
718.462	-4.92
718.489	-5.92
718.515	-7.92
718.541	11.08
718.568	9.08
718.594	12.08
718.621	22.08
718.647	17.08
718.674	19.08
718.7	16.08
718.726	-3.92
718.753	-3.92
718.779	18.08
718.806	-8.92
718.832	-3.92
718.858	1.08
718.885	-3.92
718.911	8.08
718.938	11.08
718.964	-4.92
718.99	-3.92
719.017	10.08
719.043	16.08
719.07	34.08
719.096	-4.92
719.122	15.08
719.149	19.08
719.175	5.08
719.201	10.08
719.228	3.08
719.254	10.08
719.281	-0.92
719.307	4.08
719.333	-7.92
719.36	-2.92
719.386	-3.92
719.412	4.08
719.439	-4.92
719.465	9.08
719.491	-5.92
719.518	-14.92
719.544	-5.92
719.57	4.08
719.597	17.08
719.623	-4.92
719.649	8.08
719.675	6.08
719.702	1.08
719.728	4.08
719.754	-14.92
719.781	-5.92
719.807	3.08
719.833	-0.92
719.86	-4.92
719.886	2.08
719.912	8.08
719.938	2.08
719.965	-2.92
719.991	11.08
720.017	6.08
720.044	-4.92
720.07	-6.92
720.096	15.08
720.122	19.08
720.149	0.08
720.175	15.08
720.201	3.08
720.227	3.08
720.254	16.08
720.28	9.08
720.306	6.08
720.332	17.08
720.359	5.08
720.385	24.08
720.411	12.08
720.437	8.08
720.463	6.08
720.49	-5.92
720.516	-1.92
720.542	-4.92
720.568	-4.92
720.595	4.08
720.621	6.08
720.647	2.08
720.673	3.08
720.699	10.08
720.725	14.08
720.752	3.08
720.778	8.08
720.804	18.08
720.83	3.08
720.856	-20.92
720.883	-4.92
720.909	-1.92
720.935	12.08
720.961	17.08
720.987	5.08
721.013	5.08
721.04	2.08
721.066	1.08
721.092	3.08
721.118	-2.92
721.144	7.08
721.17	-5.92
721.196	-5.92
721.223	-9.92
721.249	0.08
721.275	21.08
721.301	7.08
721.327	19.08
721.353	12.08
721.379	2.08
721.405	26.08
721.432	14.08
721.458	1.08
721.484	21.08
721.51	5.08
721.536	12.08
721.562	3.08
721.588	0.08
721.614	0.08
721.64	9.08
721.666	-2.92
721.693	-7.92
721.719	-7.92
721.745	5.08
721.771	7.08
721.797	-7.92
721.823	-2.92
721.849	14.08
721.875	6.08
721.901	0.08
721.927	-6.92
721.953	19.08
721.979	8.08
722.005	20.08
722.031	-11.92
722.057	-6.92
722.083	9.08
722.109	4.08
722.135	15.08
722.161	12.08
722.187	-3.92
722.214	-11.92
722.24	-0.92
722.266	2.08
722.292	8.08
722.318	8.08
722.344	-3.92
722.37	-5.92
722.396	-0.92
722.422	1.08
722.448	19.08
722.474	-14.92
722.5	12.08
722.526	11.08
722.552	8.08
722.578	11.08
722.603	19.08
722.629	-15.92
722.655	15.08
722.681	-15.92
722.707	-0.92
722.733	-12.92
722.759	-8.92
722.785	-0.92
722.811	4.08
722.837	-1.92
722.863	14.08
722.889	16.08
722.915	-1.92
722.941	1.08
722.967	3.08
722.993	10.08
723.019	3.08
723.045	9.08
723.071	-0.92
723.097	8.08
723.122	-0.92
723.148	-3.92
723.174	9.08
723.2	23.08
723.226	8.08
723.252	0.08
723.278	-27.92
723.304	-13.92
723.33	-4.92
723.356	-9.92
723.381	2.08
723.407	-12.92
723.433	15.08
723.459	4.08
723.485	1.08
723.511	-1.92
723.537	2.08
723.563	-5.92
723.588	8.08
723.614	5.08
723.64	9.08
723.666	-0.92
723.692	1.08
723.718	0.08
723.744	1.08
723.769	-6.92
723.795	-17.92
723.821	6.08
723.847	17.08
723.873	3.08
723.899	4.08
723.924	4.08
723.95	12.08
723.976	4.08
724.002	6.08
724.028	14.08
724.053	3.08
724.079	-3.92
724.105	4.08
724.131	3.08
724.157	4.08
724.182	18.08
724.208	6.08
724.234	4.08
724.26	-7.92
724.286	8.08
724.311	0.08
724.337	-5.92
724.363	-6.92
724.389	5.08
724.415	-3.92
724.44	18.08
724.466	10.08
724.492	-5.92
724.518	7.08
724.543	-3.92
724.569	-9.92
724.595	4.08
724.621	6.08
724.646	0.08
724.672	-10.92
724.698	-14.92
724.723	-4.92
724.749	-3.92
724.775	-1.92
724.801	-4.92
724.826	-10.92
724.852	-14.92
724.878	-3.92
724.904	-21.92
724.929	-1.92
724.955	19.08
724.981	3.08
725.006	-6.92
725.032	-3.92
725.058	0.08
725.083	-5.92
725.109	-0.92
725.135	-1.92
725.161	-3.92
725.186	-1.92
725.212	-10.92
725.238	16.08
725.263	10.08
725.289	1.08
725.315	-9.92
725.34	-3.92
725.366	9.08
725.392	-7.92
725.417	-11.92
725.443	-1.92
725.468	4.08
725.494	1.08
725.52	-2.92
725.545	-6.92
725.571	-16.92
725.597	-3.92
725.622	-0.92
725.648	0.08
725.674	19.08
725.699	2.08
725.725	-2.92
725.75	22.08
725.776	-4.92
725.802	3.08
725.827	1.08
725.853	19.08
725.878	3.08
725.904	1.08
725.93	-4.92
725.955	-8.92
725.981	-5.92
726.006	-0.92
726.032	6.08
726.057	-4.92
726.083	-8.92
726.109	-0.92
726.134	6.08
726.16	23.08
726.185	-4.92
726.211	-15.92
726.236	2.08
726.262	-3.92
726.288	3.08
726.313	16.08
726.339	3.08
726.364	6.08
726.39	6.08
726.415	6.08
726.441	1.08
726.466	-2.92
726.492	8.08
726.517	-0.92
726.543	6.08
726.568	-15.92
726.594	-1.92
726.619	5.08
726.645	10.08
726.67	6.08
726.696	-6.92
726.721	-5.92
726.747	-11.92
726.772	13.08
726.798	-2.92
726.823	4.08
726.849	7.08
726.874	13.08
726.9	38.08
726.925	0.08
726.951	3.08
726.976	15.08
727.002	8.08
727.027	6.08
727.053	-0.92
727.078	-3.92
727.104	13.08
727.129	-10.92
727.155	-7.92
727.18	14.08
727.205	-1.92
727.231	-7.92
727.256	8.08
727.282	11.08
727.307	23.08
727.333	8.08
727.358	-4.92
727.383	-23.92
727.409	-5.92
727.434	11.08
727.46	-4.92
727.485	0.08
727.511	6.08
727.536	-7.92
727.561	-12.92
727.587	-8.92
727.612	5.08
727.637	-1.92
727.663	5.08
727.688	20.08
727.714	-12.92
727.739	11.08
727.764	-21.92
727.79	-4.92
727.815	10.08
727.841	25.08
727.866	9.08
727.891	2.08
727.917	-6.92
727.942	-6.92
727.967	0.08
727.993	-5.92
728.018	-2.92
728.043	5.08
728.069	8.08
728.094	14.08
728.119	9.08
728.145	29.08
728.17	4.08
728.195	3.08
728.221	24.08
728.246	6.08
728.271	-22.92
728.297	-2.92
728.322	-2.92
728.347	-15.92
728.373	12.08
728.398	14.08
728.423	-8.92
728.448	10.08
728.474	-4.92
728.499	7.08
728.524	-4.92
728.55	2.08
728.575	1.08
728.6	7.08
728.625	-1.92
728.651	2.08
728.676	1.08
728.701	-4.92
728.727	1.08
728.752	-4.92
728.777	6.08
728.802	3.08
728.828	7.08
728.853	-7.92
728.878	2.08
728.903	-8.92
728.929	6.08
728.954	-2.92
728.979	26.08
729.004	-3.92
729.03	-6.92
729.055	15.08
729.08	0.08
729.105	-5.92
729.13	8.08
729.156	1.08
729.181	2.08
729.206	-14.92
729.231	-2.92
729.256	10.08
729.282	-4.92
729.307	-13.92
729.332	-22.92
729.357	-13.92
729.382	-5.92
729.408	-1.92
729.433	10.08
729.458	-3.92
729.483	6.08
729.508	22.08
729.533	5.08
729.559	11.08
729.584	-4.92
729.609	12.08
729.634	17.08
729.659	7.08
729.684	-7.92
729.71	15.08
729.735	6.08
729.76	2.08
729.785	-3.92
729.81	14.08
729.835	4.08
729.86	-0.92
729.886	27.08
729.911	-2.92
729.936	3.08
729.961	20.08
729.986	24.08
730.011	49.08
730.036	196.08
730.061	1031.08
730.086	2761.08
730.112	3386.08
730.137	2851.08
730.162	2109.08
730.187	1643.08
730.212	1274.08
730.237	827.08
730.262	445.08
730.287	231.08
730.312	158.08
730.337	80.08
730.362	66.08
730.387	36.08
730.413	18.08
730.438	22.08
730.463	22.08
730.488	3.08
730.513	11.08
730.538	8.08
730.563	14.08
730.588	20.08
730.613	18.08
730.638	-10.92
730.663	9.08
730.688	36.08
730.713	4.08
730.738	-3.92
730.763	-0.92
730.788	-21.92
730.813	23.08
730.838	3.08
730.863	1.08
730.888	-5.92
730.913	5.08
730.938	0.08
730.963	30.08
730.988	110.08
731.013	395.08
731.038	602.08
731.063	572.08
731.088	476.08
731.113	351.08
731.138	281.08
731.163	196.08
731.188	120.08
731.213	67.08
731.238	38.08
731.263	17.08
731.288	7.08
731.313	12.08
731.338	3.08
731.363	3.08
731.388	5.08
731.413	0.08
731.438	23.08
731.463	4.08
731.487	17.08
731.512	-3.92
731.537	2.08
731.562	-0.92
731.587	-1.92
731.612	9.08
731.637	-7.92
731.662	-0.92
731.687	-11.92
731.712	1.08
731.737	12.08
731.762	-4.92
731.786	-6.92
731.811	18.08
731.836	10.08
731.861	3.08
731.886	2.08
731.911	6.08
731.936	12.08
731.961	-8.92
731.986	-12.92
732.01	12.08
732.035	10.08
732.06	10.08
732.085	6.08
732.11	9.08
732.135	-1.92
732.16	2.08
732.184	3.08
732.209	11.08
732.234	10.08
732.259	8.08
732.284	15.08
732.309	0.08
732.334	3.08
732.358	-8.92
732.383	-15.92
732.408	1.08
732.433	9.08
732.458	15.08
732.482	9.08
732.507	3.08
732.532	10.08
732.557	6.08
732.582	18.08
732.607	21.08
732.631	56.08
732.656	100.08
732.681	164.08
732.706	346.08
732.73	455.08
732.755	406.08
732.78	310.08
732.805	224.08
732.83	196.08
732.854	130.08
732.879	95.08
732.904	46.08
732.929	18.08
732.953	23.08
732.978	16.08
733.003	5.08
733.028	7.08
733.052	17.08
733.077	4.08
733.102	6.08
733.127	-3.92
733.151	2.08
733.176	-1.92
733.201	-4.92
733.226	6.08
733.25	-0.92
733.275	3.08
733.3	14.08
733.324	8.08
733.349	10.08
733.374	21.08
733.399	0.08
733.423	-7.92
733.448	-4.92
733.473	-5.92
733.497	-5.92
733.522	-11.92
733.547	10.08
733.571	19.08
733.596	4.08
733.621	-14.92
733.646	-10.92
733.67	12.08
733.695	-3.92
733.72	-5.92
733.744	14.08
733.769	12.08
733.794	6.08
733.818	13.08
733.843	-6.92
733.867	-6.92
733.892	3.08
733.917	-6.92
733.941	-2.92
733.966	1.08
733.991	-12.92
734.015	34.08
734.04	0.08
734.065	13.08
734.089	18.08
734.114	3.08
734.138	9.08
734.163	-6.92
734.188	-7.92
734.212	20.08
734.237	-0.92
734.261	5.08
734.286	-1.92
734.311	8.08
734.335	19.08
734.36	6.08
734.384	5.08
734.409	11.08
734.434	10.08
734.458	10.08
734.483	-3.92
734.507	8.08
734.532	2.08
734.556	1.08
734.581	-1.92
734.606	13.08
734.63	-7.92
734.655	-1.92
734.679	15.08
734.704	5.08
734.728	8.08
734.753	-3.92
734.777	0.08
734.802	2.08
734.826	2.08
734.851	11.08
734.876	22.08
734.9	3.08
734.925	8.08
734.949	8.08
734.974	8.08
734.998	4.08
735.023	-12.92
735.047	-17.92
735.072	8.08
735.096	3.08
735.121	9.08
735.145	15.08
735.17	3.08
735.194	7.08
735.219	5.08
735.243	-8.92
735.268	-1.92
735.292	-3.92
735.317	0.08
735.341	4.08
735.365	10.08
735.39	10.08
735.414	11.08
735.439	8.08
735.463	5.08
735.488	9.08
735.512	-1.92
735.537	-0.92
735.561	11.08
735.586	5.08
735.61	-6.92
735.634	-8.92
735.659	-0.92
735.683	11.08
735.708	0.08
735.732	-4.92
735.757	-6.92
735.781	13.08
735.805	-6.92
735.83	2.08
735.854	7.08
735.879	-11.92
735.903	2.08
735.927	25.08
735.952	-4.92
735.976	-4.92
736.001	0.08
736.025	-0.92
736.049	10.08
736.074	7.08
736.098	5.08
736.123	13.08
736.147	1.08
736.171	7.08
736.196	3.08
736.22	-9.92
736.244	-8.92
736.269	3.08
736.293	11.08
736.317	10.08
736.342	-0.92
736.366	15.08
736.39	0.08
736.415	16.08
736.439	1.08
736.463	18.08
736.488	4.08
736.512	-0.92
736.536	4.08
736.561	21.08
736.585	0.08
736.609	13.08
736.634	-5.92
736.658	11.08
736.682	-12.92
736.707	-21.92
736.731	-9.92
736.755	2.08
736.78	8.08
736.804	5.08
736.828	13.08
736.852	-9.92
736.877	-1.92
736.901	2.08
736.925	23.08
736.949	9.08
736.974	0.08
736.998	-3.92
737.022	8.08
737.047	3.08
737.071	3.08
737.095	14.08
737.119	31.08
737.144	13.08
737.168	-4.92
737.192	-8.92
737.216	-5.92
737.241	-4.92
737.265	-4.92
737.289	5.08
737.313	7.08
737.337	4.08
737.362	7.08
737.386	0.08
737.41	6.08
737.434	8.08
737.459	6.08
737.483	-1.92
737.507	-0.92
737.531	14.08
737.555	9.08
737.58	5.08
737.604	4.08
737.628	-12.92
737.652	-3.92
737.676	-6.92
737.701	11.08
737.725	5.08
737.749	18.08
737.773	4.08
737.797	-4.92
737.821	12.08
737.846	1.08
737.87	30.08
737.894	23.08
737.918	6.08
737.942	-5.92
737.966	8.08
737.99	15.08
738.015	6.08
738.039	11.08
738.063	1.08
738.087	20.08
738.111	7.08
738.135	19.08
738.159	-4.92
738.184	10.08
738.208	13.08
738.232	-3.92
738.256	3.08
738.28	-2.92
738.304	23.08
738.328	1.08
738.352	16.08
738.376	-5.92
738.4	9.08
738.425	-1.92
738.449	1.08
738.473	15.08
738.497	-6.92
738.521	-1.92
738.545	10.08
738.569	7.08
738.593	24.08
738.617	5.08
738.641	3.08
738.665	8.08
738.689	5.08
738.713	-0.92
738.737	-0.92
738.762	2.08
738.786	2.08
738.81	2.08
738.834	0.08
738.858	1.08
738.882	8.08
738.906	0.08
738.93	11.08
738.954	-1.92
738.978	9.08
739.002	-9.92
739.026	4.08
739.05	8.08
739.074	-8.92
739.098	22.08
739.122	4.08
739.146	7.08
739.17	5.08
739.194	11.08
739.218	3.08
739.242	-1.92
739.266	-6.92
739.29	-3.92
739.314	4.08
739.338	7.08
739.362	8.08
739.386	12.08
739.41	-4.92
739.434	-5.92
739.458	14.08
739.482	16.08
739.506	8.08
739.53	-15.92
739.554	7.08
739.577	-0.92
739.601	13.08
739.625	-10.92
739.649	6.08
739.673	12.08
739.697	0.08
739.721	-6.92
739.745	1.08
739.769	7.08
739.793	2.08
739.817	-5.92
739.841	-2.92
739.865	0.08
739.889	-0.92
739.912	16.08
739.936	19.08
739.96	-5.92
739.984	7.08
740.008	3.08
740.032	-1.92
740.056	2.08
740.08	16.08
740.104	14.08
740.127	12.08
740.151	6.08
740.175	0.08
740.199	18.08
740.223	68.08
740.247	11.08
740.271	-0.92
740.295	-9.92
740.318	-0.92
740.342	-7.92
740.366	10.08
740.39	3.08
740.414	-2.92
740.438	11.08
740.461	16.08
740.485	10.08
740.509	12.08
740.533	8.08
740.557	-12.92
740.581	-5.92
740.604	-9.92
740.628	-1.92
740.652	3.08
740.676	-0.92
740.7	20.08
740.723	7.08
740.747	-7.92
740.771	-6.92
740.795	-9.92
740.819	18.08
740.842	2.08
740.866	17.08
740.89	11.08
740.914	-7.92
740.938	-1.92
740.961	7.08
740.985	-2.92
741.009	-0.92
741.033	7.08
741.056	13.08
741.08	5.08
741.104	-9.92
741.128	-0.92
741.151	12.08
741.175	11.08
741.199	6.08
741.223	11.08
741.246	-5.92
741.27	17.08
741.294	3.08
741.318	-1.92
741.341	10.08
741.365	10.08
741.389	7.08
741.413	18.08
741.436	12.08
741.46	8.08
741.484	17.08
741.507	7.08
741.531	27.08
741.555	24.08
741.579	9.08
741.602	15.08
741.626	11.08
741.65	6.08
741.673	16.08
741.697	19.08
741.721	8.08
741.744	1.08
741.768	1.08
741.792	-1.92
741.815	-7.92
741.839	14.08
741.863	8.08
741.886	20.08
741.91	21.08
741.934	8.08
741.957	-20.92
741.981	6.08
742.005	-4.92
742.028	3.08
742.052	-11.92
742.075	19.08
742.099	21.08
742.123	3.08
742.146	12.08
742.17	0.08
742.194	-10.92
742.217	6.08
742.241	-8.92
742.264	-0.92
742.288	19.08
742.312	-3.92
742.335	-8.92
742.359	1.08
742.382	11.08
742.406	10.08
742.43	-4.92
742.453	-3.92
742.477	-4.92
742.5	-5.92
742.524	-6.92
742.548	-8.92
742.571	-4.92
742.595	-8.92
742.618	-14.92
742.642	3.08
742.665	14.08
742.689	-15.92
742.712	-2.92
742.736	-6.92
742.76	-4.92
742.783	8.08
742.807	10.08
742.83	27.08
742.854	4.08
742.877	0.08
742.901	7.08
742.924	-7.92
742.948	-7.92
742.971	6.08
742.995	-3.92
743.018	4.08
743.042	2.08
743.065	13.08
743.089	-15.92
743.112	17.08
743.136	10.08
743.159	-7.92
743.183	-3.92
743.206	15.08
743.23	-7.92
743.253	-8.92
743.277	3.08
743.3	-7.92
743.324	6.08
743.347	-14.92
743.371	-0.92
743.394	10.08
743.418	16.08
743.441	-1.92
743.465	-1.92
743.488	14.08
743.512	-11.92
743.535	1.08
743.558	3.08
743.582	8.08
743.605	-4.92
743.629	19.08
743.652	21.08
743.676	4.08
743.699	25.08
743.723	19.08
743.746	25.08
743.769	-1.92
743.793	3.08
743.816	-14.92
743.84	34.08
743.863	14.08
743.886	3.08
743.91	28.08
743.933	12.08
743.957	-1.92
743.98	1.08
744.003	2.08
744.027	7.08
744.05	0.08
744.074	0.08
744.097	-2.92
744.12	2.08
744.144	-0.92
744.167	15.08
744.19	-0.92
744.214	0.08
744.237	-4.92
744.26	-9.92
744.284	-3.92
744.307	1.08
744.331	8.08
744.354	-2.92
744.377	7.08
744.401	8.08
744.424	-6.92
744.447	-5.92
744.471	-18.92
