Data from HighRes_mercury_15_13_11_07_2024_HR4C61891__84__15-14-31-585.txt Node

Date: Thu Nov 07 15:14:31 EST 2024
User: crc00042
Spectrometer: HR4C6189
Trigger mode: 4
Integration Time (sec): 1.000000E-1
Scans to average: 1
Electric dark correction enabled: true
Nonlinearity correction enabled: false
Boxcar width: 0
XAxis mode: Wavelengths
Number of Pixels in Spectrum: 3648
>>>>>Begin Spectral Data<<<<<
639.567	-34.31
639.602	-34.31
639.636	-34.31
639.67	-44.31
639.704	-22.31
639.738	-14.31
639.773	18.69
639.807	-14.31
639.841	-8.31
639.875	-2.31
639.909	-1.31
639.943	3.69
639.978	-1.31
640.012	-4.31
640.046	16.69
640.08	-7.31
640.114	7.69
640.148	6.69
640.182	4.69
640.217	5.69
640.251	16.69
640.285	1.69
640.319	-13.31
640.353	-0.31
640.387	2.69
640.421	4.69
640.455	-1.31
640.49	2.69
640.524	-8.31
640.558	12.69
640.592	-1.31
640.626	7.69
640.66	9.69
640.694	12.69
640.728	8.69
640.762	8.69
640.796	18.69
640.83	11.69
640.865	-0.31
640.899	12.69
640.933	-4.31
640.967	-1.31
641.001	0.69
641.035	5.69
641.069	8.69
641.103	-14.31
641.137	-14.31
641.171	-4.31
641.205	9.69
641.239	-3.31
641.273	-4.31
641.307	29.69
641.341	3.69
641.375	4.69
641.409	4.69
641.443	19.69
641.477	16.69
641.511	5.69
641.545	-0.31
641.579	1.69
641.614	6.69
641.648	10.69
641.682	1.69
641.716	18.69
641.75	13.69
641.784	-6.31
641.818	-5.31
641.852	2.69
641.886	2.69
641.919	19.69
641.953	-9.31
641.987	-33.31
642.021	18.69
642.055	-3.31
642.089	3.69
642.123	4.69
642.157	-13.31
642.191	-18.31
642.225	9.69
642.259	-2.31
642.293	20.69
642.327	1.69
642.361	-5.31
642.395	7.69
642.429	5.69
642.463	10.69
642.497	13.69
642.531	-12.31
642.565	0.69
642.599	16.69
642.633	-9.31
642.666	8.69
642.7	14.69
642.734	2.69
642.768	-12.31
642.802	1.69
642.836	-1.31
642.87	-2.31
642.904	4.69
642.938	11.69
642.972	11.69
643.005	-4.31
643.039	1.69
643.073	-12.31
643.107	-3.31
643.141	6.69
643.175	6.69
643.209	0.69
643.243	10.69
643.276	6.69
643.31	-6.31
643.344	-2.31
643.378	4.69
643.412	8.69
643.446	-3.31
643.48	-6.31
643.513	19.69
643.547	-1.31
643.581	-12.31
643.615	1.69
643.649	4.69
643.683	3.69
643.716	-8.31
643.75	3.69
643.784	-6.31
643.818	-0.31
643.852	-11.31
643.886	10.69
643.919	4.69
643.953	3.69
643.987	16.69
644.021	5.69
644.055	5.69
644.088	-14.31
644.122	10.69
644.156	-7.31
644.19	-4.31
644.224	-7.31
644.257	9.69
644.291	23.69
644.325	10.69
644.359	-0.31
644.392	17.69
644.426	18.69
644.46	0.69
644.494	4.69
644.527	-3.31
644.561	-13.31
644.595	-16.31
644.629	-14.31
644.662	-1.31
644.696	11.69
644.73	2.69
644.764	7.69
644.797	6.69
644.831	-1.31
644.865	5.69
644.899	0.69
644.932	32.69
644.966	4.69
645	18.69
645.033	1.69
645.067	-4.31
645.101	5.69
645.135	7.69
645.168	-11.31
645.202	4.69
645.236	12.69
645.269	9.69
645.303	-2.31
645.337	-16.31
645.37	-8.31
645.404	-8.31
645.438	-12.31
645.471	-6.31
645.505	-1.31
645.539	-4.31
645.572	-8.31
645.606	-19.31
645.64	3.69
645.673	-2.31
645.707	28.69
645.741	12.69
645.774	-14.31
645.808	1.69
645.842	-12.31
645.875	20.69
645.909	-5.31
645.943	1.69
645.976	3.69
646.01	6.69
646.043	2.69
646.077	21.69
646.111	4.69
646.144	9.69
646.178	24.69
646.212	4.69
646.245	-10.31
646.279	-4.31
646.312	22.69
646.346	22.69
646.38	7.69
646.413	9.69
646.447	4.69
646.48	9.69
646.514	11.69
646.547	-14.31
646.581	4.69
646.615	-1.31
646.648	-9.31
646.682	10.69
646.715	-6.31
646.749	17.69
646.782	3.69
646.816	-8.31
646.85	9.69
646.883	-1.31
646.917	-0.31
646.95	6.69
646.984	20.69
647.017	-8.31
647.051	3.69
647.084	16.69
647.118	-15.31
647.151	-11.31
647.185	6.69
647.218	-11.31
647.252	-6.31
647.285	-6.31
647.319	-8.31
647.353	5.69
647.386	13.69
647.42	15.69
647.453	12.69
647.487	11.69
647.52	1.69
647.553	3.69
647.587	-5.31
647.62	-13.31
647.654	3.69
647.687	14.69
647.721	25.69
647.754	10.69
647.788	7.69
647.821	1.69
647.855	0.69
647.888	4.69
647.922	23.69
647.955	21.69
647.989	7.69
648.022	5.69
648.055	4.69
648.089	3.69
648.122	18.69
648.156	2.69
648.189	2.69
648.223	13.69
648.256	18.69
648.29	1.69
648.323	-1.31
648.356	21.69
648.39	10.69
648.423	-3.31
648.457	2.69
648.49	0.69
648.523	0.69
648.557	0.69
648.59	1.69
648.624	15.69
648.657	3.69
648.69	3.69
648.724	11.69
648.757	2.69
648.791	24.69
648.824	9.69
648.857	32.69
648.891	11.69
648.924	6.69
648.957	22.69
648.991	-1.31
649.024	7.69
649.057	1.69
649.091	-11.31
649.124	7.69
649.158	23.69
649.191	19.69
649.224	-4.31
649.258	1.69
649.291	4.69
649.324	8.69
649.358	23.69
649.391	19.69
649.424	-2.31
649.458	6.69
649.491	5.69
649.524	-22.31
649.557	-5.31
649.591	-9.31
649.624	9.69
649.657	-9.31
649.691	-8.31
649.724	-7.31
649.757	-1.31
649.791	-6.31
649.824	26.69
649.857	18.69
649.89	-1.31
649.924	2.69
649.957	-3.31
649.99	0.69
650.023	6.69
650.057	1.69
650.09	3.69
650.123	-6.31
650.157	9.69
650.19	18.69
650.223	3.69
650.256	-3.31
650.29	2.69
650.323	17.69
650.356	15.69
650.389	-0.31
650.423	-7.31
650.456	2.69
650.489	10.69
650.522	8.69
650.555	22.69
650.589	10.69
650.622	-5.31
650.655	13.69
650.688	5.69
650.721	2.69
650.755	4.69
650.788	9.69
650.821	9.69
650.854	8.69
650.887	12.69
650.921	4.69
650.954	-16.31
650.987	1.69
651.02	-10.31
651.053	-15.31
651.087	-25.31
651.12	10.69
651.153	4.69
651.186	10.69
651.219	-16.31
651.252	7.69
651.286	9.69
651.319	-5.31
651.352	-12.31
651.385	12.69
651.418	10.69
651.451	9.69
651.484	-13.31
651.518	-7.31
651.551	37.69
651.584	4.69
651.617	5.69
651.65	-10.31
651.683	15.69
651.716	4.69
651.749	-26.31
651.783	6.69
651.816	7.69
651.849	9.69
651.882	-5.31
651.915	-0.31
651.948	3.69
651.981	12.69
652.014	1.69
652.047	-7.31
652.08	-14.31
652.114	5.69
652.147	10.69
652.18	15.69
652.213	20.69
652.246	8.69
652.279	-5.31
652.312	-1.31
652.345	0.69
652.378	10.69
652.411	21.69
652.444	6.69
652.477	9.69
652.51	4.69
652.543	-0.31
652.576	4.69
652.609	3.69
652.642	5.69
652.675	14.69
652.709	7.69
652.742	8.69
652.775	11.69
652.808	13.69
652.841	-3.31
652.874	0.69
652.907	6.69
652.94	-1.31
652.973	-5.31
653.006	-10.31
653.039	-7.31
653.072	-1.31
653.105	-12.31
653.138	-15.31
653.171	-8.31
653.204	12.69
653.237	-2.31
653.27	-8.31
653.303	6.69
653.336	9.69
653.368	8.69
653.401	10.69
653.434	0.69
653.467	10.69
653.5	-2.31
653.533	-3.31
653.566	0.69
653.599	-10.31
653.632	-11.31
653.665	10.69
653.698	-7.31
653.731	-10.31
653.764	6.69
653.797	10.69
653.83	13.69
653.863	4.69
653.896	-0.31
653.929	6.69
653.961	8.69
653.994	-1.31
654.027	-14.31
654.06	-2.31
654.093	5.69
654.126	6.69
654.159	-10.31
654.192	-0.31
654.225	8.69
654.258	-7.31
654.29	-2.31
654.323	10.69
654.356	5.69
654.389	3.69
654.422	12.69
654.455	-10.31
654.488	-5.31
654.521	-14.31
654.553	-2.31
654.586	5.69
654.619	5.69
654.652	-12.31
654.685	10.69
654.718	19.69
654.751	7.69
654.783	1.69
654.816	19.69
654.849	4.69
654.882	-0.31
654.915	-19.31
654.948	-5.31
654.98	-3.31
655.013	-9.31
655.046	-0.31
655.079	-2.31
655.112	1.69
655.144	0.69
655.177	20.69
655.21	17.69
655.243	12.69
655.276	1.69
655.308	-12.31
655.341	-6.31
655.374	9.69
655.407	-5.31
655.44	-3.31
655.472	10.69
655.505	3.69
655.538	0.69
655.571	14.69
655.603	-3.31
655.636	0.69
655.669	-14.31
655.702	-4.31
655.734	-10.31
655.767	-0.31
655.8	5.69
655.833	-10.31
655.865	8.69
655.898	10.69
655.931	-8.31
655.964	-4.31
655.996	2.69
656.029	4.69
656.062	8.69
656.095	8.69
656.127	-5.31
656.16	-9.31
656.193	-6.31
656.225	-2.31
656.258	1.69
656.291	2.69
656.324	2.69
656.356	-3.31
656.389	10.69
656.422	0.69
656.454	-6.31
656.487	1.69
656.52	9.69
656.552	0.69
656.585	-0.31
656.618	25.69
656.65	6.69
656.683	2.69
656.716	3.69
656.748	-8.31
656.781	-11.31
656.814	-3.31
656.846	17.69
656.879	-1.31
656.912	-1.31
656.944	-13.31
656.977	-9.31
657.01	4.69
657.042	12.69
657.075	10.69
657.108	2.69
657.14	0.69
657.173	24.69
657.205	25.69
657.238	15.69
657.271	1.69
657.303	-23.31
657.336	-11.31
657.369	6.69
657.401	12.69
657.434	4.69
657.466	-7.31
657.499	8.69
657.532	4.69
657.564	4.69
657.597	-5.31
657.629	7.69
657.662	-8.31
657.694	-1.31
657.727	-1.31
657.76	22.69
657.792	12.69
657.825	-15.31
657.857	-6.31
657.89	-5.31
657.922	28.69
657.955	3.69
657.987	-0.31
658.02	14.69
658.053	3.69
658.085	1.69
658.118	7.69
658.15	14.69
658.183	9.69
658.215	-6.31
658.248	-7.31
658.28	1.69
658.313	19.69
658.345	9.69
658.378	3.69
658.41	-5.31
658.443	-8.31
658.475	4.69
658.508	-4.31
658.54	3.69
658.573	-0.31
658.605	-6.31
658.638	12.69
658.67	4.69
658.703	15.69
658.735	-16.31
658.768	-0.31
658.8	-7.31
658.833	24.69
658.865	0.69
658.898	5.69
658.93	6.69
658.963	5.69
658.995	-8.31
659.028	11.69
659.06	5.69
659.092	9.69
659.125	10.69
659.157	21.69
659.19	-2.31
659.222	3.69
659.255	-1.31
659.287	-4.31
659.32	4.69
659.352	-3.31
659.384	7.69
659.417	0.69
659.449	-7.31
659.482	17.69
659.514	1.69
659.546	3.69
659.579	-6.31
659.611	-4.31
659.644	0.69
659.676	-9.31
659.708	-7.31
659.741	-16.31
659.773	12.69
659.806	-0.31
659.838	12.69
659.87	0.69
659.903	-4.31
659.935	12.69
659.967	14.69
660	-2.31
660.032	-16.31
660.065	14.69
660.097	-0.31
660.129	8.69
660.162	-3.31
660.194	-11.31
660.226	9.69
660.259	10.69
660.291	-1.31
660.323	-0.31
660.356	-0.31
660.388	-0.31
660.42	-7.31
660.453	8.69
660.485	8.69
660.517	7.69
660.55	24.69
660.582	-0.31
660.614	-2.31
660.647	0.69
660.679	-2.31
660.711	8.69
660.743	-9.31
660.776	-0.31
660.808	-13.31
660.84	-5.31
660.873	-0.31
660.905	-0.31
660.937	1.69
660.969	-7.31
661.002	-28.31
661.034	18.69
661.066	-13.31
661.099	3.69
661.131	14.69
661.163	-6.31
661.195	-7.31
661.228	12.69
661.26	-5.31
661.292	4.69
661.324	11.69
661.357	0.69
661.389	-0.31
661.421	11.69
661.453	5.69
661.485	3.69
661.518	12.69
661.55	-16.31
661.582	-10.31
661.614	-9.31
661.647	2.69
661.679	5.69
661.711	2.69
661.743	-2.31
661.775	3.69
661.808	24.69
661.84	-20.31
661.872	2.69
661.904	-0.31
661.936	4.69
661.969	-3.31
662.001	1.69
662.033	0.69
662.065	-6.31
662.097	8.69
662.129	7.69
662.162	-17.31
662.194	-3.31
662.226	13.69
662.258	2.69
662.29	-0.31
662.322	-5.31
662.355	-7.31
662.387	26.69
662.419	4.69
662.451	17.69
662.483	12.69
662.515	-2.31
662.547	1.69
662.58	-12.31
662.612	7.69
662.644	-10.31
662.676	-4.31
662.708	10.69
662.74	-0.31
662.772	-11.31
662.804	4.69
662.836	1.69
662.869	3.69
662.901	11.69
662.933	0.69
662.965	25.69
662.997	12.69
663.029	-15.31
663.061	-8.31
663.093	-4.31
663.125	1.69
663.157	9.69
663.189	2.69
663.221	6.69
663.254	6.69
663.286	13.69
663.318	9.69
663.35	-5.31
663.382	-10.31
663.414	2.69
663.446	-0.31
663.478	-9.31
663.51	19.69
663.542	0.69
663.574	1.69
663.606	17.69
663.638	1.69
663.67	3.69
663.702	3.69
663.734	1.69
663.766	-5.31
663.798	-8.31
663.83	9.69
663.862	8.69
663.894	14.69
663.926	-10.31
663.958	-4.31
663.99	-8.31
664.022	-3.31
664.054	5.69
664.086	-3.31
664.118	-6.31
664.15	-2.31
664.182	-14.31
664.214	-1.31
664.246	12.69
664.278	18.69
664.31	19.69
664.342	3.69
664.374	-15.31
664.406	0.69
664.438	-5.31
664.47	1.69
664.502	-3.31
664.534	-5.31
664.566	-25.31
664.598	4.69
664.63	-1.31
664.662	0.69
664.693	5.69
664.725	1.69
664.757	0.69
664.789	-17.31
664.821	1.69
664.853	15.69
664.885	-7.31
664.917	-1.31
664.949	12.69
664.981	6.69
665.013	3.69
665.045	-1.31
665.076	5.69
665.108	6.69
665.14	7.69
665.172	6.69
665.204	-1.31
665.236	-2.31
665.268	21.69
665.3	-14.31
665.331	-9.31
665.363	-4.31
665.395	-5.31
665.427	-9.31
665.459	0.69
665.491	21.69
665.523	-6.31
665.555	1.69
665.586	2.69
665.618	-6.31
665.65	-17.31
665.682	9.69
665.714	9.69
665.746	9.69
665.777	13.69
665.809	5.69
665.841	1.69
665.873	-12.31
665.905	7.69
665.937	9.69
665.968	-1.31
666	1.69
666.032	22.69
666.064	-1.31
666.096	-1.31
666.127	4.69
666.159	5.69
666.191	15.69
666.223	12.69
666.255	16.69
666.286	9.69
666.318	-2.31
666.35	3.69
666.382	-7.31
666.413	-5.31
666.445	-4.31
666.477	3.69
666.509	-2.31
666.54	3.69
666.572	0.69
666.604	-6.31
666.636	0.69
666.667	17.69
666.699	8.69
666.731	22.69
666.763	3.69
666.794	-1.31
666.826	19.69
666.858	6.69
666.89	12.69
666.921	-4.31
666.953	-8.31
666.985	18.69
667.017	34.69
667.048	11.69
667.08	-8.31
667.112	-8.31
667.143	-11.31
667.175	-1.31
667.207	-12.31
667.238	0.69
667.27	-9.31
667.302	9.69
667.334	-9.31
667.365	9.69
667.397	6.69
667.429	3.69
667.46	12.69
667.492	17.69
667.524	-8.31
667.555	-10.31
667.587	9.69
667.619	1.69
667.65	4.69
667.682	-12.31
667.714	1.69
667.745	-11.31
667.777	9.69
667.808	17.69
667.84	15.69
667.872	-10.31
667.903	17.69
667.935	10.69
667.967	10.69
667.998	8.69
668.03	-11.31
668.061	7.69
668.093	9.69
668.125	-0.31
668.156	6.69
668.188	-7.31
668.22	-1.31
668.251	2.69
668.283	9.69
668.314	17.69
668.346	-5.31
668.377	0.69
668.409	10.69
668.441	18.69
668.472	1.69
668.504	8.69
668.535	7.69
668.567	5.69
668.599	-0.31
668.63	5.69
668.662	-7.31
668.693	-2.31
668.725	19.69
668.756	19.69
668.788	1.69
668.819	6.69
668.851	2.69
668.882	2.69
668.914	-7.31
668.946	1.69
668.977	-10.31
669.009	-21.31
669.04	-3.31
669.072	6.69
669.103	3.69
669.135	6.69
669.166	2.69
669.198	-3.31
669.229	7.69
669.261	-10.31
669.292	-0.31
669.324	1.69
669.355	13.69
669.387	4.69
669.418	19.69
669.45	-1.31
669.481	14.69
669.513	10.69
669.544	10.69
669.576	10.69
669.607	10.69
669.639	4.69
669.67	2.69
669.701	7.69
669.733	-5.31
669.764	-9.31
669.796	-10.31
669.827	-12.31
669.859	-12.31
669.89	8.69
669.922	15.69
669.953	11.69
669.985	12.69
670.016	6.69
670.047	9.69
670.079	4.69
670.11	3.69
670.142	-3.31
670.173	2.69
670.204	-15.31
670.236	2.69
670.267	-3.31
670.299	8.69
670.33	3.69
670.362	8.69
670.393	-6.31
670.424	-8.31
670.456	-0.31
670.487	-4.31
670.518	-0.31
670.55	10.69
670.581	5.69
670.613	3.69
670.644	0.69
670.675	-1.31
670.707	8.69
670.738	14.69
670.769	7.69
670.801	-8.31
670.832	12.69
670.864	4.69
670.895	0.69
670.926	-7.31
670.958	-4.31
670.989	2.69
671.02	-11.31
671.052	0.69
671.083	1.69
671.114	-7.31
671.146	10.69
671.177	1.69
671.208	-15.31
671.24	-17.31
671.271	-5.31
671.302	6.69
671.333	-1.31
671.365	-0.31
671.396	-11.31
671.427	7.69
671.459	12.69
671.49	11.69
671.521	-5.31
671.553	3.69
671.584	10.69
671.615	7.69
671.646	23.69
671.678	12.69
671.709	-0.31
671.74	-29.31
671.771	-6.31
671.803	-0.31
671.834	-0.31
671.865	1.69
671.896	3.69
671.928	-4.31
671.959	-17.31
671.99	6.69
672.021	-6.31
672.053	1.69
672.084	18.69
672.115	9.69
672.146	-3.31
672.178	-10.31
672.209	8.69
672.24	-3.31
672.271	27.69
672.303	9.69
672.334	2.69
672.365	-6.31
672.396	6.69
672.427	-1.31
672.459	24.69
672.49	37.69
672.521	11.69
672.552	3.69
672.583	0.69
672.615	9.69
672.646	6.69
672.677	-1.31
672.708	1.69
672.739	13.69
672.77	11.69
672.802	-0.31
672.833	-4.31
672.864	-12.31
672.895	-9.31
672.926	10.69
672.957	-8.31
672.989	3.69
673.02	17.69
673.051	8.69
673.082	17.69
673.113	-3.31
673.144	10.69
673.175	7.69
673.206	-5.31
673.238	-1.31
673.269	1.69
673.3	-29.31
673.331	1.69
673.362	17.69
673.393	-8.31
673.424	14.69
673.455	25.69
673.487	9.69
673.518	21.69
673.549	6.69
673.58	15.69
673.611	13.69
673.642	-9.31
673.673	-7.31
673.704	1.69
673.735	3.69
673.766	2.69
673.797	-0.31
673.828	2.69
673.86	-15.31
673.891	-4.31
673.922	-1.31
673.953	-5.31
673.984	0.69
674.015	7.69
674.046	-5.31
674.077	-12.31
674.108	-14.31
674.139	-0.31
674.17	-0.31
674.201	-0.31
674.232	22.69
674.263	1.69
674.294	4.69
674.325	-23.31
674.356	20.69
674.387	11.69
674.418	16.69
674.449	7.69
674.48	-17.31
674.511	-25.31
674.542	-0.31
674.573	-11.31
674.604	1.69
674.635	0.69
674.666	11.69
674.697	-4.31
674.728	12.69
674.759	-7.31
674.79	-21.31
674.821	-9.31
674.852	-17.31
674.883	-14.31
674.914	0.69
674.945	13.69
674.976	3.69
675.007	-21.31
675.038	-5.31
675.069	-10.31
675.1	-3.31
675.131	1.69
675.162	-16.31
675.193	-22.31
675.224	-3.31
675.254	2.69
675.285	2.69
675.316	15.69
675.347	1.69
675.378	-3.31
675.409	-13.31
675.44	11.69
675.471	10.69
675.502	-7.31
675.533	4.69
675.564	5.69
675.595	3.69
675.625	15.69
675.656	1.69
675.687	2.69
675.718	-7.31
675.749	16.69
675.78	1.69
675.811	1.69
675.842	-2.31
675.873	-8.31
675.903	-7.31
675.934	-10.31
675.965	0.69
675.996	-1.31
676.027	0.69
676.058	-4.31
676.089	-1.31
676.119	1.69
676.15	-11.31
676.181	2.69
676.212	0.69
676.243	16.69
676.274	-1.31
676.304	9.69
676.335	-1.31
676.366	2.69
676.397	4.69
676.428	14.69
676.459	14.69
676.489	1.69
676.52	-9.31
676.551	-11.31
676.582	-4.31
676.613	-0.31
676.643	-7.31
676.674	0.69
676.705	-5.31
676.736	-4.31
676.767	12.69
676.797	6.69
676.828	3.69
676.859	-8.31
676.89	-2.31
676.92	8.69
676.951	7.69
676.982	7.69
677.013	2.69
677.044	15.69
677.074	16.69
677.105	-12.31
677.136	16.69
677.167	9.69
677.197	12.69
677.228	-7.31
677.259	4.69
677.289	-0.31
677.32	-13.31
677.351	-11.31
677.382	3.69
677.412	1.69
677.443	2.69
677.474	-4.31
677.505	-8.31
677.535	4.69
677.566	1.69
677.597	-5.31
677.627	-5.31
677.658	-0.31
677.689	3.69
677.72	-0.31
677.75	-8.31
677.781	0.69
677.812	1.69
677.842	0.69
677.873	4.69
677.904	0.69
677.934	15.69
677.965	-4.31
677.996	-14.31
678.026	2.69
678.057	4.69
678.088	-0.31
678.118	0.69
678.149	-15.31
678.18	-4.31
678.21	7.69
678.241	-2.31
678.272	-7.31
678.302	2.69
678.333	-15.31
678.363	9.69
678.394	-4.31
678.425	-2.31
678.455	7.69
678.486	11.69
678.517	-6.31
678.547	-2.31
678.578	-0.31
678.608	-8.31
678.639	5.69
678.67	11.69
678.7	-14.31
678.731	-3.31
678.761	10.69
678.792	-2.31
678.823	6.69
678.853	6.69
678.884	-3.31
678.914	0.69
678.945	-7.31
678.975	-2.31
679.006	0.69
679.037	-11.31
679.067	20.69
679.098	16.69
679.128	4.69
679.159	-2.31
679.189	16.69
679.22	-21.31
679.25	-1.31
679.281	-4.31
679.312	1.69
679.342	12.69
679.373	29.69
679.403	-1.31
679.434	-6.31
679.464	-9.31
679.495	-3.31
679.525	5.69
679.556	-8.31
679.586	15.69
679.617	17.69
679.647	9.69
679.678	8.69
679.708	7.69
679.739	10.69
679.769	-1.31
679.8	-9.31
679.83	-1.31
679.861	24.69
679.891	4.69
679.922	-22.31
679.952	-9.31
679.983	14.69
680.013	2.69
680.044	4.69
680.074	19.69
680.105	-0.31
680.135	-6.31
680.165	-0.31
680.196	-3.31
680.226	1.69
680.257	2.69
680.287	-3.31
680.318	1.69
680.348	-14.31
680.379	14.69
680.409	8.69
680.439	-5.31
680.47	-9.31
680.5	-5.31
680.531	14.69
680.561	12.69
680.592	-4.31
680.622	19.69
680.652	9.69
680.683	4.69
680.713	4.69
680.744	2.69
680.774	-12.31
680.804	15.69
680.835	-7.31
680.865	-9.31
680.896	7.69
680.926	20.69
680.956	19.69
680.987	-1.31
681.017	-1.31
681.047	5.69
681.078	-18.31
681.108	1.69
681.139	8.69
681.169	-0.31
681.199	-6.31
681.23	3.69
681.26	3.69
681.29	11.69
681.321	-4.31
681.351	7.69
681.381	8.69
681.412	4.69
681.442	13.69
681.472	21.69
681.503	15.69
681.533	4.69
681.563	2.69
681.594	5.69
681.624	1.69
681.654	-1.31
681.685	9.69
681.715	5.69
681.745	-13.31
681.775	-3.31
681.806	0.69
681.836	9.69
681.866	6.69
681.897	16.69
681.927	-9.31
681.957	-11.31
681.987	7.69
682.018	-0.31
682.048	10.69
682.078	-1.31
682.109	7.69
682.139	-0.31
682.169	-6.31
682.199	8.69
682.23	-0.31
682.26	6.69
682.29	3.69
682.32	-5.31
682.351	-13.31
682.381	19.69
682.411	4.69
682.441	2.69
682.472	-1.31
682.502	-1.31
682.532	-0.31
682.562	5.69
682.592	-2.31
682.623	7.69
682.653	-9.31
682.683	-17.31
682.713	9.69
682.743	5.69
682.774	-4.31
682.804	4.69
682.834	25.69
682.864	8.69
682.894	12.69
682.925	-13.31
682.955	0.69
682.985	-5.31
683.015	6.69
683.045	18.69
683.076	-10.31
683.106	-3.31
683.136	-9.31
683.166	4.69
683.196	3.69
683.226	-7.31
683.257	2.69
683.287	-7.31
683.317	-6.31
683.347	-8.31
683.377	-12.31
683.407	0.69
683.437	8.69
683.468	-3.31
683.498	-8.31
683.528	9.69
683.558	6.69
683.588	-19.31
683.618	-11.31
683.648	-7.31
683.678	9.69
683.708	19.69
683.739	-7.31
683.769	10.69
683.799	-11.31
683.829	-3.31
683.859	-1.31
683.889	8.69
683.919	3.69
683.949	11.69
683.979	-8.31
684.009	1.69
684.039	15.69
684.07	-3.31
684.1	7.69
684.13	-7.31
684.16	-2.31
684.19	-8.31
684.22	3.69
684.25	2.69
684.28	-14.31
684.31	7.69
684.34	12.69
684.37	18.69
684.4	-4.31
684.43	-5.31
684.46	-1.31
684.49	-6.31
684.52	2.69
684.55	0.69
684.58	-4.31
684.61	12.69
684.64	18.69
684.67	13.69
684.7	-5.31
684.73	-0.31
684.76	4.69
684.79	12.69
684.82	4.69
684.85	-5.31
684.88	0.69
684.91	11.69
684.94	-0.31
684.97	-5.31
685	-17.31
685.03	7.69
685.06	0.69
685.09	-5.31
685.12	18.69
685.15	-10.31
685.18	9.69
685.21	-7.31
685.24	1.69
685.27	12.69
685.3	-2.31
685.33	-5.31
685.36	0.69
685.39	7.69
685.42	-8.31
685.45	-0.31
685.48	9.69
685.51	0.69
685.54	10.69
685.569	10.69
685.599	-0.31
685.629	7.69
685.659	8.69
685.689	-4.31
685.719	-4.31
685.749	-4.31
685.779	6.69
685.809	14.69
685.839	0.69
685.869	4.69
685.898	3.69
685.928	-2.31
685.958	1.69
685.988	16.69
686.018	9.69
686.048	-3.31
686.078	-8.31
686.108	17.69
686.137	9.69
686.167	6.69
686.197	-13.31
686.227	7.69
686.257	27.69
686.287	10.69
686.317	15.69
686.346	-9.31
686.376	-14.31
686.406	-10.31
686.436	17.69
686.466	3.69
686.496	0.69
686.525	2.69
686.555	0.69
686.585	20.69
686.615	15.69
686.645	17.69
686.675	-9.31
686.704	0.69
686.734	1.69
686.764	13.69
686.794	9.69
686.824	5.69
686.853	10.69
686.883	20.69
686.913	8.69
686.943	6.69
686.973	-8.31
687.002	8.69
687.032	12.69
687.062	-0.31
687.092	9.69
687.121	-25.31
687.151	-5.31
687.181	-12.31
687.211	11.69
687.24	5.69
687.27	13.69
687.3	2.69
687.33	-0.31
687.359	3.69
687.389	16.69
687.419	8.69
687.449	9.69
687.478	10.69
687.508	15.69
687.538	14.69
687.568	25.69
687.597	16.69
687.627	2.69
687.657	9.69
687.686	-6.31
687.716	13.69
687.746	-12.31
687.776	-1.31
687.805	13.69
687.835	-8.31
687.865	24.69
687.894	20.69
687.924	12.69
687.954	-13.31
687.983	2.69
688.013	-2.31
688.043	6.69
688.072	4.69
688.102	13.69
688.132	-10.31
688.161	1.69
688.191	2.69
688.221	29.69
688.25	10.69
688.28	13.69
688.31	-12.31
688.339	3.69
688.369	-27.31
688.399	-10.31
688.428	-3.31
688.458	-13.31
688.488	-20.31
688.517	1.69
688.547	-0.31
688.576	28.69
688.606	12.69
688.636	-4.31
688.665	2.69
688.695	11.69
688.725	11.69
688.754	5.69
688.784	-0.31
688.813	0.69
688.843	3.69
688.873	-2.31
688.902	2.69
688.932	6.69
688.961	8.69
688.991	16.69
689.02	9.69
689.05	-11.31
689.08	-2.31
689.109	6.69
689.139	-4.31
689.168	-9.31
689.198	2.69
689.227	0.69
689.257	-0.31
689.287	10.69
689.316	-3.31
689.346	-5.31
689.375	-1.31
689.405	3.69
689.434	-1.31
689.464	0.69
689.493	0.69
689.523	1.69
689.552	-8.31
689.582	4.69
689.611	-1.31
689.641	-2.31
689.67	0.69
689.7	0.69
689.73	25.69
689.759	10.69
689.789	21.69
689.818	19.69
689.848	-1.31
689.877	12.69
689.906	19.69
689.936	-1.31
689.965	4.69
689.995	17.69
690.024	6.69
690.054	3.69
690.083	7.69
690.113	13.69
690.142	6.69
690.172	12.69
690.201	3.69
690.231	12.69
690.26	0.69
690.29	4.69
690.319	5.69
690.348	6.69
690.378	9.69
690.407	2.69
690.437	-2.31
690.466	3.69
690.496	-0.31
690.525	2.69
690.555	-5.31
690.584	-10.31
690.613	-1.31
690.643	2.69
690.672	1.69
690.702	15.69
690.731	10.69
690.76	30.69
690.79	66.69
690.819	52.69
690.849	35.69
690.878	32.69
690.907	26.69
690.937	18.69
690.966	14.69
690.996	13.69
691.025	11.69
691.054	-3.31
691.084	4.69
691.113	6.69
691.142	2.69
691.172	-10.31
691.201	12.69
691.23	11.69
691.26	8.69
691.289	6.69
691.319	-10.31
691.348	-4.31
691.377	22.69
691.407	7.69
691.436	3.69
691.465	-0.31
691.495	-8.31
691.524	-6.31
691.553	0.69
691.583	-3.31
691.612	9.69
691.641	9.69
691.67	0.69
691.7	2.69
691.729	-4.31
691.758	7.69
691.788	0.69
691.817	-2.31
691.846	4.69
691.876	9.69
691.905	-0.31
691.934	-12.31
691.963	17.69
691.993	3.69
692.022	3.69
692.051	-16.31
692.081	9.69
692.11	13.69
692.139	-6.31
692.168	9.69
692.198	15.69
692.227	-0.31
692.256	9.69
692.285	-4.31
692.315	1.69
692.344	2.69
692.373	10.69
692.402	-29.31
692.432	-12.31
692.461	-14.31
692.49	9.69
692.519	5.69
692.548	2.69
692.578	18.69
692.607	-10.31
692.636	-20.31
692.665	10.69
692.694	2.69
692.724	3.69
692.753	4.69
692.782	7.69
692.811	4.69
692.84	-1.31
692.87	9.69
692.899	9.69
692.928	-6.31
692.957	27.69
692.986	23.69
693.016	8.69
693.045	19.69
693.074	7.69
693.103	5.69
693.132	11.69
693.161	9.69
693.191	12.69
693.22	-8.31
693.249	16.69
693.278	5.69
693.307	13.69
693.336	-6.31
693.365	-7.31
693.395	3.69
693.424	5.69
693.453	21.69
693.482	-4.31
693.511	3.69
693.54	-5.31
693.569	5.69
693.598	0.69
693.628	12.69
693.657	13.69
693.686	27.69
693.715	20.69
693.744	10.69
693.773	4.69
693.802	5.69
693.831	-2.31
693.86	33.69
693.889	-4.31
693.919	6.69
693.948	3.69
693.977	11.69
694.006	-15.31
694.035	-14.31
694.064	-8.31
694.093	-9.31
694.122	11.69
694.151	-1.31
694.18	6.69
694.209	11.69
694.238	-7.31
694.267	32.69
694.296	18.69
694.325	5.69
694.354	15.69
694.383	1.69
694.412	5.69
694.441	-13.31
694.471	-2.31
694.5	-1.31
694.529	2.69
694.558	22.69
694.587	8.69
694.616	5.69
694.645	11.69
694.674	17.69
694.703	20.69
694.732	7.69
694.761	6.69
694.79	25.69
694.819	-13.31
694.848	6.69
694.877	16.69
694.906	21.69
694.935	6.69
694.963	25.69
694.992	5.69
695.021	9.69
695.05	3.69
695.079	5.69
695.108	-4.31
695.137	11.69
695.166	6.69
695.195	12.69
695.224	0.69
695.253	4.69
695.282	7.69
695.311	11.69
695.34	22.69
695.369	6.69
695.398	11.69
695.427	37.69
695.456	11.69
695.485	14.69
695.513	18.69
695.542	0.69
695.571	9.69
695.6	28.69
695.629	17.69
695.658	8.69
695.687	7.69
695.716	2.69
695.745	28.69
695.774	6.69
695.802	2.69
695.831	19.69
695.86	-4.31
695.889	4.69
695.918	8.69
695.947	-4.31
695.976	8.69
696.005	17.69
696.033	16.69
696.062	14.69
696.091	-1.31
696.12	4.69
696.149	11.69
696.178	5.69
696.207	3.69
696.235	-3.31
696.264	-5.31
696.293	-6.31
696.322	-2.31
696.351	26.69
696.38	-4.31
696.408	-6.31
696.437	-2.31
696.466	13.69
696.495	8.69
696.524	27.69
696.553	17.69
696.581	32.69
696.61	-7.31
696.639	-5.31
696.668	3.69
696.697	8.69
696.725	20.69
696.754	9.69
696.783	10.69
696.812	6.69
696.84	-1.31
696.869	23.69
696.898	-2.31
696.927	5.69
696.956	16.69
696.984	-11.31
697.013	4.69
697.042	10.69
697.071	15.69
697.099	6.69
697.128	8.69
697.157	8.69
697.186	1.69
697.214	16.69
697.243	3.69
697.272	-0.31
697.301	2.69
697.329	7.69
697.358	16.69
697.387	19.69
697.415	4.69
697.444	13.69
697.473	2.69
697.502	-11.31
697.53	5.69
697.559	-6.31
697.588	4.69
697.616	7.69
697.645	1.69
697.674	24.69
697.703	9.69
697.731	5.69
697.76	9.69
697.789	-16.31
697.817	-7.31
697.846	12.69
697.875	14.69
697.903	26.69
697.932	21.69
697.961	7.69
697.989	3.69
698.018	5.69
698.047	12.69
698.075	10.69
698.104	-6.31
698.133	-15.31
698.161	-10.31
698.19	-4.31
698.218	-0.31
698.247	10.69
698.276	-9.31
698.304	-3.31
698.333	10.69
698.362	10.69
698.39	12.69
698.419	13.69
698.447	1.69
698.476	0.69
698.505	5.69
698.533	9.69
698.562	3.69
698.591	-4.31
698.619	-12.31
698.648	5.69
698.676	1.69
698.705	-9.31
698.733	2.69
698.762	6.69
698.791	6.69
698.819	5.69
698.848	0.69
698.876	13.69
698.905	8.69
698.933	24.69
698.962	17.69
698.991	15.69
699.019	15.69
699.048	19.69
699.076	5.69
699.105	-11.31
699.133	-13.31
699.162	17.69
699.19	28.69
699.219	6.69
699.248	0.69
699.276	-2.31
699.305	-0.31
699.333	23.69
699.362	12.69
699.39	13.69
699.419	-17.31
699.447	23.69
699.476	10.69
699.504	-13.31
699.533	-7.31
699.561	-2.31
699.59	4.69
699.618	8.69
699.647	10.69
699.675	18.69
699.704	14.69
699.732	8.69
699.761	13.69
699.789	-8.31
699.818	10.69
699.846	15.69
699.874	-0.31
699.903	-3.31
699.931	2.69
699.96	15.69
699.988	2.69
700.017	2.69
700.045	-0.31
700.074	-3.31
700.102	2.69
700.13	-18.31
700.159	-6.31
700.187	12.69
700.216	3.69
700.244	-9.31
700.273	8.69
700.301	3.69
700.329	20.69
700.358	4.69
700.386	-2.31
700.415	1.69
700.443	10.69
700.472	-1.31
700.5	-2.31
700.528	-3.31
700.557	25.69
700.585	-3.31
700.614	-9.31
700.642	11.69
700.67	29.69
700.699	21.69
700.727	24.69
700.755	22.69
700.784	8.69
700.812	2.69
700.841	17.69
700.869	2.69
700.897	-17.31
700.926	-7.31
700.954	2.69
700.982	13.69
701.011	-5.31
701.039	14.69
701.067	-4.31
701.096	-2.31
701.124	-8.31
701.152	-4.31
701.181	-0.31
701.209	-24.31
701.237	-8.31
701.266	-13.31
701.294	-0.31
701.322	4.69
701.351	14.69
701.379	8.69
701.407	-1.31
701.435	2.69
701.464	13.69
701.492	34.69
701.52	-10.31
701.549	3.69
701.577	-14.31
701.605	-12.31
701.634	3.69
701.662	11.69
701.69	-5.31
701.718	-7.31
701.747	2.69
701.775	-19.31
701.803	-10.31
701.831	15.69
701.86	-0.31
701.888	12.69
701.916	14.69
701.944	11.69
701.973	3.69
702.001	-13.31
702.029	-11.31
702.057	-5.31
702.086	1.69
702.114	-4.31
702.142	12.69
702.17	7.69
702.199	6.69
702.227	1.69
702.255	2.69
702.283	-9.31
702.311	6.69
702.34	6.69
702.368	-3.31
702.396	-6.31
702.424	7.69
702.452	8.69
702.481	-1.31
702.509	11.69
702.537	18.69
702.565	-0.31
702.593	-8.31
702.621	-5.31
702.65	7.69
702.678	-4.31
702.706	6.69
702.734	6.69
702.762	1.69
702.79	-2.31
702.819	3.69
702.847	4.69
702.875	20.69
702.903	17.69
702.931	3.69
702.959	8.69
702.988	11.69
703.016	-2.31
703.044	5.69
703.072	-6.31
703.1	-6.31
703.128	9.69
703.156	2.69
703.184	-1.31
703.212	19.69
703.241	18.69
703.269	3.69
703.297	-0.31
703.325	9.69
703.353	4.69
703.381	0.69
703.409	-2.31
703.437	-8.31
703.465	-14.31
703.493	-12.31
703.522	13.69
703.55	19.69
703.578	13.69
703.606	-0.31
703.634	-9.31
703.662	-11.31
703.69	-8.31
703.718	11.69
703.746	16.69
703.774	4.69
703.802	23.69
703.83	8.69
703.858	4.69
703.886	-4.31
703.914	-14.31
703.942	12.69
703.97	-7.31
703.998	11.69
704.027	19.69
704.055	-4.31
704.083	0.69
704.111	-12.31
704.139	-7.31
704.167	-0.31
704.195	-4.31
704.223	-2.31
704.251	-0.31
704.279	15.69
704.307	11.69
704.335	-8.31
704.363	2.69
704.391	8.69
704.419	-0.31
704.447	5.69
704.475	16.69
704.503	-4.31
704.531	20.69
704.558	4.69
704.586	3.69
704.614	-3.31
704.642	10.69
704.67	-14.31
704.698	-2.31
704.726	5.69
704.754	6.69
704.782	3.69
704.81	-1.31
704.838	11.69
704.866	3.69
704.894	-14.31
704.922	-14.31
704.95	3.69
704.978	9.69
705.006	0.69
705.034	18.69
705.061	2.69
705.089	-3.31
705.117	-17.31
705.145	3.69
705.173	6.69
705.201	-2.31
705.229	9.69
705.257	2.69
705.285	0.69
705.313	4.69
705.34	7.69
705.368	6.69
705.396	5.69
705.424	3.69
705.452	-7.31
705.48	10.69
705.508	-4.31
705.536	-4.31
705.563	3.69
705.591	-2.31
705.619	5.69
705.647	14.69
705.675	5.69
705.703	1.69
705.731	3.69
705.758	-3.31
705.786	8.69
705.814	27.69
705.842	5.69
705.87	0.69
705.898	4.69
705.925	4.69
705.953	12.69
705.981	-10.31
706.009	4.69
706.037	-0.31
706.065	9.69
706.092	-10.31
706.12	1.69
706.148	-6.31
706.176	6.69
706.204	14.69
706.231	3.69
706.259	-11.31
706.287	-1.31
706.315	-2.31
706.342	3.69
706.37	-0.31
706.398	-6.31
706.426	-6.31
706.454	10.69
706.481	22.69
706.509	9.69
706.537	1.69
706.565	-6.31
706.592	11.69
706.62	8.69
706.648	16.69
706.676	1.69
706.703	18.69
706.731	-5.31
706.759	2.69
706.787	9.69
706.814	6.69
706.842	-2.31
706.87	-4.31
706.897	10.69
706.925	9.69
706.953	9.69
706.981	26.69
707.008	12.69
707.036	12.69
707.064	-4.31
707.091	-6.31
707.119	22.69
707.147	9.69
707.174	-3.31
707.202	13.69
707.23	-1.31
707.258	9.69
707.285	-9.31
707.313	-17.31
707.341	-8.31
707.368	-9.31
707.396	0.69
707.424	17.69
707.451	11.69
707.479	7.69
707.507	4.69
707.534	-1.31
707.562	1.69
707.59	-2.31
707.617	-14.31
707.645	0.69
707.672	-3.31
707.7	-9.31
707.728	6.69
707.755	12.69
707.783	6.69
707.811	11.69
707.838	-4.31
707.866	11.69
707.893	11.69
707.921	-1.31
707.949	-2.31
707.976	2.69
708.004	13.69
708.031	-5.31
708.059	-0.31
708.087	3.69
708.114	1.69
708.142	4.69
708.169	6.69
708.197	-2.31
708.225	3.69
708.252	-0.31
708.28	18.69
708.307	15.69
708.335	12.69
708.362	0.69
708.39	-12.31
708.418	-0.31
708.445	-5.31
708.473	5.69
708.5	-13.31
708.528	21.69
708.555	18.69
708.583	1.69
708.61	3.69
708.638	12.69
708.665	-4.31
708.693	20.69
708.72	1.69
708.748	-12.31
708.776	-5.31
708.803	15.69
708.831	8.69
708.858	13.69
708.886	-5.31
708.913	9.69
708.941	-1.31
708.968	8.69
708.996	-0.31
709.023	26.69
709.051	-7.31
709.078	0.69
709.105	6.69
709.133	-0.31
709.16	3.69
709.188	9.69
709.215	10.69
709.243	5.69
709.27	-4.31
709.298	0.69
709.325	-12.31
709.353	-2.31
709.38	9.69
709.408	7.69
709.435	-2.31
709.462	8.69
709.49	-2.31
709.517	-13.31
709.545	-15.31
709.572	7.69
709.6	-4.31
709.627	15.69
709.655	-2.31
709.682	-15.31
709.709	2.69
709.737	-7.31
709.764	-12.31
709.792	14.69
709.819	11.69
709.846	-2.31
709.874	-5.31
709.901	14.69
709.929	21.69
709.956	9.69
709.983	-14.31
710.011	-2.31
710.038	-1.31
710.066	15.69
710.093	22.69
710.12	12.69
710.148	0.69
710.175	2.69
710.202	-10.31
710.23	14.69
710.257	5.69
710.284	-1.31
710.312	-13.31
710.339	4.69
710.366	-0.31
710.394	-7.31
710.421	15.69
710.448	-1.31
710.476	-16.31
710.503	1.69
710.53	14.69
710.558	13.69
710.585	15.69
710.612	5.69
710.64	2.69
710.667	-3.31
710.694	-6.31
710.722	0.69
710.749	2.69
710.776	-0.31
710.804	17.69
710.831	9.69
710.858	4.69
710.885	-2.31
710.913	3.69
710.94	18.69
710.967	2.69
710.995	-2.31
711.022	-2.31
711.049	-1.31
711.076	-1.31
711.104	-7.31
711.131	-13.31
711.158	-10.31
711.185	-6.31
711.213	-17.31
711.24	5.69
711.267	5.69
711.294	8.69
711.322	10.69
711.349	-4.31
711.376	-16.31
711.403	13.69
711.431	-10.31
711.458	-7.31
711.485	-2.31
711.512	27.69
711.54	14.69
711.567	6.69
711.594	-9.31
711.621	0.69
711.648	-8.31
711.676	-10.31
711.703	4.69
711.73	-21.31
711.757	5.69
711.784	-0.31
711.812	-0.31
711.839	-3.31
711.866	-2.31
711.893	-8.31
711.92	2.69
711.947	3.69
711.975	6.69
712.002	4.69
712.029	20.69
712.056	2.69
712.083	12.69
712.11	-22.31
712.138	0.69
712.165	8.69
712.192	11.69
712.219	0.69
712.246	4.69
712.273	1.69
712.3	-5.31
712.328	-5.31
712.355	-4.31
712.382	-9.31
712.409	7.69
712.436	-1.31
712.463	15.69
712.49	13.69
712.517	3.69
712.544	-2.31
712.572	-10.31
712.599	-7.31
712.626	0.69
712.653	-10.31
712.68	-16.31
712.707	13.69
712.734	4.69
712.761	-0.31
712.788	10.69
712.815	7.69
712.842	6.69
712.87	6.69
712.897	-15.31
712.924	-16.31
712.951	5.69
712.978	18.69
713.005	10.69
713.032	10.69
713.059	2.69
713.086	6.69
713.113	-0.31
713.14	-16.31
713.167	7.69
713.194	9.69
713.221	-2.31
713.248	0.69
713.275	1.69
713.302	-1.31
713.329	0.69
713.356	27.69
713.383	16.69
713.41	11.69
713.437	-6.31
713.464	-1.31
713.491	7.69
713.518	9.69
713.545	-2.31
713.572	-4.31
713.599	17.69
713.626	9.69
713.653	23.69
713.68	-5.31
713.707	3.69
713.734	-0.31
713.761	-0.31
713.788	-0.31
713.815	-4.31
713.842	-0.31
713.869	6.69
713.896	3.69
713.923	10.69
713.95	2.69
713.977	2.69
714.004	-2.31
714.031	-2.31
714.058	-14.31
714.085	-9.31
714.112	5.69
714.139	-3.31
714.165	-1.31
714.192	11.69
714.219	-6.31
714.246	14.69
714.273	-1.31
714.3	7.69
714.327	-2.31
714.354	13.69
714.381	7.69
714.408	-1.31
714.435	12.69
714.461	-1.31
714.488	17.69
714.515	-9.31
714.542	-10.31
714.569	-3.31
714.596	1.69
714.623	-1.31
714.65	-8.31
714.677	-10.31
714.703	2.69
714.73	22.69
714.757	4.69
714.784	12.69
714.811	-1.31
714.838	10.69
714.865	-3.31
714.891	3.69
714.918	19.69
714.945	-4.31
714.972	-2.31
714.999	2.69
715.026	2.69
715.052	22.69
715.079	10.69
715.106	11.69
715.133	14.69
715.16	-7.31
715.187	8.69
715.213	15.69
715.24	-2.31
715.267	-5.31
715.294	1.69
715.321	8.69
715.347	0.69
715.374	-6.31
715.401	2.69
715.428	5.69
715.455	6.69
715.481	-5.31
715.508	5.69
715.535	-3.31
715.562	14.69
715.588	6.69
715.615	5.69
715.642	3.69
715.669	16.69
715.695	13.69
715.722	-22.31
715.749	-6.31
715.776	13.69
715.802	1.69
715.829	1.69
715.856	-12.31
715.883	10.69
715.909	-13.31
715.936	-8.31
715.963	-2.31
715.99	-12.31
716.016	18.69
716.043	7.69
716.07	-2.31
716.096	-8.31
716.123	-9.31
716.15	-1.31
716.177	8.69
716.203	8.69
716.23	6.69
716.257	11.69
716.283	17.69
716.31	2.69
716.337	-9.31
716.363	9.69
716.39	14.69
716.417	23.69
716.443	-4.31
716.47	19.69
716.497	4.69
716.523	3.69
716.55	-4.31
716.577	3.69
716.603	10.69
716.63	0.69
716.657	-1.31
716.683	-16.31
716.71	-5.31
716.737	-7.31
716.763	2.69
716.79	0.69
716.817	9.69
716.843	9.69
716.87	6.69
716.897	5.69
716.923	8.69
716.95	-5.31
716.976	-12.31
717.003	-7.31
717.03	-7.31
717.056	2.69
717.083	1.69
717.109	10.69
717.136	1.69
717.163	-2.31
717.189	1.69
717.216	11.69
717.242	6.69
717.269	3.69
717.296	6.69
717.322	14.69
717.349	9.69
717.375	1.69
717.402	-9.31
717.428	-0.31
717.455	9.69
717.481	10.69
717.508	11.69
717.535	11.69
717.561	-9.31
717.588	-5.31
717.614	-8.31
717.641	5.69
717.667	-11.31
717.694	8.69
717.72	-3.31
717.747	11.69
717.773	-6.31
717.8	13.69
717.826	-5.31
717.853	-13.31
717.88	5.69
717.906	12.69
717.933	10.69
717.959	11.69
717.986	10.69
718.012	-6.31
718.039	7.69
718.065	9.69
718.092	3.69
718.118	-7.31
718.144	1.69
718.171	18.69
718.197	17.69
718.224	21.69
718.25	-5.31
718.277	-1.31
718.303	10.69
718.33	15.69
718.356	0.69
718.383	-15.31
718.409	-2.31
718.436	11.69
718.462	3.69
718.489	-4.31
718.515	-11.31
718.541	-0.31
718.568	5.69
718.594	0.69
718.621	-2.31
718.647	-13.31
718.674	8.69
718.7	-2.31
718.726	3.69
718.753	2.69
718.779	16.69
718.806	10.69
718.832	-1.31
718.858	-2.31
718.885	-16.31
718.911	-1.31
718.938	8.69
718.964	-11.31
718.99	-5.31
719.017	-3.31
719.043	0.69
719.07	1.69
719.096	4.69
719.122	10.69
719.149	-4.31
719.175	-1.31
719.201	12.69
719.228	7.69
719.254	-9.31
719.281	-8.31
719.307	-4.31
719.333	-7.31
719.36	10.69
719.386	-1.31
719.412	20.69
719.439	-19.31
719.465	-15.31
719.491	-0.31
719.518	14.69
719.544	3.69
719.57	7.69
719.597	3.69
719.623	-11.31
719.649	5.69
719.675	-1.31
719.702	10.69
719.728	13.69
719.754	-4.31
719.781	-2.31
719.807	-0.31
719.833	12.69
719.86	3.69
719.886	3.69
719.912	0.69
719.938	-3.31
719.965	6.69
719.991	5.69
720.017	-4.31
720.044	-4.31
720.07	7.69
720.096	4.69
720.122	9.69
720.149	15.69
720.175	34.69
720.201	17.69
720.227	0.69
720.254	2.69
720.28	-2.31
720.306	-5.31
720.332	-1.31
720.359	-2.31
720.385	-7.31
720.411	1.69
720.437	-4.31
720.463	2.69
720.49	13.69
720.516	-11.31
720.542	-10.31
720.568	3.69
720.595	10.69
720.621	3.69
720.647	15.69
720.673	11.69
720.699	6.69
720.725	5.69
720.752	9.69
720.778	0.69
720.804	-5.31
720.83	-0.31
720.856	3.69
720.883	-3.31
720.909	-0.31
720.935	12.69
720.961	24.69
720.987	-12.31
721.013	-5.31
721.04	-1.31
721.066	-5.31
721.092	-27.31
721.118	6.69
721.144	7.69
721.17	2.69
721.196	-9.31
721.223	-10.31
721.249	0.69
721.275	12.69
721.301	11.69
721.327	14.69
721.353	15.69
721.379	-8.31
721.405	3.69
721.432	6.69
721.458	-1.31
721.484	10.69
721.51	-23.31
721.536	4.69
721.562	12.69
721.588	21.69
721.614	0.69
721.64	0.69
721.666	-5.31
721.693	-0.31
721.719	-7.31
721.745	-2.31
721.771	15.69
721.797	-4.31
721.823	11.69
721.849	10.69
721.875	6.69
721.901	5.69
721.927	-0.31
721.953	6.69
721.979	27.69
722.005	13.69
722.031	-16.31
722.057	12.69
722.083	9.69
722.109	14.69
722.135	13.69
722.161	7.69
722.187	3.69
722.214	-14.31
722.24	-4.31
722.266	3.69
722.292	18.69
722.318	20.69
722.344	18.69
722.37	14.69
722.396	12.69
722.422	8.69
722.448	10.69
722.474	-8.31
722.5	24.69
722.526	-2.31
722.552	-5.31
722.578	2.69
722.603	8.69
722.629	-2.31
722.655	5.69
722.681	-2.31
722.707	-1.31
722.733	5.69
722.759	-1.31
722.785	-6.31
722.811	-6.31
722.837	2.69
722.863	22.69
722.889	8.69
722.915	-9.31
722.941	-7.31
722.967	-10.31
722.993	1.69
723.019	4.69
723.045	3.69
723.071	2.69
723.097	7.69
723.122	-7.31
723.148	10.69
723.174	9.69
723.2	4.69
723.226	1.69
723.252	-1.31
723.278	-0.31
723.304	-3.31
723.33	2.69
723.356	-13.31
723.381	-2.31
723.407	-9.31
723.433	-4.31
723.459	6.69
723.485	-2.31
723.511	10.69
723.537	13.69
723.563	-9.31
723.588	7.69
723.614	19.69
723.64	7.69
723.666	8.69
723.692	17.69
723.718	26.69
723.744	-1.31
723.769	-14.31
723.795	-14.31
723.821	-0.31
723.847	5.69
723.873	16.69
723.899	11.69
723.924	-7.31
723.95	-7.31
723.976	-10.31
724.002	5.69
724.028	17.69
724.053	-4.31
724.079	-7.31
724.105	12.69
724.131	5.69
724.157	-8.31
724.182	4.69
724.208	1.69
724.234	18.69
724.26	19.69
724.286	-0.31
724.311	-5.31
724.337	-15.31
724.363	-13.31
724.389	11.69
724.415	-6.31
724.44	15.69
724.466	-5.31
724.492	-5.31
724.518	10.69
724.543	5.69
724.569	11.69
724.595	16.69
724.621	9.69
724.646	3.69
724.672	3.69
724.698	-6.31
724.723	2.69
724.749	-1.31
724.775	11.69
724.801	10.69
724.826	-12.31
724.852	-4.31
724.878	0.69
724.904	-13.31
724.929	-0.31
724.955	-27.31
724.981	-6.31
725.006	4.69
725.032	0.69
725.058	9.69
725.083	3.69
725.109	-1.31
725.135	-2.31
725.161	-12.31
725.186	-7.31
725.212	7.69
725.238	15.69
725.263	-5.31
725.289	-7.31
725.315	-13.31
725.34	1.69
725.366	10.69
725.392	1.69
725.417	-6.31
725.443	-5.31
725.468	12.69
725.494	-1.31
725.52	0.69
725.545	-1.31
725.571	11.69
725.597	2.69
725.622	-4.31
725.648	-4.31
725.674	17.69
725.699	11.69
725.725	10.69
725.75	32.69
725.776	-6.31
725.802	9.69
725.827	3.69
725.853	12.69
725.878	18.69
725.904	-0.31
725.93	-1.31
725.955	-5.31
725.981	-6.31
726.006	8.69
726.032	8.69
726.057	-5.31
726.083	-6.31
726.109	-2.31
726.134	1.69
726.16	4.69
726.185	-4.31
726.211	-14.31
726.236	3.69
726.262	1.69
726.288	8.69
726.313	29.69
726.339	0.69
726.364	-10.31
726.39	16.69
726.415	6.69
726.441	1.69
726.466	-0.31
726.492	11.69
726.517	30.69
726.543	3.69
726.568	-1.31
726.594	-0.31
726.619	6.69
726.645	-5.31
726.67	17.69
726.696	13.69
726.721	1.69
726.747	-9.31
726.772	-3.31
726.798	-5.31
726.823	6.69
726.849	2.69
726.874	8.69
726.9	30.69
726.925	11.69
726.951	4.69
726.976	9.69
727.002	-6.31
727.027	9.69
727.053	17.69
727.078	-3.31
727.104	-7.31
727.129	1.69
727.155	1.69
727.18	17.69
727.205	3.69
727.231	-1.31
727.256	6.69
727.282	8.69
727.307	8.69
727.333	4.69
727.358	2.69
727.383	-0.31
727.409	-12.31
727.434	-6.31
727.46	-5.31
727.485	12.69
727.511	7.69
727.536	-6.31
727.561	-11.31
727.587	-4.31
727.612	-21.31
727.637	5.69
727.663	-3.31
727.688	1.69
727.714	-0.31
727.739	-2.31
727.764	-9.31
727.79	7.69
727.815	13.69
727.841	-2.31
727.866	7.69
727.891	9.69
727.917	-20.31
727.942	-8.31
727.967	-4.31
727.993	-10.31
728.018	-4.31
728.043	8.69
728.069	26.69
728.094	16.69
728.119	-10.31
728.145	30.69
728.17	2.69
728.195	14.69
728.221	27.69
728.246	7.69
728.271	-7.31
728.297	3.69
728.322	-7.31
728.347	6.69
728.373	2.69
728.398	9.69
728.423	6.69
728.448	-2.31
728.474	17.69
728.499	-0.31
728.524	-9.31
728.55	-6.31
728.575	-0.31
728.6	9.69
728.625	-0.31
728.651	16.69
728.676	11.69
728.701	-1.31
728.727	3.69
728.752	0.69
728.777	-12.31
728.802	9.69
728.828	-2.31
728.853	11.69
728.878	11.69
728.903	-6.31
728.929	3.69
728.954	-5.31
728.979	-0.31
729.004	2.69
729.03	1.69
729.055	15.69
729.08	-0.31
729.105	-5.31
729.13	16.69
729.156	11.69
729.181	5.69
729.206	-6.31
729.231	-3.31
729.256	1.69
729.282	10.69
729.307	-1.31
729.332	-6.31
729.357	5.69
729.382	-8.31
729.408	-4.31
729.433	1.69
729.458	1.69
729.483	8.69
729.508	2.69
729.533	-2.31
729.559	3.69
729.584	-7.31
729.609	10.69
729.634	19.69
729.659	-5.31
729.684	-15.31
729.71	14.69
729.735	2.69
729.76	-2.31
729.785	5.69
729.81	25.69
729.835	3.69
729.86	-1.31
729.886	16.69
729.911	16.69
729.936	9.69
729.961	15.69
729.986	19.69
730.011	54.69
730.036	196.69
730.061	998.69
730.086	2678.69
730.112	3360.69
730.137	2797.69
730.162	2122.69
730.187	1643.69
730.212	1245.69
730.237	800.69
730.262	473.69
730.287	246.69
730.312	155.69
730.337	72.69
730.362	61.69
730.387	28.69
730.413	10.69
730.438	18.69
730.463	5.69
730.488	11.69
730.513	10.69
730.538	6.69
730.563	23.69
730.588	17.69
730.613	26.69
730.638	21.69
730.663	15.69
730.688	23.69
730.713	3.69
730.738	7.69
730.763	3.69
730.788	-0.31
730.813	9.69
730.838	6.69
730.863	1.69
730.888	0.69
730.913	4.69
730.938	-13.31
730.963	25.69
730.988	120.69
731.013	403.69
731.038	629.69
731.063	617.69
731.088	475.69
731.113	351.69
731.138	274.69
731.163	196.69
731.188	114.69
731.213	77.69
731.238	48.69
731.263	22.69
731.288	6.69
731.313	13.69
731.338	-4.31
731.363	15.69
731.388	9.69
731.413	6.69
731.438	28.69
731.463	-4.31
731.487	6.69
731.512	-2.31
731.537	7.69
731.562	11.69
731.587	-2.31
731.612	5.69
731.637	14.69
731.662	4.69
731.687	-4.31
731.712	1.69
731.737	14.69
731.762	10.69
731.786	21.69
731.811	3.69
731.836	2.69
731.861	9.69
731.886	-0.31
731.911	10.69
731.936	8.69
731.961	-12.31
731.986	-11.31
732.01	-2.31
732.035	-3.31
732.06	11.69
732.085	11.69
732.11	1.69
732.135	-4.31
732.16	3.69
732.184	6.69
732.209	13.69
732.234	5.69
732.259	11.69
732.284	22.69
732.309	6.69
732.334	-13.31
732.358	-12.31
732.383	-10.31
732.408	-0.31
732.433	18.69
732.458	14.69
732.482	18.69
732.507	-0.31
732.532	2.69
732.557	7.69
732.582	14.69
732.607	28.69
732.631	48.69
732.656	74.69
732.681	151.69
732.706	331.69
732.73	477.69
732.755	388.69
732.78	287.69
732.805	234.69
732.83	162.69
732.854	122.69
732.879	72.69
732.904	22.69
732.929	12.69
732.953	24.69
732.978	4.69
733.003	-9.31
733.028	-2.31
733.052	4.69
733.077	-2.31
733.102	12.69
733.127	6.69
733.151	-6.31
733.176	9.69
733.201	-8.31
733.226	-4.31
733.25	-4.31
733.275	3.69
733.3	2.69
733.324	11.69
733.349	1.69
733.374	23.69
733.399	-7.31
733.423	1.69
733.448	-2.31
733.473	-5.31
733.497	10.69
733.522	-10.31
733.547	23.69
733.571	11.69
733.596	-1.31
733.621	-9.31
733.646	-5.31
733.67	3.69
733.695	-12.31
733.72	3.69
733.744	20.69
733.769	3.69
733.794	11.69
733.818	-7.31
733.843	-8.31
733.867	-20.31
733.892	-15.31
733.917	2.69
733.941	-2.31
733.966	-10.31
733.991	-4.31
734.015	14.69
734.04	1.69
734.065	1.69
734.089	22.69
734.114	2.69
734.138	3.69
734.163	-0.31
734.188	-1.31
734.212	-1.31
734.237	-2.31
734.261	-1.31
734.286	2.69
734.311	6.69
734.335	4.69
734.36	-16.31
734.384	5.69
734.409	-0.31
734.434	-11.31
734.458	6.69
734.483	18.69
734.507	-11.31
734.532	-8.31
734.556	-5.31
734.581	3.69
734.606	-16.31
734.63	-12.31
734.655	-0.31
734.679	7.69
734.704	4.69
734.728	-1.31
734.753	-2.31
734.777	-0.31
734.802	-10.31
734.826	9.69
734.851	1.69
734.876	19.69
734.9	14.69
734.925	-4.31
734.949	-12.31
734.974	1.69
734.998	-1.31
735.023	-18.31
735.047	-16.31
735.072	26.69
735.096	5.69
735.121	15.69
735.145	-4.31
735.17	-10.31
735.194	11.69
735.219	13.69
735.243	-2.31
735.268	3.69
735.292	5.69
735.317	-1.31
735.341	-1.31
735.365	-6.31
735.39	17.69
735.414	11.69
735.439	-0.31
735.463	-6.31
735.488	3.69
735.512	11.69
735.537	-5.31
735.561	-12.31
735.586	2.69
735.61	-0.31
735.634	-5.31
735.659	1.69
735.683	7.69
735.708	-7.31
735.732	1.69
735.757	1.69
735.781	-12.31
735.805	14.69
735.83	-9.31
735.854	3.69
735.879	-1.31
735.903	13.69
735.927	0.69
735.952	-1.31
735.976	10.69
736.001	-1.31
736.025	-2.31
736.049	15.69
736.074	12.69
736.098	-5.31
736.123	9.69
736.147	2.69
736.171	-6.31
736.196	11.69
736.22	-13.31
736.244	-3.31
736.269	4.69
736.293	1.69
736.317	15.69
736.342	15.69
736.366	8.69
736.39	14.69
736.415	14.69
736.439	-1.31
736.463	14.69
736.488	17.69
736.512	8.69
736.536	10.69
736.561	25.69
736.585	7.69
736.609	3.69
736.634	-4.31
736.658	-5.31
736.682	4.69
736.707	-2.31
736.731	-2.31
736.755	2.69
736.78	30.69
736.804	23.69
736.828	14.69
736.852	1.69
736.877	8.69
736.901	6.69
736.925	-4.31
736.949	2.69
736.974	-2.31
736.998	-3.31
737.022	-8.31
737.047	-18.31
737.071	-4.31
737.095	15.69
737.119	36.69
737.144	22.69
737.168	11.69
737.192	4.69
737.216	-10.31
737.241	-2.31
737.265	-7.31
737.289	2.69
737.313	-1.31
737.337	9.69
737.362	17.69
737.386	1.69
737.41	-4.31
737.434	10.69
737.459	-1.31
737.483	-2.31
737.507	18.69
737.531	12.69
737.555	-3.31
737.58	-1.31
737.604	-6.31
737.628	-6.31
737.652	-3.31
737.676	2.69
737.701	10.69
737.725	8.69
737.749	7.69
737.773	5.69
737.797	-3.31
737.821	1.69
737.846	-1.31
737.87	21.69
737.894	2.69
737.918	-0.31
737.942	4.69
737.966	21.69
737.99	11.69
738.015	21.69
738.039	14.69
738.063	-4.31
738.087	22.69
738.111	2.69
738.135	15.69
738.159	14.69
738.184	-0.31
738.208	-3.31
738.232	2.69
738.256	11.69
738.28	22.69
738.304	11.69
738.328	-4.31
738.352	10.69
738.376	8.69
738.4	23.69
738.425	7.69
738.449	-11.31
738.473	15.69
738.497	-7.31
738.521	1.69
738.545	4.69
738.569	-6.31
738.593	21.69
738.617	-0.31
738.641	6.69
738.665	5.69
738.689	2.69
738.713	-0.31
738.737	7.69
738.762	6.69
738.786	-6.31
738.81	-24.31
738.834	2.69
738.858	-10.31
738.882	-0.31
738.906	4.69
738.93	10.69
738.954	6.69
738.978	12.69
739.002	8.69
739.026	21.69
739.05	18.69
739.074	-6.31
739.098	13.69
739.122	18.69
739.146	6.69
739.17	10.69
739.194	11.69
739.218	2.69
739.242	12.69
739.266	-4.31
739.29	9.69
739.314	15.69
739.338	-0.31
739.362	7.69
739.386	15.69
739.41	-0.31
739.434	-7.31
739.458	-2.31
739.482	2.69
739.506	1.69
739.53	14.69
739.554	5.69
739.577	-13.31
739.601	11.69
739.625	6.69
739.649	9.69
739.673	-1.31
739.697	2.69
739.721	5.69
739.745	0.69
739.769	13.69
739.793	-5.31
739.817	10.69
739.841	-1.31
739.865	-0.31
739.889	-9.31
739.912	17.69
739.936	-3.31
739.96	2.69
739.984	7.69
740.008	2.69
740.032	-2.31
740.056	-1.31
740.08	-12.31
740.104	2.69
740.127	2.69
740.151	18.69
740.175	2.69
740.199	-1.31
740.223	42.69
740.247	12.69
740.271	0.69
740.295	0.69
740.318	-27.31
740.342	-7.31
740.366	-9.31
740.39	15.69
740.414	3.69
740.438	-4.31
740.461	15.69
740.485	3.69
740.509	-4.31
740.533	5.69
740.557	-11.31
740.581	-1.31
740.604	-0.31
740.628	2.69
740.652	9.69
740.676	-1.31
740.7	9.69
740.723	4.69
740.747	-12.31
740.771	-7.31
740.795	-8.31
740.819	1.69
740.842	6.69
740.866	5.69
740.89	-7.31
740.914	2.69
740.938	-16.31
740.961	19.69
740.985	-2.31
741.009	-7.31
741.033	1.69
741.056	5.69
741.08	-4.31
741.104	-8.31
741.128	-11.31
741.151	1.69
741.175	7.69
741.199	12.69
741.223	0.69
741.246	-8.31
741.27	15.69
741.294	-4.31
741.318	-0.31
741.341	-2.31
741.365	-2.31
741.389	1.69
741.413	-0.31
741.436	14.69
741.46	20.69
741.484	10.69
741.507	0.69
741.531	24.69
741.555	18.69
741.579	2.69
741.602	11.69
741.626	14.69
741.65	2.69
741.673	-21.31
741.697	6.69
741.721	12.69
741.744	-21.31
741.768	-12.31
741.792	-6.31
741.815	-8.31
741.839	6.69
741.863	25.69
741.886	9.69
741.91	11.69
741.934	0.69
741.957	-20.31
741.981	7.69
742.005	1.69
742.028	-8.31
742.052	-1.31
742.075	9.69
742.099	10.69
742.123	7.69
742.146	8.69
742.17	8.69
742.194	-7.31
742.217	-8.31
742.241	-13.31
742.264	0.69
742.288	14.69
742.312	3.69
742.335	4.69
742.359	5.69
742.382	11.69
742.406	4.69
742.43	-4.31
742.453	-1.31
742.477	-0.31
742.5	1.69
742.524	-10.31
742.548	-8.31
742.571	6.69
742.595	-6.31
742.618	-6.31
742.642	-23.31
742.665	3.69
742.689	4.69
742.712	4.69
742.736	-5.31
742.76	13.69
742.783	2.69
742.807	-2.31
742.83	10.69
742.854	0.69
742.877	-7.31
742.901	-6.31
742.924	-2.31
742.948	6.69
742.971	-0.31
742.995	6.69
743.018	-17.31
743.042	-4.31
743.065	-12.31
743.089	0.69
743.112	-4.31
743.136	-6.31
743.159	-8.31
743.183	-3.31
743.206	5.69
743.23	-6.31
743.253	8.69
743.277	6.69
743.3	-11.31
743.324	3.69
743.347	-14.31
743.371	2.69
743.394	0.69
743.418	19.69
743.441	4.69
743.465	-5.31
743.488	1.69
743.512	-1.31
743.535	-17.31
743.558	7.69
743.582	16.69
743.605	7.69
743.629	4.69
743.652	-5.31
743.676	3.69
743.699	7.69
743.723	20.69
743.746	13.69
743.769	0.69
743.793	10.69
743.816	-23.31
743.84	10.69
743.863	5.69
743.886	-1.31
743.91	19.69
743.933	6.69
743.957	6.69
743.98	1.69
744.003	-6.31
744.027	12.69
744.05	-8.31
744.074	6.69
744.097	-9.31
744.12	-0.31
744.144	-9.31
744.167	12.69
744.19	7.69
744.214	5.69
744.237	-2.31
744.26	17.69
744.284	-7.31
744.307	-16.31
744.331	4.69
744.354	-20.31
744.377	-2.31
744.401	12.69
744.424	-5.31
744.447	0.69
744.471	-5.31
