Data from HighRes_mercury_15_13_11_07_2024_HR4C61891__22__15-14-25-386.txt Node

Date: Thu Nov 07 15:14:25 EST 2024
User: crc00042
Spectrometer: HR4C6189
Trigger mode: 4
Integration Time (sec): 1.000000E-1
Scans to average: 1
Electric dark correction enabled: true
Nonlinearity correction enabled: false
Boxcar width: 0
XAxis mode: Wavelengths
Number of Pixels in Spectrum: 3648
>>>>>Begin Spectral Data<<<<<
639.567	-68.08
639.602	-68.08
639.636	-68.08
639.67	-39.08
639.704	-17.08
639.738	2.92
639.773	15.92
639.807	-32.08
639.841	6.92
639.875	11.92
639.909	5.92
639.943	0.92
639.978	6.92
640.012	-2.08
640.046	8.92
640.08	-9.08
640.114	-11.08
640.148	-6.08
640.182	1.92
640.217	6.92
640.251	3.92
640.285	-15.08
640.319	1.92
640.353	2.92
640.387	10.92
640.421	-5.08
640.455	-3.08
640.49	-13.08
640.524	4.92
640.558	7.92
640.592	-7.08
640.626	3.92
640.66	0.92
640.694	-9.08
640.728	-2.08
640.762	22.92
640.796	14.92
640.83	8.92
640.865	-13.08
640.899	-13.08
640.933	-15.08
640.967	-1.08
641.001	-4.08
641.035	0.92
641.069	4.92
641.103	-17.08
641.137	-3.08
641.171	1.92
641.205	5.92
641.239	5.92
641.273	16.92
641.307	5.92
641.341	1.92
641.375	0.92
641.409	-11.08
641.443	-14.08
641.477	0.92
641.511	-8.08
641.545	11.92
641.579	8.92
641.614	10.92
641.648	11.92
641.682	-1.08
641.716	10.92
641.75	7.92
641.784	7.92
641.818	-3.08
641.852	4.92
641.886	-0.08
641.919	19.92
641.953	-10.08
641.987	-10.08
642.021	-13.08
642.055	6.92
642.089	4.92
642.123	-2.08
642.157	-3.08
642.191	-6.08
642.225	4.92
642.259	-5.08
642.293	12.92
642.327	7.92
642.361	-15.08
642.395	8.92
642.429	6.92
642.463	-1.08
642.497	14.92
642.531	0.92
642.565	-10.08
642.599	6.92
642.633	-12.08
642.666	-1.08
642.7	-4.08
642.734	21.92
642.768	-2.08
642.802	2.92
642.836	3.92
642.87	-5.08
642.904	8.92
642.938	-11.08
642.972	3.92
643.005	-0.08
643.039	3.92
643.073	-9.08
643.107	20.92
643.141	13.92
643.175	2.92
643.209	-14.08
643.243	-4.08
643.276	4.92
643.31	1.92
643.344	-10.08
643.378	-3.08
643.412	17.92
643.446	8.92
643.48	0.92
643.513	2.92
643.547	-1.08
643.581	1.92
643.615	16.92
643.649	18.92
643.683	-8.08
643.716	-0.08
643.75	1.92
643.784	-16.08
643.818	-3.08
643.852	-2.08
643.886	5.92
643.919	4.92
643.953	3.92
643.987	-3.08
644.021	8.92
644.055	2.92
644.088	3.92
644.122	-7.08
644.156	-9.08
644.19	4.92
644.224	-5.08
644.257	7.92
644.291	3.92
644.325	16.92
644.359	5.92
644.392	7.92
644.426	11.92
644.46	18.92
644.494	18.92
644.527	3.92
644.561	8.92
644.595	-11.08
644.629	1.92
644.662	-2.08
644.696	11.92
644.73	7.92
644.764	-11.08
644.797	-13.08
644.831	-4.08
644.865	10.92
644.899	-8.08
644.932	19.92
644.966	-5.08
645	-3.08
645.033	8.92
645.067	6.92
645.101	5.92
645.135	-3.08
645.168	-9.08
645.202	7.92
645.236	2.92
645.269	10.92
645.303	-6.08
645.337	-21.08
645.37	3.92
645.404	5.92
645.438	-14.08
645.471	-4.08
645.505	14.92
645.539	10.92
645.572	-3.08
645.606	-6.08
645.64	12.92
645.673	-13.08
645.707	1.92
645.741	5.92
645.774	-22.08
645.808	-10.08
645.842	7.92
645.875	20.92
645.909	-6.08
645.943	-11.08
645.976	-10.08
646.01	-1.08
646.043	22.92
646.077	-1.08
646.111	18.92
646.144	1.92
646.178	11.92
646.212	-9.08
646.245	-8.08
646.279	0.92
646.312	-1.08
646.346	9.92
646.38	2.92
646.413	-11.08
646.447	-5.08
646.48	-1.08
646.514	5.92
646.547	-10.08
646.581	-13.08
646.615	0.92
646.648	-13.08
646.682	-13.08
646.715	8.92
646.749	-6.08
646.782	-9.08
646.816	4.92
646.85	6.92
646.883	-0.08
646.917	18.92
646.95	10.92
646.984	5.92
647.017	-9.08
647.051	-2.08
647.084	1.92
647.118	-17.08
647.151	-5.08
647.185	-9.08
647.218	-15.08
647.252	-5.08
647.285	-16.08
647.319	10.92
647.353	9.92
647.386	19.92
647.42	-10.08
647.453	6.92
647.487	1.92
647.52	3.92
647.553	-13.08
647.587	0.92
647.62	-19.08
647.654	0.92
647.687	5.92
647.721	4.92
647.754	-2.08
647.788	9.92
647.821	-4.08
647.855	-0.08
647.888	-4.08
647.922	2.92
647.955	2.92
647.989	-11.08
648.022	-10.08
648.055	19.92
648.089	-8.08
648.122	15.92
648.156	-8.08
648.189	12.92
648.223	-3.08
648.256	6.92
648.29	10.92
648.323	10.92
648.356	4.92
648.39	10.92
648.423	2.92
648.457	-5.08
648.49	8.92
648.523	8.92
648.557	-3.08
648.59	1.92
648.624	-2.08
648.657	-1.08
648.69	8.92
648.724	9.92
648.757	7.92
648.791	4.92
648.824	15.92
648.857	10.92
648.891	-0.08
648.924	1.92
648.957	21.92
648.991	5.92
649.024	2.92
649.057	-16.08
649.091	-9.08
649.124	0.92
649.158	18.92
649.191	20.92
649.224	3.92
649.258	5.92
649.291	0.92
649.324	-0.08
649.358	0.92
649.391	10.92
649.424	-10.08
649.458	-12.08
649.491	1.92
649.524	-10.08
649.557	-21.08
649.591	-13.08
649.624	7.92
649.657	-13.08
649.691	13.92
649.724	8.92
649.757	4.92
649.791	-11.08
649.824	12.92
649.857	16.92
649.89	3.92
649.924	-3.08
649.957	-2.08
649.99	-13.08
650.023	-8.08
650.057	-12.08
650.09	17.92
650.123	10.92
650.157	13.92
650.19	6.92
650.223	1.92
650.256	-13.08
650.29	-4.08
650.323	-7.08
650.356	1.92
650.389	-10.08
650.423	-3.08
650.456	-10.08
650.489	-7.08
650.522	17.92
650.555	26.92
650.589	-3.08
650.622	4.92
650.655	8.92
650.688	-3.08
650.721	-6.08
650.755	-4.08
650.788	22.92
650.821	13.92
650.854	-0.08
650.887	-13.08
650.921	-3.08
650.954	-1.08
650.987	-0.08
651.02	-7.08
651.053	-10.08
651.087	-11.08
651.12	22.92
651.153	3.92
651.186	-1.08
651.219	-0.08
651.252	9.92
651.286	22.92
651.319	-12.08
651.352	-5.08
651.385	-4.08
651.418	-6.08
651.451	8.92
651.484	1.92
651.518	-8.08
651.551	10.92
651.584	-15.08
651.617	2.92
651.65	-4.08
651.683	-15.08
651.716	-18.08
651.749	-7.08
651.783	1.92
651.816	6.92
651.849	10.92
651.882	-0.08
651.915	1.92
651.948	2.92
651.981	-17.08
652.014	-9.08
652.047	-13.08
652.08	-14.08
652.114	-1.08
652.147	-16.08
652.18	0.92
652.213	18.92
652.246	-5.08
652.279	-8.08
652.312	8.92
652.345	-8.08
652.378	15.92
652.411	13.92
652.444	-0.08
652.477	-3.08
652.51	0.92
652.543	-6.08
652.576	-13.08
652.609	-4.08
652.642	-0.08
652.675	16.92
652.709	2.92
652.742	-9.08
652.775	-9.08
652.808	12.92
652.841	-0.08
652.874	-14.08
652.907	-17.08
652.94	-15.08
652.973	-8.08
653.006	1.92
653.039	0.92
653.072	8.92
653.105	3.92
653.138	-13.08
653.171	-1.08
653.204	3.92
653.237	-1.08
653.27	-2.08
653.303	-2.08
653.336	20.92
653.368	-19.08
653.401	4.92
653.434	2.92
653.467	1.92
653.5	-16.08
653.533	-14.08
653.566	-10.08
653.599	-6.08
653.632	1.92
653.665	-15.08
653.698	-8.08
653.731	-12.08
653.764	-3.08
653.797	-14.08
653.83	2.92
653.863	-11.08
653.896	1.92
653.929	-5.08
653.961	5.92
653.994	-3.08
654.027	-14.08
654.06	11.92
654.093	-0.08
654.126	8.92
654.159	-11.08
654.192	-3.08
654.225	-13.08
654.258	-21.08
654.29	-10.08
654.323	-7.08
654.356	-11.08
654.389	-0.08
654.422	-11.08
654.455	0.92
654.488	16.92
654.521	-5.08
654.553	-4.08
654.586	14.92
654.619	-14.08
654.652	-6.08
654.685	1.92
654.718	-3.08
654.751	1.92
654.783	-3.08
654.816	10.92
654.849	4.92
654.882	-14.08
654.915	-15.08
654.948	-4.08
654.98	-11.08
655.013	-6.08
655.046	-16.08
655.079	-24.08
655.112	-8.08
655.144	-7.08
655.177	-0.08
655.21	3.92
655.243	-0.08
655.276	14.92
655.308	-14.08
655.341	-17.08
655.374	13.92
655.407	-12.08
655.44	1.92
655.472	2.92
655.505	-12.08
655.538	-21.08
655.571	0.92
655.603	-2.08
655.636	-14.08
655.669	-0.08
655.702	-6.08
655.734	-7.08
655.767	-4.08
655.8	7.92
655.833	-1.08
655.865	-0.08
655.898	-2.08
655.931	13.92
655.964	11.92
655.996	-2.08
656.029	0.92
656.062	1.92
656.095	-14.08
656.127	-12.08
656.16	-9.08
656.193	-5.08
656.225	5.92
656.258	11.92
656.291	-2.08
656.324	-3.08
656.356	-8.08
656.389	-1.08
656.422	1.92
656.454	-1.08
656.487	0.92
656.52	17.92
656.552	5.92
656.585	1.92
656.618	0.92
656.65	9.92
656.683	3.92
656.716	0.92
656.748	0.92
656.781	-8.08
656.814	-0.08
656.846	6.92
656.879	-19.08
656.912	1.92
656.944	-13.08
656.977	-5.08
657.01	7.92
657.042	3.92
657.075	-7.08
657.108	-1.08
657.14	1.92
657.173	25.92
657.205	19.92
657.238	12.92
657.271	-8.08
657.303	-2.08
657.336	2.92
657.369	0.92
657.401	6.92
657.434	-11.08
657.466	0.92
657.499	-12.08
657.532	-16.08
657.564	-1.08
657.597	-16.08
657.629	-1.08
657.662	3.92
657.694	7.92
657.727	-23.08
657.76	4.92
657.792	-15.08
657.825	-4.08
657.857	-2.08
657.89	-12.08
657.922	11.92
657.955	-11.08
657.987	5.92
658.02	13.92
658.053	19.92
658.085	10.92
658.118	13.92
658.15	14.92
658.183	12.92
658.215	-5.08
658.248	-8.08
658.28	-11.08
658.313	-12.08
658.345	-1.08
658.378	-6.08
658.41	3.92
658.443	10.92
658.475	-6.08
658.508	-11.08
658.54	-7.08
658.573	-11.08
658.605	9.92
658.638	-5.08
658.67	-15.08
658.703	-3.08
658.735	-6.08
658.768	-21.08
658.8	-24.08
658.833	22.92
658.865	1.92
658.898	-8.08
658.93	3.92
658.963	-15.08
658.995	-31.08
659.028	3.92
659.06	-1.08
659.092	-0.08
659.125	-10.08
659.157	4.92
659.19	4.92
659.222	-1.08
659.255	4.92
659.287	11.92
659.32	-11.08
659.352	10.92
659.384	-2.08
659.417	-13.08
659.449	-2.08
659.482	-7.08
659.514	-14.08
659.546	-8.08
659.579	-2.08
659.611	-0.08
659.644	-2.08
659.676	-5.08
659.708	-21.08
659.741	2.92
659.773	14.92
659.806	-5.08
659.838	-5.08
659.87	-8.08
659.903	-14.08
659.935	-0.08
659.967	3.92
660	-6.08
660.032	-18.08
660.065	11.92
660.097	8.92
660.129	12.92
660.162	-6.08
660.194	-13.08
660.226	-3.08
660.259	5.92
660.291	2.92
660.323	-0.08
660.356	8.92
660.388	-10.08
660.42	5.92
660.453	11.92
660.485	9.92
660.517	3.92
660.55	-3.08
660.582	-1.08
660.614	-2.08
660.647	-6.08
660.679	-24.08
660.711	-6.08
660.743	-13.08
660.776	-6.08
660.808	-16.08
660.84	-3.08
660.873	-10.08
660.905	-9.08
660.937	-10.08
660.969	5.92
661.002	10.92
661.034	1.92
661.066	5.92
661.099	4.92
661.131	13.92
661.163	9.92
661.195	-4.08
661.228	5.92
661.26	4.92
661.292	3.92
661.324	4.92
661.357	-0.08
661.389	12.92
661.421	11.92
661.453	1.92
661.485	9.92
661.518	4.92
661.55	-18.08
661.582	-24.08
661.614	9.92
661.647	-0.08
661.679	5.92
661.711	-9.08
661.743	-19.08
661.775	-12.08
661.808	10.92
661.84	-1.08
661.872	4.92
661.904	-0.08
661.936	10.92
661.969	-3.08
662.001	-7.08
662.033	10.92
662.065	-4.08
662.097	9.92
662.129	-5.08
662.162	-18.08
662.194	-1.08
662.226	3.92
662.258	-14.08
662.29	-4.08
662.322	-3.08
662.355	-20.08
662.387	20.92
662.419	0.92
662.451	22.92
662.483	-0.08
662.515	-18.08
662.547	-3.08
662.58	-4.08
662.612	-5.08
662.644	-13.08
662.676	11.92
662.708	7.92
662.74	7.92
662.772	3.92
662.804	-0.08
662.836	6.92
662.869	-9.08
662.901	11.92
662.933	12.92
662.965	12.92
662.997	17.92
663.029	-5.08
663.061	-5.08
663.093	-7.08
663.125	1.92
663.157	12.92
663.189	-0.08
663.221	1.92
663.254	4.92
663.286	6.92
663.318	-15.08
663.35	-7.08
663.382	-14.08
663.414	0.92
663.446	11.92
663.478	-6.08
663.51	12.92
663.542	-6.08
663.574	-8.08
663.606	11.92
663.638	-4.08
663.67	-0.08
663.702	-8.08
663.734	-14.08
663.766	-2.08
663.798	-13.08
663.83	-7.08
663.862	-0.08
663.894	-4.08
663.926	-5.08
663.958	13.92
663.99	5.92
664.022	-26.08
664.054	9.92
664.086	4.92
664.118	-7.08
664.15	-9.08
664.182	-0.08
664.214	0.92
664.246	6.92
664.278	7.92
664.31	-1.08
664.342	10.92
664.374	4.92
664.406	-0.08
664.438	-9.08
664.47	13.92
664.502	-5.08
664.534	-3.08
664.566	-7.08
664.598	5.92
664.63	-8.08
664.662	-0.08
664.693	-8.08
664.725	14.92
664.757	-5.08
664.789	-11.08
664.821	7.92
664.853	7.92
664.885	9.92
664.917	-13.08
664.949	13.92
664.981	2.92
665.013	-1.08
665.045	-0.08
665.076	-8.08
665.108	-4.08
665.14	-2.08
665.172	7.92
665.204	-1.08
665.236	0.92
665.268	9.92
665.3	-2.08
665.331	-22.08
665.363	-19.08
665.395	-13.08
665.427	-2.08
665.459	-3.08
665.491	-4.08
665.523	1.92
665.555	-14.08
665.586	-1.08
665.618	-14.08
665.65	-18.08
665.682	-3.08
665.714	-1.08
665.746	-5.08
665.777	-8.08
665.809	6.92
665.841	10.92
665.873	4.92
665.905	-5.08
665.937	9.92
665.968	-8.08
666	-1.08
666.032	1.92
666.064	-8.08
666.096	-5.08
666.127	14.92
666.159	-3.08
666.191	-5.08
666.223	-9.08
666.255	9.92
666.286	7.92
666.318	-3.08
666.35	3.92
666.382	-6.08
666.413	-11.08
666.445	-7.08
666.477	-14.08
666.509	-8.08
666.54	-4.08
666.572	2.92
666.604	-6.08
666.636	-8.08
666.667	15.92
666.699	6.92
666.731	5.92
666.763	-5.08
666.794	-7.08
666.826	3.92
666.858	-20.08
666.89	0.92
666.921	-0.08
666.953	-7.08
666.985	10.92
667.017	13.92
667.048	-6.08
667.08	1.92
667.112	-2.08
667.143	-9.08
667.175	-2.08
667.207	2.92
667.238	-1.08
667.27	3.92
667.302	-4.08
667.334	-4.08
667.365	21.92
667.397	-11.08
667.429	-13.08
667.46	5.92
667.492	6.92
667.524	7.92
667.555	3.92
667.587	-8.08
667.619	3.92
667.65	-2.08
667.682	10.92
667.714	13.92
667.745	6.92
667.777	-11.08
667.808	12.92
667.84	-2.08
667.872	3.92
667.903	20.92
667.935	-3.08
667.967	2.92
667.998	2.92
668.03	-15.08
668.061	-0.08
668.093	5.92
668.125	8.92
668.156	13.92
668.188	-4.08
668.22	10.92
668.251	12.92
668.283	9.92
668.314	11.92
668.346	5.92
668.377	30.92
668.409	29.92
668.441	31.92
668.472	16.92
668.504	2.92
668.535	3.92
668.567	10.92
668.599	11.92
668.63	1.92
668.662	-13.08
668.693	6.92
668.725	0.92
668.756	1.92
668.788	-15.08
668.819	-3.08
668.851	-11.08
668.882	8.92
668.914	-14.08
668.946	-13.08
668.977	-23.08
669.009	-4.08
669.04	-4.08
669.072	5.92
669.103	13.92
669.135	-4.08
669.166	-11.08
669.198	3.92
669.229	1.92
669.261	-9.08
669.292	-1.08
669.324	-14.08
669.355	-0.08
669.387	-3.08
669.418	9.92
669.45	-7.08
669.481	-6.08
669.513	14.92
669.544	-9.08
669.576	-20.08
669.607	-4.08
669.639	11.92
669.67	-9.08
669.701	3.92
669.733	-21.08
669.764	1.92
669.796	8.92
669.827	-18.08
669.859	-8.08
669.89	1.92
669.922	8.92
669.953	-17.08
669.985	-0.08
670.016	12.92
670.047	-9.08
670.079	-0.08
670.11	5.92
670.142	-4.08
670.173	-9.08
670.204	-2.08
670.236	2.92
670.267	-7.08
670.299	-4.08
670.33	5.92
670.362	6.92
670.393	-22.08
670.424	11.92
670.456	-17.08
670.487	-4.08
670.518	5.92
670.55	0.92
670.581	-6.08
670.613	7.92
670.644	-6.08
670.675	-6.08
670.707	-10.08
670.738	1.92
670.769	5.92
670.801	-3.08
670.832	0.92
670.864	-2.08
670.895	7.92
670.926	6.92
670.958	-1.08
670.989	-9.08
671.02	-22.08
671.052	14.92
671.083	-3.08
671.114	2.92
671.146	5.92
671.177	-13.08
671.208	-5.08
671.24	-4.08
671.271	-7.08
671.302	-2.08
671.333	-9.08
671.365	-15.08
671.396	-5.08
671.427	-2.08
671.459	1.92
671.49	-6.08
671.521	-5.08
671.553	-7.08
671.584	1.92
671.615	-1.08
671.646	1.92
671.678	-12.08
671.709	-20.08
671.74	-20.08
671.771	-9.08
671.803	-14.08
671.834	-8.08
671.865	-4.08
671.896	4.92
671.928	-13.08
671.959	-29.08
671.99	-14.08
672.021	-0.08
672.053	-3.08
672.084	5.92
672.115	-1.08
672.146	-7.08
672.178	-18.08
672.209	-13.08
672.24	-17.08
672.271	24.92
672.303	5.92
672.334	-4.08
672.365	-19.08
672.396	2.92
672.427	15.92
672.459	16.92
672.49	16.92
672.521	-0.08
672.552	9.92
672.583	13.92
672.615	6.92
672.646	-1.08
672.677	1.92
672.708	-13.08
672.739	-10.08
672.77	-17.08
672.802	1.92
672.833	-7.08
672.864	-1.08
672.895	-5.08
672.926	-4.08
672.957	-13.08
672.989	-10.08
673.02	-17.08
673.051	-7.08
673.082	14.92
673.113	5.92
673.144	11.92
673.175	-12.08
673.206	-21.08
673.238	-9.08
673.269	-11.08
673.3	-1.08
673.331	-1.08
673.362	-15.08
673.393	-1.08
673.424	8.92
673.455	2.92
673.487	-5.08
673.518	3.92
673.549	0.92
673.58	11.92
673.611	9.92
673.642	8.92
673.673	-21.08
673.704	-7.08
673.735	-17.08
673.766	10.92
673.797	-1.08
673.828	3.92
673.86	-13.08
673.891	-21.08
673.922	-19.08
673.953	-9.08
673.984	-17.08
674.015	-0.08
674.046	13.92
674.077	-1.08
674.108	-13.08
674.139	4.92
674.17	-0.08
674.201	-12.08
674.232	-4.08
674.263	3.92
674.294	0.92
674.325	-10.08
674.356	3.92
674.387	20.92
674.418	5.92
674.449	-6.08
674.48	-15.08
674.511	-13.08
674.542	-16.08
674.573	-24.08
674.604	15.92
674.635	-5.08
674.666	0.92
674.697	1.92
674.728	-22.08
674.759	-10.08
674.79	-13.08
674.821	-4.08
674.852	-11.08
674.883	-3.08
674.914	-17.08
674.945	0.92
674.976	3.92
675.007	-13.08
675.038	-17.08
675.069	-18.08
675.1	-18.08
675.131	-12.08
675.162	-15.08
675.193	-2.08
675.224	-22.08
675.254	9.92
675.285	2.92
675.316	-6.08
675.347	-10.08
675.378	-15.08
675.409	-21.08
675.44	1.92
675.471	-3.08
675.502	-5.08
675.533	-12.08
675.564	-0.08
675.595	-0.08
675.625	25.92
675.656	13.92
675.687	0.92
675.718	-16.08
675.749	0.92
675.78	0.92
675.811	-7.08
675.842	6.92
675.873	4.92
675.903	5.92
675.934	-0.08
675.965	-15.08
675.996	-9.08
676.027	10.92
676.058	5.92
676.089	-3.08
676.119	13.92
676.15	0.92
676.181	-3.08
676.212	4.92
676.243	2.92
676.274	-4.08
676.304	18.92
676.335	-18.08
676.366	-10.08
676.397	-12.08
676.428	8.92
676.459	-6.08
676.489	17.92
676.52	5.92
676.551	6.92
676.582	-15.08
676.613	-8.08
676.643	-10.08
676.674	3.92
676.705	-9.08
676.736	5.92
676.767	3.92
676.797	13.92
676.828	4.92
676.859	-1.08
676.89	9.92
676.92	5.92
676.951	9.92
676.982	-1.08
677.013	6.92
677.044	24.92
677.074	16.92
677.105	-7.08
677.136	6.92
677.167	9.92
677.197	8.92
677.228	-8.08
677.259	-3.08
677.289	-5.08
677.32	-22.08
677.351	-18.08
677.382	-12.08
677.412	-27.08
677.443	-14.08
677.474	10.92
677.505	-11.08
677.535	-18.08
677.566	2.92
677.597	-6.08
677.627	-4.08
677.658	-10.08
677.689	-0.08
677.72	1.92
677.75	-13.08
677.781	-5.08
677.812	-3.08
677.842	5.92
677.873	-6.08
677.904	-8.08
677.934	-5.08
677.965	-19.08
677.996	-14.08
678.026	-10.08
678.057	5.92
678.088	-17.08
678.118	-10.08
678.149	-10.08
678.18	-0.08
678.21	-2.08
678.241	-9.08
678.272	5.92
678.302	-4.08
678.333	6.92
678.363	-1.08
678.394	-2.08
678.425	2.92
678.455	2.92
678.486	10.92
678.517	-1.08
678.547	3.92
678.578	-5.08
678.608	-19.08
678.639	-12.08
678.67	-6.08
678.7	-2.08
678.731	-12.08
678.761	7.92
678.792	-0.08
678.823	6.92
678.853	15.92
678.884	-14.08
678.914	13.92
678.945	-1.08
678.975	-10.08
679.006	-8.08
679.037	3.92
679.067	14.92
679.098	-1.08
679.128	-12.08
679.159	-9.08
679.189	26.92
679.22	-2.08
679.25	5.92
679.281	-5.08
679.312	-2.08
679.342	0.92
679.373	33.92
679.403	1.92
679.434	0.92
679.464	-17.08
679.495	-7.08
679.525	-12.08
679.556	-11.08
679.586	3.92
679.617	-2.08
679.647	2.92
679.678	1.92
679.708	-4.08
679.739	-4.08
679.769	-9.08
679.8	-5.08
679.83	-0.08
679.861	3.92
679.891	1.92
679.922	-31.08
679.952	-17.08
679.983	3.92
680.013	-4.08
680.044	-5.08
680.074	0.92
680.105	1.92
680.135	3.92
680.165	-0.08
680.196	0.92
680.226	-7.08
680.257	6.92
680.287	1.92
680.318	-6.08
680.348	-8.08
680.379	3.92
680.409	13.92
680.439	-23.08
680.47	1.92
680.5	-6.08
680.531	-0.08
680.561	-2.08
680.592	1.92
680.622	12.92
680.652	1.92
680.683	8.92
680.713	4.92
680.744	0.92
680.774	-13.08
680.804	12.92
680.835	-0.08
680.865	-10.08
680.896	15.92
680.926	21.92
680.956	-2.08
680.987	3.92
681.017	4.92
681.047	-5.08
681.078	-28.08
681.108	-8.08
681.139	-3.08
681.169	-9.08
681.199	-11.08
681.23	4.92
681.26	-6.08
681.29	1.92
681.321	-20.08
681.351	6.92
681.381	-0.08
681.412	3.92
681.442	-17.08
681.472	10.92
681.503	20.92
681.533	1.92
681.563	2.92
681.594	-5.08
681.624	10.92
681.654	-8.08
681.685	-9.08
681.715	0.92
681.745	-4.08
681.775	9.92
681.806	-3.08
681.836	1.92
681.866	-14.08
681.897	2.92
681.927	3.92
681.957	-11.08
681.987	7.92
682.018	-5.08
682.048	6.92
682.078	5.92
682.109	7.92
682.139	-0.08
682.169	-5.08
682.199	-3.08
682.23	-14.08
682.26	7.92
682.29	-17.08
682.32	6.92
682.351	1.92
682.381	6.92
682.411	0.92
682.441	2.92
682.472	-12.08
682.502	-12.08
682.532	-27.08
682.562	-13.08
682.592	1.92
682.623	3.92
682.653	-9.08
682.683	-5.08
682.713	2.92
682.743	-4.08
682.774	-14.08
682.804	4.92
682.834	9.92
682.864	7.92
682.894	-1.08
682.925	-1.08
682.955	9.92
682.985	-13.08
683.015	4.92
683.045	22.92
683.076	-5.08
683.106	-8.08
683.136	-13.08
683.166	3.92
683.196	-6.08
683.226	-13.08
683.257	-9.08
683.287	-15.08
683.317	-21.08
683.347	-1.08
683.377	-2.08
683.407	0.92
683.437	-10.08
683.468	-2.08
683.498	-3.08
683.528	-8.08
683.558	-3.08
683.588	-13.08
683.618	-13.08
683.648	-9.08
683.678	10.92
683.708	8.92
683.739	-1.08
683.769	-10.08
683.799	-2.08
683.829	-3.08
683.859	-0.08
683.889	2.92
683.919	-9.08
683.949	-12.08
683.979	-4.08
684.009	-6.08
684.039	-2.08
684.07	-11.08
684.1	8.92
684.13	-2.08
684.16	0.92
684.19	-1.08
684.22	-9.08
684.25	-2.08
684.28	1.92
684.31	5.92
684.34	5.92
684.37	-0.08
684.4	-1.08
684.43	3.92
684.46	-2.08
684.49	14.92
684.52	4.92
684.55	-0.08
684.58	-5.08
684.61	-12.08
684.64	0.92
684.67	10.92
684.7	5.92
684.73	11.92
684.76	4.92
684.79	17.92
684.82	-1.08
684.85	-7.08
684.88	10.92
684.91	1.92
684.94	-5.08
684.97	-17.08
685	-8.08
685.03	-8.08
685.06	5.92
685.09	-11.08
685.12	11.92
685.15	-9.08
685.18	9.92
685.21	3.92
685.24	11.92
685.27	-1.08
685.3	-1.08
685.33	10.92
685.36	-0.08
685.39	3.92
685.42	-15.08
685.45	-3.08
685.48	-10.08
685.51	-14.08
685.54	-1.08
685.569	1.92
685.599	-0.08
685.629	-7.08
685.659	-4.08
685.689	-7.08
685.719	-0.08
685.749	2.92
685.779	7.92
685.809	1.92
685.839	9.92
685.869	-0.08
685.898	-10.08
685.928	5.92
685.958	-25.08
685.988	11.92
686.018	-1.08
686.048	-3.08
686.078	-1.08
686.108	-2.08
686.137	-0.08
686.167	14.92
686.197	-15.08
686.227	-0.08
686.257	26.92
686.287	4.92
686.317	-1.08
686.346	-4.08
686.376	-0.08
686.406	-1.08
686.436	7.92
686.466	-13.08
686.496	2.92
686.525	4.92
686.555	-10.08
686.585	-0.08
686.615	10.92
686.645	4.92
686.675	-17.08
686.704	-6.08
686.734	-4.08
686.764	-10.08
686.794	-3.08
686.824	-8.08
686.853	8.92
686.883	1.92
686.913	3.92
686.943	5.92
686.973	-22.08
687.002	6.92
687.032	0.92
687.062	-9.08
687.092	5.92
687.121	-13.08
687.151	2.92
687.181	-9.08
687.211	10.92
687.24	9.92
687.27	-5.08
687.3	-10.08
687.33	-13.08
687.359	-11.08
687.389	13.92
687.419	10.92
687.449	8.92
687.478	8.92
687.508	-0.08
687.538	17.92
687.568	1.92
687.597	-4.08
687.627	6.92
687.657	9.92
687.686	4.92
687.716	17.92
687.746	-14.08
687.776	-10.08
687.805	9.92
687.835	-12.08
687.865	17.92
687.894	5.92
687.924	5.92
687.954	1.92
687.983	2.92
688.013	2.92
688.043	6.92
688.072	-10.08
688.102	18.92
688.132	3.92
688.161	4.92
688.191	15.92
688.221	17.92
688.25	-1.08
688.28	12.92
688.31	9.92
688.339	-8.08
688.369	-3.08
688.399	-5.08
688.428	-9.08
688.458	-13.08
688.488	-4.08
688.517	20.92
688.547	-2.08
688.576	17.92
688.606	11.92
688.636	-14.08
688.665	3.92
688.695	-1.08
688.725	-5.08
688.754	-11.08
688.784	-1.08
688.813	12.92
688.843	3.92
688.873	1.92
688.902	2.92
688.932	-3.08
688.961	-2.08
688.991	12.92
689.02	17.92
689.05	-10.08
689.08	2.92
689.109	10.92
689.139	6.92
689.168	-1.08
689.198	-4.08
689.227	-7.08
689.257	7.92
689.287	19.92
689.316	-1.08
689.346	3.92
689.375	-8.08
689.405	0.92
689.434	-4.08
689.464	5.92
689.493	7.92
689.523	-2.08
689.552	-3.08
689.582	5.92
689.611	-3.08
689.641	15.92
689.67	-1.08
689.7	5.92
689.73	19.92
689.759	6.92
689.789	16.92
689.818	-6.08
689.848	-6.08
689.877	14.92
689.906	-9.08
689.936	-6.08
689.965	7.92
689.995	4.92
690.024	-2.08
690.054	-9.08
690.083	20.92
690.113	0.92
690.142	2.92
690.172	0.92
690.201	-0.08
690.231	-0.08
690.26	8.92
690.29	13.92
690.319	-1.08
690.348	8.92
690.378	15.92
690.407	-1.08
690.437	6.92
690.466	-5.08
690.496	-7.08
690.525	8.92
690.555	-6.08
690.584	13.92
690.613	-9.08
690.643	-6.08
690.672	5.92
690.702	7.92
690.731	16.92
690.76	15.92
690.79	34.92
690.819	40.92
690.849	27.92
690.878	23.92
690.907	11.92
690.937	6.92
690.966	22.92
690.996	10.92
691.025	-2.08
691.054	-6.08
691.084	13.92
691.113	1.92
691.142	5.92
691.172	-4.08
691.201	21.92
691.23	6.92
691.26	17.92
691.289	1.92
691.319	5.92
691.348	6.92
691.377	5.92
691.407	0.92
691.436	0.92
691.465	3.92
691.495	-4.08
691.524	2.92
691.553	-12.08
691.583	-10.08
691.612	0.92
691.641	0.92
691.67	15.92
691.7	1.92
691.729	-11.08
691.758	-4.08
691.788	-6.08
691.817	-0.08
691.846	-4.08
691.876	-0.08
691.905	9.92
691.934	-3.08
691.963	6.92
691.993	-1.08
692.022	-10.08
692.051	-17.08
692.081	12.92
692.11	10.92
692.139	14.92
692.168	11.92
692.198	12.92
692.227	18.92
692.256	9.92
692.285	-3.08
692.315	-8.08
692.344	-0.08
692.373	11.92
692.402	-13.08
692.432	-23.08
692.461	-9.08
692.49	-1.08
692.519	-8.08
692.548	7.92
692.578	17.92
692.607	-2.08
692.636	-1.08
692.665	12.92
692.694	1.92
692.724	-11.08
692.753	5.92
692.782	4.92
692.811	-13.08
692.84	9.92
692.87	14.92
692.899	-10.08
692.928	-5.08
692.957	12.92
692.986	-3.08
693.016	2.92
693.045	7.92
693.074	-0.08
693.103	-1.08
693.132	7.92
693.161	13.92
693.191	-3.08
693.22	-14.08
693.249	9.92
693.278	1.92
693.307	-1.08
693.336	-12.08
693.365	-10.08
693.395	-4.08
693.424	8.92
693.453	-0.08
693.482	-2.08
693.511	16.92
693.54	-9.08
693.569	0.92
693.598	-1.08
693.628	11.92
693.657	6.92
693.686	22.92
693.715	4.92
693.744	12.92
693.773	18.92
693.802	-5.08
693.831	1.92
693.86	15.92
693.889	-5.08
693.919	-6.08
693.948	-2.08
693.977	-1.08
694.006	-6.08
694.035	-1.08
694.064	-8.08
694.093	-8.08
694.122	5.92
694.151	5.92
694.18	10.92
694.209	21.92
694.238	3.92
694.267	9.92
694.296	4.92
694.325	12.92
694.354	4.92
694.383	10.92
694.412	16.92
694.441	-2.08
694.471	-4.08
694.5	-16.08
694.529	0.92
694.558	12.92
694.587	16.92
694.616	-9.08
694.645	-10.08
694.674	5.92
694.703	11.92
694.732	-4.08
694.761	1.92
694.79	0.92
694.819	-12.08
694.848	3.92
694.877	19.92
694.906	33.92
694.935	6.92
694.963	29.92
694.992	-2.08
695.021	20.92
695.05	15.92
695.079	-10.08
695.108	-10.08
695.137	15.92
695.166	-1.08
695.195	-19.08
695.224	-3.08
695.253	-1.08
695.282	6.92
695.311	3.92
695.34	-1.08
695.369	5.92
695.398	-8.08
695.427	-0.08
695.456	-1.08
695.485	1.92
695.513	3.92
695.542	1.92
695.571	3.92
695.6	14.92
695.629	-2.08
695.658	-2.08
695.687	3.92
695.716	-6.08
695.745	25.92
695.774	-3.08
695.802	5.92
695.831	-2.08
695.86	0.92
695.889	4.92
695.918	-0.08
695.947	-5.08
695.976	-3.08
696.005	5.92
696.033	-1.08
696.062	14.92
696.091	-5.08
696.12	12.92
696.149	5.92
696.178	-7.08
696.207	3.92
696.235	-8.08
696.264	-1.08
696.293	-11.08
696.322	8.92
696.351	5.92
696.38	-11.08
696.408	-7.08
696.437	-17.08
696.466	7.92
696.495	0.92
696.524	15.92
696.553	12.92
696.581	20.92
696.61	3.92
696.639	-8.08
696.668	1.92
696.697	-0.08
696.725	-0.08
696.754	5.92
696.783	-6.08
696.812	-2.08
696.84	5.92
696.869	-7.08
696.898	-8.08
696.927	4.92
696.956	3.92
696.984	4.92
697.013	-7.08
697.042	2.92
697.071	-6.08
697.099	-2.08
697.128	-2.08
697.157	1.92
697.186	-2.08
697.214	5.92
697.243	4.92
697.272	-5.08
697.301	-0.08
697.329	8.92
697.358	-9.08
697.387	22.92
697.415	24.92
697.444	4.92
697.473	5.92
697.502	1.92
697.53	11.92
697.559	5.92
697.588	11.92
697.616	-2.08
697.645	-16.08
697.674	1.92
697.703	-2.08
697.731	0.92
697.76	3.92
697.789	0.92
697.817	-2.08
697.846	22.92
697.875	9.92
697.903	19.92
697.932	21.92
697.961	6.92
697.989	10.92
698.018	-19.08
698.047	-8.08
698.075	4.92
698.104	6.92
698.133	4.92
698.161	-16.08
698.19	6.92
698.218	3.92
698.247	-4.08
698.276	-4.08
698.304	14.92
698.333	3.92
698.362	6.92
698.39	12.92
698.419	8.92
698.447	7.92
698.476	-12.08
698.505	19.92
698.533	3.92
698.562	11.92
698.591	-8.08
698.619	-4.08
698.648	1.92
698.676	3.92
698.705	-1.08
698.733	-8.08
698.762	-2.08
698.791	2.92
698.819	-10.08
698.848	-5.08
698.876	2.92
698.905	11.92
698.933	-7.08
698.962	-5.08
698.991	9.92
699.019	21.92
699.048	1.92
699.076	-9.08
699.105	-9.08
699.133	-12.08
699.162	10.92
699.19	12.92
699.219	14.92
699.248	-7.08
699.276	-9.08
699.305	-1.08
699.333	-1.08
699.362	2.92
699.39	6.92
699.419	1.92
699.447	9.92
699.476	11.92
699.504	3.92
699.533	5.92
699.561	-8.08
699.59	-3.08
699.618	0.92
699.647	-6.08
699.675	-1.08
699.704	15.92
699.732	-11.08
699.761	-0.08
699.789	3.92
699.818	1.92
699.846	-10.08
699.874	-5.08
699.903	-8.08
699.931	7.92
699.96	9.92
699.988	-21.08
700.017	-6.08
700.045	-7.08
700.074	-12.08
700.102	6.92
700.13	-19.08
700.159	-1.08
700.187	4.92
700.216	-13.08
700.244	-13.08
700.273	-15.08
700.301	-18.08
700.329	-2.08
700.358	1.92
700.386	-5.08
700.415	-4.08
700.443	2.92
700.472	-3.08
700.5	5.92
700.528	2.92
700.557	6.92
700.585	-5.08
700.614	4.92
700.642	22.92
700.67	8.92
700.699	5.92
700.727	5.92
700.755	2.92
700.784	6.92
700.812	-2.08
700.841	18.92
700.869	2.92
700.897	-1.08
700.926	-20.08
700.954	0.92
700.982	-2.08
701.011	-10.08
701.039	-5.08
701.067	-6.08
701.096	0.92
701.124	0.92
701.152	2.92
701.181	11.92
701.209	-9.08
701.237	-0.08
701.266	2.92
701.294	4.92
701.322	15.92
701.351	-1.08
701.379	3.92
701.407	-15.08
701.435	4.92
701.464	5.92
701.492	9.92
701.52	3.92
701.549	5.92
701.577	-7.08
701.605	-16.08
701.634	3.92
701.662	1.92
701.69	-16.08
701.718	-8.08
701.747	15.92
701.775	14.92
701.803	-1.08
701.831	10.92
701.86	-16.08
701.888	1.92
701.916	4.92
701.944	1.92
701.973	-11.08
702.001	-14.08
702.029	-4.08
702.057	-6.08
702.086	-8.08
702.114	-8.08
702.142	3.92
702.17	-5.08
702.199	-8.08
702.227	-8.08
702.255	0.92
702.283	-1.08
702.311	11.92
702.34	-0.08
702.368	-8.08
702.396	8.92
702.424	-12.08
702.452	-5.08
702.481	5.92
702.509	-3.08
702.537	10.92
702.565	-8.08
702.593	-19.08
702.621	0.92
702.65	8.92
702.678	-3.08
702.706	5.92
702.734	-2.08
702.762	7.92
702.79	-14.08
702.819	2.92
702.847	4.92
702.875	19.92
702.903	4.92
702.931	-6.08
702.959	1.92
702.988	-1.08
703.016	-26.08
703.044	-5.08
703.072	-11.08
703.1	-1.08
703.128	-6.08
703.156	0.92
703.184	-27.08
703.212	24.92
703.241	23.92
703.269	6.92
703.297	2.92
703.325	-4.08
703.353	-10.08
703.381	-6.08
703.409	-2.08
703.437	-9.08
703.465	0.92
703.493	-6.08
703.522	3.92
703.55	-3.08
703.578	9.92
703.606	-5.08
703.634	0.92
703.662	-4.08
703.69	-4.08
703.718	-2.08
703.746	13.92
703.774	2.92
703.802	14.92
703.83	-11.08
703.858	-1.08
703.886	-14.08
703.914	-13.08
703.942	0.92
703.97	-5.08
703.998	-13.08
704.027	17.92
704.055	2.92
704.083	2.92
704.111	-19.08
704.139	-4.08
704.167	-2.08
704.195	2.92
704.223	-5.08
704.251	-2.08
704.279	3.92
704.307	1.92
704.335	-20.08
704.363	-7.08
704.391	-1.08
704.419	1.92
704.447	-4.08
704.475	-20.08
704.503	-13.08
704.531	22.92
704.558	11.92
704.586	0.92
704.614	-16.08
704.642	-10.08
704.67	-18.08
704.698	-4.08
704.726	8.92
704.754	-6.08
704.782	-9.08
704.81	-0.08
704.838	23.92
704.866	17.92
704.894	-9.08
704.922	-15.08
704.95	6.92
704.978	11.92
705.006	2.92
705.034	16.92
705.061	-14.08
705.089	-6.08
705.117	-12.08
705.145	10.92
705.173	6.92
705.201	-2.08
705.229	2.92
705.257	-3.08
705.285	-0.08
705.313	-6.08
705.34	1.92
705.368	-5.08
705.396	-1.08
705.424	-2.08
705.452	-6.08
705.48	13.92
705.508	-20.08
705.536	-19.08
705.563	-10.08
705.591	4.92
705.619	-0.08
705.647	-20.08
705.675	2.92
705.703	26.92
705.731	3.92
705.758	4.92
705.786	-11.08
705.814	-0.08
705.842	-7.08
705.87	2.92
705.898	-2.08
705.925	-8.08
705.953	2.92
705.981	-17.08
706.009	6.92
706.037	6.92
706.065	-4.08
706.092	-7.08
706.12	-6.08
706.148	-14.08
706.176	-11.08
706.204	4.92
706.231	2.92
706.259	-25.08
706.287	-8.08
706.315	6.92
706.342	-6.08
706.37	4.92
706.398	-0.08
706.426	-1.08
706.454	-6.08
706.481	5.92
706.509	-7.08
706.537	2.92
706.565	-4.08
706.592	-2.08
706.62	1.92
706.648	11.92
706.676	-14.08
706.703	-10.08
706.731	1.92
706.759	-2.08
706.787	10.92
706.814	23.92
706.842	11.92
706.87	-2.08
706.897	-8.08
706.925	6.92
706.953	11.92
706.981	10.92
707.008	6.92
707.036	6.92
707.064	-7.08
707.091	-23.08
707.119	-5.08
707.147	8.92
707.174	-5.08
707.202	22.92
707.23	-6.08
707.258	-5.08
707.285	-27.08
707.313	-18.08
707.341	-23.08
707.368	-8.08
707.396	0.92
707.424	9.92
707.451	-6.08
707.479	-16.08
707.507	-3.08
707.534	-5.08
707.562	-9.08
707.59	-21.08
707.617	-10.08
707.645	-9.08
707.672	-7.08
707.7	1.92
707.728	4.92
707.755	8.92
707.783	-7.08
707.811	5.92
707.838	0.92
707.866	4.92
707.893	7.92
707.921	-12.08
707.949	-6.08
707.976	-4.08
708.004	-10.08
708.031	-6.08
708.059	-17.08
708.087	-0.08
708.114	-5.08
708.142	1.92
708.169	-10.08
708.197	-18.08
708.225	-7.08
708.252	-15.08
708.28	13.92
708.307	2.92
708.335	15.92
708.362	3.92
708.39	-7.08
708.418	-5.08
708.445	-5.08
708.473	-10.08
708.5	-7.08
708.528	-4.08
708.555	-2.08
708.583	-5.08
708.61	-4.08
708.638	-6.08
708.665	-11.08
708.693	6.92
708.72	-4.08
708.748	-11.08
708.776	-8.08
708.803	-1.08
708.831	15.92
708.858	-0.08
708.886	-3.08
708.913	-6.08
708.941	-9.08
708.968	10.92
708.996	-11.08
709.023	21.92
709.051	-9.08
709.078	-1.08
709.105	8.92
709.133	-1.08
709.16	12.92
709.188	4.92
709.215	-0.08
709.243	-4.08
709.27	-16.08
709.298	-4.08
709.325	-6.08
709.353	-10.08
709.38	-5.08
709.408	17.92
709.435	7.92
709.462	-6.08
709.49	14.92
709.517	-5.08
709.545	-5.08
709.572	-19.08
709.6	0.92
709.627	-6.08
709.655	-11.08
709.682	13.92
709.709	10.92
709.737	5.92
709.764	-8.08
709.792	12.92
709.819	-2.08
709.846	-9.08
709.874	-2.08
709.901	2.92
709.929	14.92
709.956	7.92
709.983	-16.08
710.011	-6.08
710.038	1.92
710.066	10.92
710.093	7.92
710.12	19.92
710.148	-1.08
710.175	11.92
710.202	-15.08
710.23	3.92
710.257	-2.08
710.284	6.92
710.312	-0.08
710.339	-16.08
710.366	-8.08
710.394	-17.08
710.421	5.92
710.448	12.92
710.476	-5.08
710.503	12.92
710.53	-0.08
710.558	6.92
710.585	8.92
710.612	3.92
710.64	7.92
710.667	-9.08
710.694	-10.08
710.722	1.92
710.749	2.92
710.776	15.92
710.804	-2.08
710.831	2.92
710.858	-3.08
710.885	-4.08
710.913	-6.08
710.94	11.92
710.967	15.92
710.995	4.92
711.022	8.92
711.049	9.92
711.076	-6.08
711.104	5.92
711.131	-8.08
711.158	-4.08
711.185	4.92
711.213	-22.08
711.24	-9.08
711.267	-9.08
711.294	1.92
711.322	6.92
711.349	-8.08
711.376	-6.08
711.403	0.92
711.431	0.92
711.458	-5.08
711.485	-16.08
711.512	-4.08
711.54	-7.08
711.567	-5.08
711.594	-13.08
711.621	1.92
711.648	-5.08
711.676	11.92
711.703	-6.08
711.73	-0.08
711.757	5.92
711.784	6.92
711.812	4.92
711.839	3.92
711.866	-4.08
711.893	-5.08
711.92	10.92
711.947	-0.08
711.975	2.92
712.002	20.92
712.029	14.92
712.056	4.92
712.083	10.92
712.11	-11.08
712.138	8.92
712.165	5.92
712.192	-6.08
712.219	-7.08
712.246	-8.08
712.273	-11.08
712.3	-10.08
712.328	-0.08
712.355	0.92
712.382	-17.08
712.409	18.92
712.436	-21.08
712.463	14.92
712.49	12.92
712.517	-1.08
712.544	-6.08
712.572	-2.08
712.599	-19.08
712.626	14.92
712.653	-14.08
712.68	-12.08
712.707	3.92
712.734	7.92
712.761	-5.08
712.788	14.92
712.815	-4.08
712.842	10.92
712.87	-13.08
712.897	-7.08
712.924	-6.08
712.951	-3.08
712.978	14.92
713.005	15.92
713.032	16.92
713.059	9.92
713.086	-12.08
713.113	-8.08
713.14	3.92
713.167	11.92
713.194	-5.08
713.221	4.92
713.248	6.92
713.275	-5.08
713.302	-14.08
713.329	-12.08
713.356	6.92
713.383	17.92
713.41	7.92
713.437	-8.08
713.464	-4.08
713.491	7.92
713.518	14.92
713.545	1.92
713.572	1.92
713.599	3.92
713.626	-10.08
713.653	8.92
713.68	-11.08
713.707	-7.08
713.734	-2.08
713.761	-17.08
713.788	-14.08
713.815	-12.08
713.842	-9.08
713.869	-2.08
713.896	1.92
713.923	2.92
713.95	-0.08
713.977	9.92
714.004	7.92
714.031	-7.08
714.058	-13.08
714.085	4.92
714.112	21.92
714.139	1.92
714.165	0.92
714.192	0.92
714.219	7.92
714.246	-2.08
714.273	-2.08
714.3	-0.08
714.327	11.92
714.354	13.92
714.381	17.92
714.408	-0.08
714.435	-8.08
714.461	3.92
714.488	11.92
714.515	-5.08
714.542	-9.08
714.569	-24.08
714.596	-18.08
714.623	-8.08
714.65	-1.08
714.677	2.92
714.703	-10.08
714.73	4.92
714.757	5.92
714.784	9.92
714.811	-12.08
714.838	3.92
714.865	-2.08
714.891	4.92
714.918	-1.08
714.945	-14.08
714.972	-6.08
714.999	2.92
715.026	-15.08
715.052	-5.08
715.079	4.92
715.106	-1.08
715.133	4.92
715.16	-13.08
715.187	16.92
715.213	8.92
715.24	-8.08
715.267	-1.08
715.294	-2.08
715.321	-16.08
715.347	-21.08
715.374	-9.08
715.401	-1.08
715.428	-4.08
715.455	-4.08
715.481	-16.08
715.508	-9.08
715.535	-3.08
715.562	28.92
715.588	7.92
715.615	-9.08
715.642	-8.08
715.669	7.92
715.695	-9.08
715.722	-10.08
715.749	-1.08
715.776	17.92
715.802	9.92
715.829	-1.08
715.856	-12.08
715.883	2.92
715.909	-11.08
715.936	-3.08
715.963	8.92
715.99	-18.08
716.016	15.92
716.043	-9.08
716.07	-13.08
716.096	-10.08
716.123	-7.08
716.15	6.92
716.177	4.92
716.203	5.92
716.23	-0.08
716.257	-0.08
716.283	6.92
716.31	16.92
716.337	2.92
716.363	-14.08
716.39	5.92
716.417	4.92
716.443	6.92
716.47	12.92
716.497	15.92
716.523	17.92
716.55	7.92
716.577	3.92
716.603	-9.08
716.63	-2.08
716.657	18.92
716.683	-21.08
716.71	7.92
716.737	-8.08
716.763	2.92
716.79	2.92
716.817	11.92
716.843	-2.08
716.87	-6.08
716.897	6.92
716.923	3.92
716.95	-0.08
716.976	-5.08
717.003	13.92
717.03	16.92
717.056	8.92
717.083	0.92
717.109	22.92
717.136	17.92
717.163	2.92
717.189	6.92
717.216	-13.08
717.242	-16.08
717.269	-2.08
717.296	-4.08
717.322	7.92
717.349	1.92
717.375	3.92
717.402	-8.08
717.428	-12.08
717.455	-0.08
717.481	13.92
717.508	18.92
717.535	8.92
717.561	-4.08
717.588	-11.08
717.614	-12.08
717.641	4.92
717.667	4.92
717.694	-2.08
717.72	-5.08
717.747	1.92
717.773	3.92
717.8	9.92
717.826	5.92
717.853	3.92
717.88	4.92
717.906	3.92
717.933	-3.08
717.959	13.92
717.986	-2.08
718.012	-8.08
718.039	15.92
718.065	-5.08
718.092	-8.08
718.118	-6.08
718.144	-12.08
718.171	17.92
718.197	13.92
718.224	14.92
718.25	-2.08
718.277	23.92
718.303	5.92
718.33	-8.08
718.356	-14.08
718.383	-6.08
718.409	-12.08
718.436	3.92
718.462	-8.08
718.489	2.92
718.515	15.92
718.541	18.92
718.568	-6.08
718.594	9.92
718.621	3.92
718.647	-5.08
718.674	1.92
718.7	14.92
718.726	-9.08
718.753	-2.08
718.779	2.92
718.806	-10.08
718.832	-6.08
718.858	-3.08
718.885	-10.08
718.911	11.92
718.938	17.92
718.964	1.92
718.99	9.92
719.017	-8.08
719.043	-6.08
719.07	17.92
719.096	-15.08
719.122	-2.08
719.149	0.92
719.175	2.92
719.201	-3.08
719.228	-10.08
719.254	-2.08
719.281	-5.08
719.307	-4.08
719.333	3.92
719.36	9.92
719.386	2.92
719.412	2.92
719.439	-3.08
719.465	2.92
719.491	-13.08
719.518	5.92
719.544	2.92
719.57	-6.08
719.597	9.92
719.623	2.92
719.649	5.92
719.675	4.92
719.702	8.92
719.728	5.92
719.754	-12.08
719.781	3.92
719.807	-8.08
719.833	9.92
719.86	-0.08
719.886	6.92
719.912	-1.08
719.938	-8.08
719.965	-4.08
719.991	25.92
720.017	5.92
720.044	2.92
720.07	-0.08
720.096	13.92
720.122	-0.08
720.149	9.92
720.175	19.92
720.201	19.92
720.227	-4.08
720.254	1.92
720.28	-5.08
720.306	-1.08
720.332	9.92
720.359	-2.08
720.385	14.92
720.411	0.92
720.437	-16.08
720.463	-8.08
720.49	10.92
720.516	-22.08
720.542	-24.08
720.568	-5.08
720.595	2.92
720.621	10.92
720.647	-8.08
720.673	-12.08
720.699	-6.08
720.725	5.92
720.752	15.92
720.778	19.92
720.804	9.92
720.83	6.92
720.856	-7.08
720.883	-20.08
720.909	-12.08
720.935	12.92
720.961	5.92
720.987	-5.08
721.013	9.92
721.04	-6.08
721.066	-9.08
721.092	-10.08
721.118	10.92
721.144	8.92
721.17	-0.08
721.196	-9.08
721.223	-11.08
721.249	-13.08
721.275	12.92
721.301	-10.08
721.327	6.92
721.353	2.92
721.379	-0.08
721.405	3.92
721.432	5.92
721.458	-14.08
721.484	16.92
721.51	-16.08
721.536	-1.08
721.562	3.92
721.588	-1.08
721.614	-5.08
721.64	-10.08
721.666	-1.08
721.693	-14.08
721.719	-8.08
721.745	0.92
721.771	-8.08
721.797	6.92
721.823	-3.08
721.849	13.92
721.875	3.92
721.901	14.92
721.927	1.92
721.953	-5.08
721.979	6.92
722.005	9.92
722.031	3.92
722.057	0.92
722.083	-11.08
722.109	-4.08
722.135	-0.08
722.161	-6.08
722.187	-18.08
722.214	-11.08
722.24	-4.08
722.266	-5.08
722.292	15.92
722.318	2.92
722.344	6.92
722.37	-5.08
722.396	8.92
722.422	1.92
722.448	-0.08
722.474	-18.08
722.5	5.92
722.526	4.92
722.552	0.92
722.578	-12.08
722.603	9.92
722.629	-3.08
722.655	-1.08
722.681	2.92
722.707	3.92
722.733	-12.08
722.759	-22.08
722.785	-7.08
722.811	3.92
722.837	13.92
722.863	7.92
722.889	10.92
722.915	-12.08
722.941	-10.08
722.967	-6.08
722.993	6.92
723.019	3.92
723.045	2.92
723.071	-9.08
723.097	-6.08
723.122	-0.08
723.148	-2.08
723.174	-9.08
723.2	0.92
723.226	-9.08
723.252	-6.08
723.278	-4.08
723.304	-22.08
723.33	5.92
723.356	-8.08
723.381	1.92
723.407	-20.08
723.433	3.92
723.459	-0.08
723.485	-10.08
723.511	3.92
723.537	-4.08
723.563	-1.08
723.588	0.92
723.614	-10.08
723.64	-2.08
723.666	0.92
723.692	12.92
723.718	-10.08
723.744	-2.08
723.769	-11.08
723.795	-19.08
723.821	7.92
723.847	-10.08
723.873	7.92
723.899	5.92
723.924	-2.08
723.95	-2.08
723.976	-8.08
724.002	-1.08
724.028	6.92
724.053	-8.08
724.079	-13.08
724.105	-6.08
724.131	-5.08
724.157	-5.08
724.182	0.92
724.208	2.92
724.234	-7.08
724.26	4.92
724.286	8.92
724.311	5.92
724.337	-7.08
724.363	-6.08
724.389	-13.08
724.415	-10.08
724.44	17.92
724.466	4.92
724.492	6.92
724.518	5.92
724.543	1.92
724.569	6.92
724.595	4.92
724.621	-2.08
724.646	-9.08
724.672	-5.08
724.698	-8.08
724.723	-7.08
724.749	-6.08
724.775	15.92
724.801	4.92
724.826	-9.08
724.852	1.92
724.878	-18.08
724.904	-24.08
724.929	-5.08
724.955	-6.08
724.981	-4.08
725.006	-5.08
725.032	-3.08
725.058	17.92
725.083	-8.08
725.109	-9.08
725.135	-10.08
725.161	9.92
725.186	2.92
725.212	-11.08
725.238	8.92
725.263	13.92
725.289	-6.08
725.315	-10.08
725.34	-8.08
725.366	-3.08
725.392	-1.08
725.417	-8.08
725.443	-1.08
725.468	1.92
725.494	-1.08
725.52	7.92
725.545	-12.08
725.571	-9.08
725.597	-7.08
725.622	5.92
725.648	6.92
725.674	-3.08
725.699	3.92
725.725	-2.08
725.75	23.92
725.776	-18.08
725.802	-9.08
725.827	-11.08
725.853	-9.08
725.878	7.92
725.904	2.92
725.93	9.92
725.955	-3.08
725.981	-12.08
726.006	-5.08
726.032	21.92
726.057	7.92
726.083	14.92
726.109	-4.08
726.134	8.92
726.16	-6.08
726.185	-12.08
726.211	9.92
726.236	1.92
726.262	2.92
726.288	-1.08
726.313	-4.08
726.339	3.92
726.364	-3.08
726.39	15.92
726.415	0.92
726.441	-6.08
726.466	-21.08
726.492	-2.08
726.517	-1.08
726.543	-6.08
726.568	-16.08
726.594	7.92
726.619	10.92
726.645	9.92
726.67	-1.08
726.696	-0.08
726.721	-10.08
726.747	-21.08
726.772	-9.08
726.798	-2.08
726.823	1.92
726.849	-4.08
726.874	17.92
726.9	31.92
726.925	3.92
726.951	3.92
726.976	15.92
727.002	-12.08
727.027	11.92
727.053	17.92
727.078	1.92
727.104	-11.08
727.129	-25.08
727.155	3.92
727.18	-8.08
727.205	-16.08
727.231	-8.08
727.256	-23.08
727.282	-0.08
727.307	3.92
727.333	2.92
727.358	-17.08
727.383	-12.08
727.409	3.92
727.434	8.92
727.46	-12.08
727.485	-10.08
727.511	-5.08
727.536	-14.08
727.561	-16.08
727.587	-13.08
727.612	-12.08
727.637	-6.08
727.663	-15.08
727.688	1.92
727.714	-5.08
727.739	3.92
727.764	-6.08
727.79	0.92
727.815	-3.08
727.841	1.92
727.866	-1.08
727.891	5.92
727.917	-4.08
727.942	-0.08
727.967	6.92
727.993	-29.08
728.018	-9.08
728.043	4.92
728.069	2.92
728.094	6.92
728.119	12.92
728.145	14.92
728.17	10.92
728.195	-14.08
728.221	7.92
728.246	-2.08
728.271	-1.08
728.297	13.92
728.322	-2.08
728.347	7.92
728.373	7.92
728.398	22.92
728.423	-14.08
728.448	9.92
728.474	1.92
728.499	0.92
728.524	-6.08
728.55	-5.08
728.575	1.92
728.6	10.92
728.625	2.92
728.651	9.92
728.676	-4.08
728.701	-10.08
728.727	7.92
728.752	-18.08
728.777	-10.08
728.802	-12.08
728.828	2.92
728.853	12.92
728.878	-6.08
728.903	-10.08
728.929	-13.08
728.954	-6.08
728.979	5.92
729.004	-5.08
729.03	-10.08
729.055	18.92
729.08	-2.08
729.105	-11.08
729.13	12.92
729.156	22.92
729.181	0.92
729.206	-13.08
729.231	-6.08
729.256	6.92
729.282	14.92
729.307	-19.08
729.332	-9.08
729.357	-8.08
729.382	4.92
729.408	-1.08
729.433	-3.08
729.458	-0.08
729.483	6.92
729.508	30.92
729.533	5.92
729.559	4.92
729.584	0.92
729.609	7.92
729.634	-2.08
729.659	-21.08
729.684	-9.08
729.71	11.92
729.735	18.92
729.76	-1.08
729.785	8.92
729.81	2.92
729.835	2.92
729.86	2.92
729.886	6.92
729.911	7.92
729.936	14.92
729.961	42.92
729.986	18.92
730.011	59.92
730.036	209.92
730.061	1005.92
730.086	2739.92
730.112	3423.92
730.137	2885.92
730.162	2188.92
730.187	1665.92
730.212	1286.92
730.237	815.92
730.262	465.92
730.287	233.92
730.312	135.92
730.337	59.92
730.362	58.92
730.387	31.92
730.413	27.92
730.438	11.92
730.463	30.92
730.488	9.92
730.513	15.92
730.538	-12.08
730.563	17.92
730.588	4.92
730.613	8.92
730.638	-3.08
730.663	-4.08
730.688	16.92
730.713	-1.08
730.738	-6.08
730.763	-8.08
730.788	-2.08
730.813	25.92
730.838	8.92
730.863	-6.08
730.888	8.92
730.913	4.92
730.938	-0.08
730.963	25.92
730.988	111.92
731.013	411.92
731.038	627.92
731.063	586.92
731.088	445.92
731.113	342.92
731.138	273.92
731.163	187.92
731.188	94.92
731.213	60.92
731.238	42.92
731.263	19.92
731.288	4.92
731.313	4.92
731.338	-8.08
731.363	14.92
731.388	7.92
731.413	10.92
731.438	12.92
731.463	1.92
731.487	2.92
731.512	-11.08
731.537	-20.08
731.562	5.92
731.587	6.92
731.612	-4.08
731.637	-12.08
731.662	4.92
731.687	-9.08
731.712	-14.08
731.737	-11.08
731.762	-5.08
731.786	-8.08
731.811	13.92
731.836	2.92
731.861	-18.08
731.886	-12.08
731.911	4.92
731.936	-3.08
731.961	-0.08
731.986	-12.08
732.01	-11.08
732.035	-8.08
732.06	12.92
732.085	10.92
732.11	16.92
732.135	1.92
732.16	2.92
732.184	8.92
732.209	-13.08
732.234	-9.08
732.259	-5.08
732.284	12.92
732.309	-5.08
732.334	-7.08
732.358	-18.08
732.383	-14.08
732.408	-6.08
732.433	-4.08
732.458	-6.08
732.482	6.92
732.507	9.92
732.532	-5.08
732.557	-1.08
732.582	-10.08
732.607	22.92
732.631	52.92
732.656	79.92
732.681	157.92
732.706	353.92
732.73	457.92
732.755	391.92
732.78	284.92
732.805	237.92
732.83	169.92
732.854	131.92
732.879	85.92
732.904	28.92
732.929	7.92
732.953	20.92
732.978	11.92
733.003	5.92
733.028	0.92
733.052	7.92
733.077	-2.08
733.102	15.92
733.127	1.92
733.151	-8.08
733.176	5.92
733.201	-10.08
733.226	-17.08
733.25	7.92
733.275	5.92
733.3	4.92
733.324	18.92
733.349	-2.08
733.374	13.92
733.399	-1.08
733.423	-11.08
733.448	-2.08
733.473	-4.08
733.497	-5.08
733.522	-17.08
733.547	-3.08
733.571	14.92
733.596	-6.08
733.621	0.92
733.646	-1.08
733.67	11.92
733.695	-9.08
733.72	-13.08
733.744	-0.08
733.769	-9.08
733.794	5.92
733.818	6.92
733.843	-12.08
733.867	-17.08
733.892	-3.08
733.917	0.92
733.941	10.92
733.966	-12.08
733.991	-0.08
734.015	25.92
734.04	2.92
734.065	0.92
734.089	4.92
734.114	4.92
734.138	9.92
734.163	-1.08
734.188	-4.08
734.212	0.92
734.237	5.92
734.261	6.92
734.286	-12.08
734.311	-1.08
734.335	-1.08
734.36	-24.08
734.384	-1.08
734.409	-2.08
734.434	-6.08
734.458	2.92
734.483	9.92
734.507	-12.08
734.532	3.92
734.556	-4.08
734.581	8.92
734.606	-2.08
734.63	-15.08
734.655	-6.08
734.679	-2.08
734.704	7.92
734.728	-1.08
734.753	-2.08
734.777	11.92
734.802	1.92
734.826	15.92
734.851	18.92
734.876	7.92
734.9	-1.08
734.925	0.92
734.949	-9.08
734.974	-5.08
734.998	-8.08
735.023	-13.08
735.047	-17.08
735.072	7.92
735.096	1.92
735.121	-6.08
735.145	-14.08
735.17	7.92
735.194	7.92
735.219	-5.08
735.243	-0.08
735.268	4.92
735.292	-1.08
735.317	7.92
735.341	1.92
735.365	-19.08
735.39	-4.08
735.414	-4.08
735.439	11.92
735.463	-9.08
735.488	-3.08
735.512	8.92
735.537	-10.08
735.561	-11.08
735.586	-1.08
735.61	0.92
735.634	-14.08
735.659	14.92
735.683	19.92
735.708	-20.08
735.732	-0.08
735.757	-14.08
735.781	4.92
735.805	-9.08
735.83	-9.08
735.854	-18.08
735.879	-16.08
735.903	1.92
735.927	-1.08
735.952	-8.08
735.976	1.92
736.001	10.92
736.025	-8.08
736.049	5.92
736.074	2.92
736.098	11.92
736.123	4.92
736.147	0.92
736.171	17.92
736.196	10.92
736.22	-8.08
736.244	-5.08
736.269	3.92
736.293	-8.08
736.317	-8.08
736.342	-1.08
736.366	5.92
736.39	15.92
736.415	1.92
736.439	9.92
736.463	8.92
736.488	-0.08
736.512	-8.08
736.536	-1.08
736.561	15.92
736.585	3.92
736.609	-8.08
736.634	-26.08
736.658	-2.08
736.682	-5.08
736.707	-19.08
736.731	-11.08
736.755	-0.08
736.78	12.92
736.804	10.92
736.828	1.92
736.852	-15.08
736.877	2.92
736.901	6.92
736.925	-3.08
736.949	1.92
736.974	-13.08
736.998	-15.08
737.022	-3.08
737.047	-14.08
737.071	-8.08
737.095	3.92
737.119	10.92
737.144	11.92
737.168	-9.08
737.192	-9.08
737.216	14.92
737.241	-5.08
737.265	-10.08
737.289	-13.08
737.313	2.92
737.337	15.92
737.362	17.92
737.386	1.92
737.41	-5.08
737.434	-17.08
737.459	-20.08
737.483	2.92
737.507	2.92
737.531	-6.08
737.555	-12.08
737.58	15.92
737.604	18.92
737.628	-9.08
737.652	-16.08
737.676	-13.08
737.701	-0.08
737.725	1.92
737.749	-1.08
737.773	3.92
737.797	-6.08
737.821	-11.08
737.846	-3.08
737.87	27.92
737.894	-2.08
737.918	3.92
737.942	-3.08
737.966	3.92
737.99	2.92
738.015	-1.08
738.039	-8.08
738.063	-11.08
738.087	19.92
738.111	-2.08
738.135	1.92
738.159	-12.08
738.184	-2.08
738.208	-3.08
738.232	-8.08
738.256	12.92
738.28	6.92
738.304	-0.08
738.328	-0.08
738.352	5.92
738.376	-12.08
738.4	3.92
738.425	-10.08
738.449	2.92
738.473	23.92
738.497	11.92
738.521	7.92
738.545	9.92
738.569	-3.08
738.593	7.92
738.617	4.92
738.641	-2.08
738.665	5.92
738.689	10.92
738.713	4.92
738.737	1.92
738.762	17.92
738.786	6.92
738.81	-3.08
738.834	7.92
738.858	-15.08
738.882	-4.08
738.906	2.92
738.93	10.92
738.954	-5.08
738.978	-10.08
739.002	5.92
739.026	12.92
739.05	4.92
739.074	-3.08
739.098	11.92
739.122	-1.08
739.146	-1.08
739.17	17.92
739.194	2.92
739.218	-8.08
739.242	-4.08
739.266	-0.08
739.29	10.92
739.314	14.92
739.338	0.92
739.362	0.92
739.386	5.92
739.41	-12.08
739.434	-3.08
739.458	15.92
739.482	2.92
739.506	18.92
739.53	1.92
739.554	-3.08
739.577	1.92
739.601	10.92
739.625	-5.08
739.649	-12.08
739.673	-6.08
739.697	-2.08
739.721	11.92
739.745	-4.08
739.769	-4.08
739.793	3.92
739.817	1.92
739.841	-10.08
739.865	12.92
739.889	-1.08
739.912	-8.08
739.936	-6.08
739.96	1.92
739.984	11.92
740.008	0.92
740.032	-14.08
740.056	-1.08
740.08	-4.08
740.104	9.92
740.127	7.92
740.151	-1.08
740.175	11.92
740.199	18.92
740.223	36.92
740.247	2.92
740.271	-4.08
740.295	-11.08
740.318	-21.08
740.342	-6.08
740.366	-10.08
740.39	6.92
740.414	0.92
740.438	-4.08
740.461	9.92
740.485	11.92
740.509	-5.08
740.533	-4.08
740.557	-5.08
740.581	-10.08
740.604	-1.08
740.628	-4.08
740.652	5.92
740.676	-8.08
740.7	20.92
740.723	-10.08
740.747	-17.08
740.771	-5.08
740.795	-2.08
740.819	3.92
740.842	-5.08
740.866	9.92
740.89	2.92
740.914	-4.08
740.938	-14.08
740.961	10.92
740.985	-1.08
741.009	-4.08
741.033	-10.08
741.056	-1.08
741.08	-10.08
741.104	5.92
741.128	6.92
741.151	3.92
741.175	-1.08
741.199	-1.08
741.223	0.92
741.246	-5.08
741.27	11.92
741.294	-4.08
741.318	3.92
741.341	-4.08
741.365	-6.08
741.389	0.92
741.413	-16.08
741.436	9.92
741.46	6.92
741.484	1.92
741.507	-2.08
741.531	12.92
741.555	13.92
741.579	3.92
741.602	2.92
741.626	3.92
741.65	1.92
741.673	-2.08
741.697	9.92
741.721	15.92
741.744	-22.08
741.768	-9.08
741.792	3.92
741.815	-6.08
741.839	14.92
741.863	8.92
741.886	2.92
741.91	1.92
741.934	-0.08
741.957	-20.08
741.981	2.92
742.005	-0.08
742.028	-8.08
742.052	-2.08
742.075	-4.08
742.099	6.92
742.123	-3.08
742.146	-8.08
742.17	2.92
742.194	-13.08
742.217	-4.08
742.241	-21.08
742.264	-9.08
742.288	17.92
742.312	0.92
742.335	5.92
742.359	-4.08
742.382	7.92
742.406	17.92
742.43	-11.08
742.453	-14.08
742.477	-4.08
742.5	-8.08
742.524	-15.08
742.548	-12.08
742.571	-2.08
742.595	-8.08
742.618	0.92
742.642	-12.08
742.665	-4.08
742.689	-22.08
742.712	1.92
742.736	-1.08
742.76	5.92
742.783	-6.08
742.807	-1.08
742.83	11.92
742.854	-16.08
742.877	-14.08
742.901	-12.08
742.924	-28.08
742.948	11.92
742.971	8.92
742.995	10.92
743.018	-3.08
743.042	-28.08
743.065	-8.08
743.089	-8.08
743.112	1.92
743.136	-6.08
743.159	-0.08
743.183	-12.08
743.206	-6.08
743.23	-14.08
743.253	-5.08
743.277	7.92
743.3	-1.08
743.324	-0.08
743.347	-6.08
743.371	11.92
743.394	-8.08
743.418	16.92
743.441	9.92
743.465	-4.08
743.488	2.92
743.512	-24.08
743.535	12.92
743.558	-3.08
743.582	11.92
743.605	9.92
743.629	-2.08
743.652	2.92
743.676	-8.08
743.699	-8.08
743.723	-10.08
743.746	-1.08
743.769	-5.08
743.793	-4.08
743.816	2.92
743.84	27.92
743.863	-21.08
743.886	-10.08
743.91	2.92
743.933	-2.08
743.957	7.92
743.98	2.92
744.003	-8.08
744.027	-10.08
744.05	-3.08
744.074	-3.08
744.097	-10.08
744.12	0.92
744.144	-30.08
744.167	10.92
744.19	9.92
744.214	-6.08
744.237	-19.08
744.26	5.92
744.284	2.92
744.307	-6.08
744.331	-13.08
744.354	-17.08
744.377	-18.08
744.401	-7.08
744.424	-7.08
744.447	-6.08
744.471	-11.08
