Data from HighRes_mercury_15_13_11_07_2024_HR4C61891__14__15-14-24-586.txt Node

Date: Thu Nov 07 15:14:24 EST 2024
User: crc00042
Spectrometer: HR4C6189
Trigger mode: 4
Integration Time (sec): 1.000000E-1
Scans to average: 1
Electric dark correction enabled: true
Nonlinearity correction enabled: false
Boxcar width: 0
XAxis mode: Wavelengths
Number of Pixels in Spectrum: 3648
>>>>>Begin Spectral Data<<<<<
639.567	-51.31
639.602	-51.31
639.636	-51.31
639.67	-43.31
639.704	-18.31
639.738	-5.31
639.773	5.69
639.807	-28.31
639.841	3.69
639.875	12.69
639.909	5.69
639.943	-3.31
639.978	3.69
640.012	-2.31
640.046	-5.31
640.08	4.69
640.114	10.69
640.148	-2.31
640.182	-14.31
640.217	8.69
640.251	6.69
640.285	10.69
640.319	-4.31
640.353	-10.31
640.387	0.69
640.421	-4.31
640.455	-9.31
640.49	-8.31
640.524	-1.31
640.558	-6.31
640.592	-12.31
640.626	-10.31
640.66	-0.31
640.694	-10.31
640.728	3.69
640.762	3.69
640.796	15.69
640.83	14.69
640.865	-6.31
640.899	-2.31
640.933	7.69
640.967	-10.31
641.001	-0.31
641.035	7.69
641.069	-3.31
641.103	-10.31
641.137	-6.31
641.171	-9.31
641.205	8.69
641.239	-8.31
641.273	6.69
641.307	19.69
641.341	14.69
641.375	-10.31
641.409	4.69
641.443	-1.31
641.477	2.69
641.511	10.69
641.545	16.69
641.579	-12.31
641.614	-20.31
641.648	-5.31
641.682	0.69
641.716	3.69
641.75	23.69
641.784	1.69
641.818	-1.31
641.852	-5.31
641.886	-21.31
641.919	7.69
641.953	-13.31
641.987	-2.31
642.021	6.69
642.055	-0.31
642.089	4.69
642.123	-9.31
642.157	-16.31
642.191	-8.31
642.225	-2.31
642.259	1.69
642.293	-3.31
642.327	-7.31
642.361	6.69
642.395	6.69
642.429	10.69
642.463	-1.31
642.497	4.69
642.531	4.69
642.565	-6.31
642.599	5.69
642.633	-11.31
642.666	12.69
642.7	19.69
642.734	3.69
642.768	-2.31
642.802	-6.31
642.836	-1.31
642.87	0.69
642.904	5.69
642.938	-9.31
642.972	-10.31
643.005	-0.31
643.039	16.69
643.073	-5.31
643.107	-2.31
643.141	8.69
643.175	3.69
643.209	15.69
643.243	1.69
643.276	13.69
643.31	3.69
643.344	-12.31
643.378	15.69
643.412	17.69
643.446	-4.31
643.48	-1.31
643.513	-3.31
643.547	-4.31
643.581	-11.31
643.615	3.69
643.649	-21.31
643.683	8.69
643.716	-13.31
643.75	5.69
643.784	-22.31
643.818	14.69
643.852	5.69
643.886	3.69
643.919	11.69
643.953	-0.31
643.987	7.69
644.021	19.69
644.055	1.69
644.088	-17.31
644.122	-15.31
644.156	1.69
644.19	-1.31
644.224	22.69
644.257	-0.31
644.291	3.69
644.325	8.69
644.359	-10.31
644.392	7.69
644.426	16.69
644.46	8.69
644.494	3.69
644.527	-1.31
644.561	-1.31
644.595	2.69
644.629	-9.31
644.662	-8.31
644.696	8.69
644.73	5.69
644.764	0.69
644.797	4.69
644.831	0.69
644.865	7.69
644.899	1.69
644.932	-9.31
644.966	-9.31
645	3.69
645.033	15.69
645.067	8.69
645.101	10.69
645.135	-4.31
645.168	-4.31
645.202	-11.31
645.236	-13.31
645.269	12.69
645.303	-1.31
645.337	0.69
645.37	1.69
645.404	8.69
645.438	13.69
645.471	13.69
645.505	-1.31
645.539	-14.31
645.572	0.69
645.606	-8.31
645.64	-3.31
645.673	2.69
645.707	18.69
645.741	5.69
645.774	2.69
645.808	10.69
645.842	-1.31
645.875	15.69
645.909	1.69
645.943	-3.31
645.976	0.69
646.01	-7.31
646.043	10.69
646.077	-3.31
646.111	-5.31
646.144	-0.31
646.178	15.69
646.212	-4.31
646.245	7.69
646.279	7.69
646.312	9.69
646.346	20.69
646.38	-10.31
646.413	13.69
646.447	6.69
646.48	-8.31
646.514	10.69
646.547	-10.31
646.581	-2.31
646.615	-11.31
646.648	-14.31
646.682	-1.31
646.715	-14.31
646.749	13.69
646.782	-1.31
646.816	-10.31
646.85	-2.31
646.883	-16.31
646.917	4.69
646.95	9.69
646.984	-4.31
647.017	-17.31
647.051	2.69
647.084	-15.31
647.118	-17.31
647.151	-11.31
647.185	0.69
647.218	-0.31
647.252	6.69
647.285	2.69
647.319	0.69
647.353	1.69
647.386	15.69
647.42	4.69
647.453	9.69
647.487	0.69
647.52	-3.31
647.553	-2.31
647.587	-3.31
647.62	-4.31
647.654	17.69
647.687	-10.31
647.721	14.69
647.754	8.69
647.788	2.69
647.821	-2.31
647.855	-0.31
647.888	0.69
647.922	8.69
647.955	2.69
647.989	11.69
648.022	-1.31
648.055	19.69
648.089	0.69
648.122	-0.31
648.156	-19.31
648.189	-12.31
648.223	7.69
648.256	17.69
648.29	-6.31
648.323	2.69
648.356	-0.31
648.39	8.69
648.423	13.69
648.457	1.69
648.49	10.69
648.523	5.69
648.557	0.69
648.59	3.69
648.624	6.69
648.657	13.69
648.69	11.69
648.724	-13.31
648.757	14.69
648.791	5.69
648.824	-1.31
648.857	15.69
648.891	2.69
648.924	6.69
648.957	12.69
648.991	-2.31
649.024	7.69
649.057	-1.31
649.091	-10.31
649.124	-3.31
649.158	-0.31
649.191	8.69
649.224	-1.31
649.258	1.69
649.291	6.69
649.324	11.69
649.358	-0.31
649.391	-1.31
649.424	9.69
649.458	-0.31
649.491	0.69
649.524	-13.31
649.557	-10.31
649.591	-8.31
649.624	23.69
649.657	-14.31
649.691	-9.31
649.724	-12.31
649.757	-14.31
649.791	-19.31
649.824	4.69
649.857	-4.31
649.89	9.69
649.924	-13.31
649.957	-16.31
649.99	-0.31
650.023	4.69
650.057	-3.31
650.09	-0.31
650.123	-16.31
650.157	-5.31
650.19	17.69
650.223	-14.31
650.256	-7.31
650.29	-0.31
650.323	9.69
650.356	13.69
650.389	-13.31
650.423	-35.31
650.456	-0.31
650.489	0.69
650.522	4.69
650.555	14.69
650.589	4.69
650.622	-0.31
650.655	16.69
650.688	3.69
650.721	-6.31
650.755	-13.31
650.788	4.69
650.821	1.69
650.854	-1.31
650.887	13.69
650.921	3.69
650.954	-1.31
650.987	6.69
651.02	-1.31
651.053	-4.31
651.087	-11.31
651.12	12.69
651.153	0.69
651.186	7.69
651.219	-8.31
651.252	2.69
651.286	4.69
651.319	-19.31
651.352	-17.31
651.385	8.69
651.418	1.69
651.451	10.69
651.484	6.69
651.518	-14.31
651.551	5.69
651.584	-3.31
651.617	15.69
651.65	-1.31
651.683	6.69
651.716	-14.31
651.749	-12.31
651.783	-11.31
651.816	1.69
651.849	-0.31
651.882	-5.31
651.915	-14.31
651.948	-12.31
651.981	-13.31
652.014	-10.31
652.047	-13.31
652.08	-0.31
652.114	-9.31
652.147	-14.31
652.18	2.69
652.213	15.69
652.246	-1.31
652.279	8.69
652.312	6.69
652.345	-6.31
652.378	7.69
652.411	18.69
652.444	-0.31
652.477	-11.31
652.51	4.69
652.543	-19.31
652.576	4.69
652.609	-6.31
652.642	-7.31
652.675	7.69
652.709	0.69
652.742	-5.31
652.775	-6.31
652.808	10.69
652.841	-2.31
652.874	-0.31
652.907	2.69
652.94	-0.31
652.973	-5.31
653.006	3.69
653.039	-2.31
653.072	-9.31
653.105	-12.31
653.138	-13.31
653.171	3.69
653.204	14.69
653.237	-0.31
653.27	-15.31
653.303	-1.31
653.336	-1.31
653.368	-11.31
653.401	4.69
653.434	-16.31
653.467	13.69
653.5	2.69
653.533	-13.31
653.566	3.69
653.599	-10.31
653.632	8.69
653.665	9.69
653.698	-25.31
653.731	-17.31
653.764	15.69
653.797	-0.31
653.83	4.69
653.863	5.69
653.896	-4.31
653.929	-13.31
653.961	-3.31
653.994	-11.31
654.027	-29.31
654.06	3.69
654.093	3.69
654.126	4.69
654.159	-16.31
654.192	-17.31
654.225	-19.31
654.258	-4.31
654.29	-1.31
654.323	7.69
654.356	-12.31
654.389	2.69
654.422	-9.31
654.455	-11.31
654.488	-1.31
654.521	-6.31
654.553	2.69
654.586	16.69
654.619	-3.31
654.652	5.69
654.685	-4.31
654.718	7.69
654.751	12.69
654.783	-8.31
654.816	5.69
654.849	-5.31
654.882	-12.31
654.915	-18.31
654.948	-16.31
654.98	-5.31
655.013	-3.31
655.046	9.69
655.079	-10.31
655.112	7.69
655.144	-4.31
655.177	8.69
655.21	16.69
655.243	21.69
655.276	15.69
655.308	-14.31
655.341	-21.31
655.374	0.69
655.407	-2.31
655.44	-5.31
655.472	-4.31
655.505	5.69
655.538	1.69
655.571	7.69
655.603	-5.31
655.636	-2.31
655.669	10.69
655.702	2.69
655.734	-12.31
655.767	-0.31
655.8	-0.31
655.833	3.69
655.865	-13.31
655.898	-2.31
655.931	-21.31
655.964	-5.31
655.996	-11.31
656.029	-15.31
656.062	-10.31
656.095	6.69
656.127	-1.31
656.16	0.69
656.193	6.69
656.225	-7.31
656.258	5.69
656.291	-10.31
656.324	13.69
656.356	3.69
656.389	-2.31
656.422	2.69
656.454	12.69
656.487	14.69
656.52	8.69
656.552	-3.31
656.585	7.69
656.618	18.69
656.65	9.69
656.683	-1.31
656.716	-2.31
656.748	-12.31
656.781	-12.31
656.814	-8.31
656.846	8.69
656.879	6.69
656.912	-11.31
656.944	-23.31
656.977	-5.31
657.01	4.69
657.042	16.69
657.075	-4.31
657.108	-16.31
657.14	-4.31
657.173	7.69
657.205	14.69
657.238	14.69
657.271	5.69
657.303	-6.31
657.336	-11.31
657.369	-5.31
657.401	-4.31
657.434	-3.31
657.466	4.69
657.499	-0.31
657.532	-9.31
657.564	-9.31
657.597	-8.31
657.629	-1.31
657.662	0.69
657.694	-1.31
657.727	-13.31
657.76	3.69
657.792	-4.31
657.825	-10.31
657.857	15.69
657.89	0.69
657.922	16.69
657.955	-1.31
657.987	-10.31
658.02	8.69
658.053	23.69
658.085	-10.31
658.118	-6.31
658.15	15.69
658.183	15.69
658.215	-10.31
658.248	0.69
658.28	11.69
658.313	11.69
658.345	3.69
658.378	3.69
658.41	4.69
658.443	5.69
658.475	4.69
658.508	6.69
658.54	-5.31
658.573	-9.31
658.605	-3.31
658.638	-8.31
658.67	-9.31
658.703	0.69
658.735	-0.31
658.768	5.69
658.8	-19.31
658.833	17.69
658.865	13.69
658.898	9.69
658.93	-2.31
658.963	5.69
658.995	-5.31
659.028	-2.31
659.06	-6.31
659.092	-5.31
659.125	-5.31
659.157	3.69
659.19	-10.31
659.222	-2.31
659.255	3.69
659.287	-4.31
659.32	-3.31
659.352	-14.31
659.384	16.69
659.417	3.69
659.449	-1.31
659.482	-0.31
659.514	-18.31
659.546	-1.31
659.579	-20.31
659.611	3.69
659.644	-7.31
659.676	-3.31
659.708	-7.31
659.741	-4.31
659.773	-2.31
659.806	-0.31
659.838	-13.31
659.87	11.69
659.903	-2.31
659.935	9.69
659.967	2.69
660	-0.31
660.032	-16.31
660.065	6.69
660.097	-1.31
660.129	1.69
660.162	-26.31
660.194	-3.31
660.226	-10.31
660.259	-0.31
660.291	-17.31
660.323	0.69
660.356	3.69
660.388	-23.31
660.42	1.69
660.453	4.69
660.485	13.69
660.517	2.69
660.55	1.69
660.582	1.69
660.614	12.69
660.647	-6.31
660.679	-18.31
660.711	-0.31
660.743	-10.31
660.776	-11.31
660.808	-0.31
660.84	-6.31
660.873	-28.31
660.905	-14.31
660.937	-14.31
660.969	1.69
661.002	-7.31
661.034	28.69
661.066	-0.31
661.099	11.69
661.131	27.69
661.163	5.69
661.195	-2.31
661.228	3.69
661.26	5.69
661.292	-16.31
661.324	14.69
661.357	-1.31
661.389	4.69
661.421	-1.31
661.453	-2.31
661.485	-5.31
661.518	6.69
661.55	-16.31
661.582	-8.31
661.614	-13.31
661.647	17.69
661.679	2.69
661.711	20.69
661.743	-10.31
661.775	-7.31
661.808	10.69
661.84	1.69
661.872	-1.31
661.904	1.69
661.936	6.69
661.969	-9.31
662.001	-0.31
662.033	0.69
662.065	-14.31
662.097	-0.31
662.129	5.69
662.162	-19.31
662.194	5.69
662.226	-4.31
662.258	14.69
662.29	6.69
662.322	-25.31
662.355	-10.31
662.387	11.69
662.419	2.69
662.451	9.69
662.483	7.69
662.515	14.69
662.547	-12.31
662.58	-23.31
662.612	-0.31
662.644	-15.31
662.676	-0.31
662.708	3.69
662.74	-4.31
662.772	-18.31
662.804	-9.31
662.836	5.69
662.869	-3.31
662.901	11.69
662.933	3.69
662.965	6.69
662.997	13.69
663.029	-1.31
663.061	-11.31
663.093	-11.31
663.125	15.69
663.157	10.69
663.189	1.69
663.221	-4.31
663.254	12.69
663.286	16.69
663.318	8.69
663.35	-1.31
663.382	-4.31
663.414	3.69
663.446	0.69
663.478	-13.31
663.51	23.69
663.542	-6.31
663.574	12.69
663.606	5.69
663.638	-6.31
663.67	-3.31
663.702	-12.31
663.734	-5.31
663.766	15.69
663.798	8.69
663.83	1.69
663.862	3.69
663.894	4.69
663.926	1.69
663.958	10.69
663.99	8.69
664.022	-0.31
664.054	10.69
664.086	0.69
664.118	-11.31
664.15	-11.31
664.182	9.69
664.214	-4.31
664.246	4.69
664.278	0.69
664.31	8.69
664.342	5.69
664.374	-2.31
664.406	-11.31
664.438	-11.31
664.47	5.69
664.502	-10.31
664.534	10.69
664.566	-4.31
664.598	0.69
664.63	-16.31
664.662	-12.31
664.693	-8.31
664.725	-2.31
664.757	-9.31
664.789	-13.31
664.821	-12.31
664.853	7.69
664.885	1.69
664.917	0.69
664.949	11.69
664.981	20.69
665.013	-15.31
665.045	-7.31
665.076	-8.31
665.108	6.69
665.14	-4.31
665.172	3.69
665.204	-22.31
665.236	-17.31
665.268	15.69
665.3	9.69
665.331	-9.31
665.363	7.69
665.395	-6.31
665.427	-7.31
665.459	-3.31
665.491	-1.31
665.523	10.69
665.555	-3.31
665.586	-5.31
665.618	-16.31
665.65	5.69
665.682	13.69
665.714	2.69
665.746	2.69
665.777	0.69
665.809	1.69
665.841	7.69
665.873	4.69
665.905	0.69
665.937	2.69
665.968	8.69
666	-4.31
666.032	-4.31
666.064	-17.31
666.096	7.69
666.127	8.69
666.159	12.69
666.191	15.69
666.223	26.69
666.255	6.69
666.286	17.69
666.318	-11.31
666.35	9.69
666.382	12.69
666.413	-8.31
666.445	-3.31
666.477	-13.31
666.509	-9.31
666.54	7.69
666.572	-3.31
666.604	-3.31
666.636	-0.31
666.667	-0.31
666.699	7.69
666.731	8.69
666.763	-10.31
666.794	-4.31
666.826	-12.31
666.858	-7.31
666.89	9.69
666.921	5.69
666.953	4.69
666.985	12.69
667.017	13.69
667.048	0.69
667.08	5.69
667.112	-10.31
667.143	-19.31
667.175	-1.31
667.207	10.69
667.238	6.69
667.27	-7.31
667.302	0.69
667.334	-10.31
667.365	11.69
667.397	1.69
667.429	-0.31
667.46	4.69
667.492	7.69
667.524	-0.31
667.555	-25.31
667.587	-6.31
667.619	6.69
667.65	-6.31
667.682	-1.31
667.714	7.69
667.745	-3.31
667.777	-1.31
667.808	14.69
667.84	11.69
667.872	1.69
667.903	20.69
667.935	7.69
667.967	10.69
667.998	4.69
668.03	-0.31
668.061	3.69
668.093	-5.31
668.125	13.69
668.156	5.69
668.188	-8.31
668.22	-16.31
668.251	-9.31
668.283	6.69
668.314	11.69
668.346	20.69
668.377	4.69
668.409	6.69
668.441	23.69
668.472	-2.31
668.504	24.69
668.535	-2.31
668.567	19.69
668.599	11.69
668.63	-13.31
668.662	0.69
668.693	18.69
668.725	-5.31
668.756	-4.31
668.788	-16.31
668.819	-2.31
668.851	6.69
668.882	1.69
668.914	4.69
668.946	-8.31
668.977	5.69
669.009	-9.31
669.04	-4.31
669.072	16.69
669.103	1.69
669.135	18.69
669.166	9.69
669.198	-1.31
669.229	8.69
669.261	-8.31
669.292	-7.31
669.324	-10.31
669.355	15.69
669.387	12.69
669.418	14.69
669.45	-9.31
669.481	3.69
669.513	13.69
669.544	0.69
669.576	-4.31
669.607	7.69
669.639	15.69
669.67	-12.31
669.701	-1.31
669.733	-18.31
669.764	0.69
669.796	-0.31
669.827	-17.31
669.859	-18.31
669.89	-0.31
669.922	12.69
669.953	8.69
669.985	-0.31
670.016	13.69
670.047	3.69
670.079	-9.31
670.11	1.69
670.142	10.69
670.173	15.69
670.204	-0.31
670.236	-12.31
670.267	-12.31
670.299	-1.31
670.33	3.69
670.362	-5.31
670.393	-4.31
670.424	10.69
670.456	-1.31
670.487	-3.31
670.518	-6.31
670.55	-10.31
670.581	7.69
670.613	-3.31
670.644	-13.31
670.675	-7.31
670.707	-4.31
670.738	10.69
670.769	-13.31
670.801	-13.31
670.832	10.69
670.864	-9.31
670.895	-9.31
670.926	-10.31
670.958	-7.31
670.989	0.69
671.02	-18.31
671.052	-6.31
671.083	-13.31
671.114	-4.31
671.146	-1.31
671.177	-2.31
671.208	-11.31
671.24	-10.31
671.271	-1.31
671.302	9.69
671.333	-14.31
671.365	-12.31
671.396	-1.31
671.427	10.69
671.459	5.69
671.49	22.69
671.521	23.69
671.553	2.69
671.584	4.69
671.615	-6.31
671.646	-3.31
671.678	-3.31
671.709	-22.31
671.74	-17.31
671.771	-12.31
671.803	0.69
671.834	4.69
671.865	0.69
671.896	-8.31
671.928	9.69
671.959	-0.31
671.99	-10.31
672.021	10.69
672.053	-9.31
672.084	12.69
672.115	8.69
672.146	-6.31
672.178	-9.31
672.209	-15.31
672.24	-3.31
672.271	30.69
672.303	-2.31
672.334	-12.31
672.365	2.69
672.396	-2.31
672.427	0.69
672.459	5.69
672.49	25.69
672.521	2.69
672.552	1.69
672.583	13.69
672.615	7.69
672.646	7.69
672.677	-2.31
672.708	-5.31
672.739	1.69
672.77	2.69
672.802	-9.31
672.833	-1.31
672.864	9.69
672.895	-3.31
672.926	-12.31
672.957	-4.31
672.989	0.69
673.02	1.69
673.051	8.69
673.082	0.69
673.113	-4.31
673.144	3.69
673.175	17.69
673.206	-11.31
673.238	1.69
673.269	-18.31
673.3	-19.31
673.331	4.69
673.362	9.69
673.393	-4.31
673.424	1.69
673.455	19.69
673.487	4.69
673.518	1.69
673.549	-17.31
673.58	-6.31
673.611	-7.31
673.642	-9.31
673.673	-10.31
673.704	-0.31
673.735	-16.31
673.766	0.69
673.797	-4.31
673.828	-13.31
673.86	-16.31
673.891	-3.31
673.922	-2.31
673.953	-8.31
673.984	0.69
674.015	8.69
674.046	-9.31
674.077	1.69
674.108	4.69
674.139	14.69
674.17	-0.31
674.201	-9.31
674.232	-19.31
674.263	-2.31
674.294	-10.31
674.325	-14.31
674.356	-6.31
674.387	9.69
674.418	8.69
674.449	-15.31
674.48	-2.31
674.511	-0.31
674.542	5.69
674.573	0.69
674.604	11.69
674.635	6.69
674.666	17.69
674.697	2.69
674.728	-1.31
674.759	-6.31
674.79	-7.31
674.821	6.69
674.852	-4.31
674.883	2.69
674.914	1.69
674.945	3.69
674.976	-4.31
675.007	-4.31
675.038	-16.31
675.069	-20.31
675.1	0.69
675.131	-2.31
675.162	-23.31
675.193	-18.31
675.224	-4.31
675.254	-9.31
675.285	2.69
675.316	3.69
675.347	-7.31
675.378	-0.31
675.409	-20.31
675.44	-5.31
675.471	-12.31
675.502	-0.31
675.533	-0.31
675.564	-8.31
675.595	0.69
675.625	10.69
675.656	4.69
675.687	-6.31
675.718	-16.31
675.749	4.69
675.78	-15.31
675.811	-20.31
675.842	5.69
675.873	6.69
675.903	2.69
675.934	-0.31
675.965	-10.31
675.996	-20.31
676.027	-1.31
676.058	3.69
676.089	-7.31
676.119	-1.31
676.15	-14.31
676.181	-7.31
676.212	-7.31
676.243	10.69
676.274	1.69
676.304	5.69
676.335	1.69
676.366	1.69
676.397	-12.31
676.428	-22.31
676.459	-2.31
676.489	-2.31
676.52	18.69
676.551	10.69
676.582	-1.31
676.613	-1.31
676.643	-4.31
676.674	11.69
676.705	-7.31
676.736	-8.31
676.767	21.69
676.797	3.69
676.828	4.69
676.859	-1.31
676.89	-0.31
676.92	8.69
676.951	9.69
676.982	-3.31
677.013	-2.31
677.044	3.69
677.074	24.69
677.105	-5.31
677.136	1.69
677.167	1.69
677.197	0.69
677.228	-8.31
677.259	-18.31
677.289	12.69
677.32	-11.31
677.351	-23.31
677.382	0.69
677.412	-2.31
677.443	5.69
677.474	-6.31
677.505	-15.31
677.535	-1.31
677.566	-8.31
677.597	-12.31
677.627	-25.31
677.658	-8.31
677.689	-0.31
677.72	-1.31
677.75	1.69
677.781	-7.31
677.812	-11.31
677.842	13.69
677.873	7.69
677.904	-12.31
677.934	-0.31
677.965	4.69
677.996	-15.31
678.026	-0.31
678.057	0.69
678.088	-5.31
678.118	-4.31
678.149	-6.31
678.18	4.69
678.21	1.69
678.241	0.69
678.272	2.69
678.302	2.69
678.333	10.69
678.363	10.69
678.394	12.69
678.425	0.69
678.455	-1.31
678.486	2.69
678.517	-2.31
678.547	3.69
678.578	-0.31
678.608	-4.31
678.639	-3.31
678.67	-4.31
678.7	-7.31
678.731	11.69
678.761	-3.31
678.792	-14.31
678.823	1.69
678.853	-7.31
678.884	-25.31
678.914	-5.31
678.945	2.69
678.975	-18.31
679.006	11.69
679.037	-8.31
679.067	12.69
679.098	-8.31
679.128	-3.31
679.159	0.69
679.189	4.69
679.22	-2.31
679.25	-1.31
679.281	-2.31
679.312	-14.31
679.342	-0.31
679.373	26.69
679.403	11.69
679.434	11.69
679.464	-16.31
679.495	-13.31
679.525	0.69
679.556	3.69
679.586	0.69
679.617	-5.31
679.647	-13.31
679.678	6.69
679.708	2.69
679.739	0.69
679.769	-2.31
679.8	-4.31
679.83	3.69
679.861	12.69
679.891	-7.31
679.922	-14.31
679.952	8.69
679.983	8.69
680.013	4.69
680.044	-7.31
680.074	17.69
680.105	15.69
680.135	-3.31
680.165	-3.31
680.196	6.69
680.226	4.69
680.257	7.69
680.287	-16.31
680.318	-11.31
680.348	-21.31
680.379	-2.31
680.409	14.69
680.439	-9.31
680.47	-11.31
680.5	-9.31
680.531	6.69
680.561	7.69
680.592	-11.31
680.622	4.69
680.652	1.69
680.683	8.69
680.713	3.69
680.744	-7.31
680.774	-2.31
680.804	6.69
680.835	-6.31
680.865	-26.31
680.896	24.69
680.926	17.69
680.956	-4.31
680.987	8.69
681.017	-11.31
681.047	3.69
681.078	-1.31
681.108	-0.31
681.139	20.69
681.169	11.69
681.199	-7.31
681.23	9.69
681.26	-2.31
681.29	2.69
681.321	-9.31
681.351	-4.31
681.381	-9.31
681.412	-6.31
681.442	-3.31
681.472	7.69
681.503	2.69
681.533	-0.31
681.563	5.69
681.594	10.69
681.624	7.69
681.654	-6.31
681.685	-16.31
681.715	-0.31
681.745	2.69
681.775	-1.31
681.806	-3.31
681.836	0.69
681.866	4.69
681.897	6.69
681.927	-1.31
681.957	-12.31
681.987	-11.31
682.018	-9.31
682.048	-10.31
682.078	-5.31
682.109	5.69
682.139	6.69
682.169	7.69
682.199	-4.31
682.23	-20.31
682.26	9.69
682.29	-3.31
682.32	-2.31
682.351	-9.31
682.381	-0.31
682.411	-5.31
682.441	-21.31
682.472	-17.31
682.502	2.69
682.532	-5.31
682.562	8.69
682.592	14.69
682.623	-4.31
682.653	10.69
682.683	-3.31
682.713	3.69
682.743	-2.31
682.774	-13.31
682.804	-3.31
682.834	3.69
682.864	1.69
682.894	-4.31
682.925	-12.31
682.955	-12.31
682.985	-16.31
683.015	-1.31
683.045	15.69
683.076	-19.31
683.106	1.69
683.136	-1.31
683.166	-4.31
683.196	-1.31
683.226	4.69
683.257	-20.31
683.287	-14.31
683.317	4.69
683.347	-9.31
683.377	-9.31
683.407	12.69
683.437	-5.31
683.468	2.69
683.498	-7.31
683.528	0.69
683.558	-6.31
683.588	-4.31
683.618	-2.31
683.648	-5.31
683.678	-1.31
683.708	9.69
683.739	-1.31
683.769	1.69
683.799	-7.31
683.829	-4.31
683.859	-6.31
683.889	3.69
683.919	-12.31
683.949	-1.31
683.979	-11.31
684.009	-8.31
684.039	-2.31
684.07	-2.31
684.1	11.69
684.13	11.69
684.16	2.69
684.19	-12.31
684.22	-2.31
684.25	29.69
684.28	0.69
684.31	11.69
684.34	4.69
684.37	0.69
684.4	-3.31
684.43	7.69
684.46	-5.31
684.49	-0.31
684.52	-7.31
684.55	4.69
684.58	-0.31
684.61	3.69
684.64	17.69
684.67	5.69
684.7	-1.31
684.73	7.69
684.76	-7.31
684.79	9.69
684.82	-5.31
684.85	-6.31
684.88	0.69
684.91	-6.31
684.94	7.69
684.97	-16.31
685	-24.31
685.03	-9.31
685.06	-20.31
685.09	-10.31
685.12	9.69
685.15	-1.31
685.18	3.69
685.21	-14.31
685.24	9.69
685.27	10.69
685.3	-0.31
685.33	-2.31
685.36	-13.31
685.39	7.69
685.42	-2.31
685.45	-2.31
685.48	5.69
685.51	-23.31
685.54	7.69
685.569	9.69
685.599	0.69
685.629	4.69
685.659	-3.31
685.689	-16.31
685.719	-6.31
685.749	-9.31
685.779	7.69
685.809	11.69
685.839	-5.31
685.869	-0.31
685.898	10.69
685.928	-10.31
685.958	7.69
685.988	-0.31
686.018	-10.31
686.048	-5.31
686.078	15.69
686.108	21.69
686.137	-0.31
686.167	9.69
686.197	-26.31
686.227	13.69
686.257	20.69
686.287	9.69
686.317	12.69
686.346	2.69
686.376	-0.31
686.406	-8.31
686.436	5.69
686.466	-7.31
686.496	-2.31
686.525	5.69
686.555	-12.31
686.585	17.69
686.615	22.69
686.645	9.69
686.675	10.69
686.704	-6.31
686.734	4.69
686.764	-9.31
686.794	-10.31
686.824	-7.31
686.853	1.69
686.883	12.69
686.913	1.69
686.943	-1.31
686.973	-12.31
687.002	-8.31
687.032	-16.31
687.062	1.69
687.092	5.69
687.121	-11.31
687.151	8.69
687.181	-5.31
687.211	7.69
687.24	10.69
687.27	-4.31
687.3	4.69
687.33	3.69
687.359	-1.31
687.389	0.69
687.419	11.69
687.449	5.69
687.478	9.69
687.508	8.69
687.538	5.69
687.568	7.69
687.597	-11.31
687.627	-12.31
687.657	4.69
687.686	10.69
687.716	22.69
687.746	-27.31
687.776	-4.31
687.805	-3.31
687.835	-7.31
687.865	11.69
687.894	7.69
687.924	-16.31
687.954	5.69
687.983	6.69
688.013	3.69
688.043	9.69
688.072	2.69
688.102	7.69
688.132	4.69
688.161	-10.31
688.191	-5.31
688.221	26.69
688.25	-25.31
688.28	-10.31
688.31	5.69
688.339	12.69
688.369	-10.31
688.399	-6.31
688.428	-10.31
688.458	-12.31
688.488	-5.31
688.517	16.69
688.547	-6.31
688.576	26.69
688.606	-1.31
688.636	-12.31
688.665	-0.31
688.695	-1.31
688.725	8.69
688.754	7.69
688.784	7.69
688.813	12.69
688.843	-2.31
688.873	-1.31
688.902	-0.31
688.932	0.69
688.961	-0.31
688.991	12.69
689.02	5.69
689.05	-5.31
689.08	1.69
689.109	21.69
689.139	3.69
689.168	-4.31
689.198	-7.31
689.227	1.69
689.257	8.69
689.287	31.69
689.316	-11.31
689.346	-9.31
689.375	-19.31
689.405	4.69
689.434	-2.31
689.464	10.69
689.493	-1.31
689.523	-18.31
689.552	-5.31
689.582	-6.31
689.611	12.69
689.641	7.69
689.67	-5.31
689.7	-0.31
689.73	5.69
689.759	11.69
689.789	6.69
689.818	-3.31
689.848	-8.31
689.877	6.69
689.906	-10.31
689.936	-18.31
689.965	18.69
689.995	13.69
690.024	-3.31
690.054	-11.31
690.083	-3.31
690.113	2.69
690.142	-16.31
690.172	-8.31
690.201	12.69
690.231	-6.31
690.26	3.69
690.29	12.69
690.319	-1.31
690.348	0.69
690.378	7.69
690.407	-12.31
690.437	0.69
690.466	-3.31
690.496	-12.31
690.525	5.69
690.555	-0.31
690.584	-5.31
690.613	-9.31
690.643	-7.31
690.672	1.69
690.702	6.69
690.731	18.69
690.76	18.69
690.79	51.69
690.819	54.69
690.849	29.69
690.878	8.69
690.907	4.69
690.937	7.69
690.966	12.69
690.996	19.69
691.025	6.69
691.054	2.69
691.084	-1.31
691.113	-5.31
691.142	6.69
691.172	15.69
691.201	8.69
691.23	-1.31
691.26	19.69
691.289	-8.31
691.319	-1.31
691.348	10.69
691.377	13.69
691.407	9.69
691.436	16.69
691.465	3.69
691.495	-8.31
691.524	-13.31
691.553	-9.31
691.583	-4.31
691.612	16.69
691.641	-0.31
691.67	1.69
691.7	8.69
691.729	-4.31
691.758	-0.31
691.788	11.69
691.817	-1.31
691.846	1.69
691.876	11.69
691.905	17.69
691.934	3.69
691.963	9.69
691.993	-3.31
692.022	9.69
692.051	-2.31
692.081	4.69
692.11	16.69
692.139	3.69
692.168	11.69
692.198	-2.31
692.227	15.69
692.256	-4.31
692.285	7.69
692.315	-15.31
692.344	-7.31
692.373	-2.31
692.402	-25.31
692.432	-15.31
692.461	-8.31
692.49	9.69
692.519	3.69
692.548	12.69
692.578	4.69
692.607	4.69
692.636	-6.31
692.665	5.69
692.694	15.69
692.724	11.69
692.753	0.69
692.782	0.69
692.811	-6.31
692.84	-2.31
692.87	-16.31
692.899	3.69
692.928	5.69
692.957	-1.31
692.986	-4.31
693.016	-3.31
693.045	7.69
693.074	19.69
693.103	14.69
693.132	-5.31
693.161	6.69
693.191	4.69
693.22	-8.31
693.249	23.69
693.278	-2.31
693.307	22.69
693.336	-0.31
693.365	-14.31
693.395	-8.31
693.424	2.69
693.453	5.69
693.482	-3.31
693.511	3.69
693.54	-5.31
693.569	11.69
693.598	-5.31
693.628	7.69
693.657	7.69
693.686	14.69
693.715	9.69
693.744	6.69
693.773	19.69
693.802	13.69
693.831	3.69
693.86	2.69
693.889	-9.31
693.919	-14.31
693.948	-4.31
693.977	12.69
694.006	-2.31
694.035	4.69
694.064	-9.31
694.093	-8.31
694.122	-0.31
694.151	10.69
694.18	12.69
694.209	37.69
694.238	15.69
694.267	17.69
694.296	21.69
694.325	-3.31
694.354	14.69
694.383	11.69
694.412	6.69
694.441	2.69
694.471	-9.31
694.5	-20.31
694.529	4.69
694.558	19.69
694.587	28.69
694.616	-15.31
694.645	2.69
694.674	14.69
694.703	6.69
694.732	14.69
694.761	25.69
694.79	9.69
694.819	-4.31
694.848	-0.31
694.877	16.69
694.906	17.69
694.935	1.69
694.963	-1.31
694.992	-5.31
695.021	7.69
695.05	-5.31
695.079	11.69
695.108	-0.31
695.137	22.69
695.166	-7.31
695.195	-5.31
695.224	2.69
695.253	11.69
695.282	14.69
695.311	-4.31
695.34	-1.31
695.369	12.69
695.398	11.69
695.427	24.69
695.456	1.69
695.485	1.69
695.513	-1.31
695.542	-1.31
695.571	-5.31
695.6	9.69
695.629	-9.31
695.658	2.69
695.687	4.69
695.716	3.69
695.745	21.69
695.774	-4.31
695.802	-7.31
695.831	4.69
695.86	1.69
695.889	8.69
695.918	7.69
695.947	8.69
695.976	13.69
696.005	-0.31
696.033	6.69
696.062	13.69
696.091	5.69
696.12	6.69
696.149	1.69
696.178	-8.31
696.207	1.69
696.235	-15.31
696.264	4.69
696.293	10.69
696.322	8.69
696.351	2.69
696.38	-6.31
696.408	1.69
696.437	-7.31
696.466	0.69
696.495	20.69
696.524	8.69
696.553	7.69
696.581	3.69
696.61	7.69
696.639	-2.31
696.668	6.69
696.697	4.69
696.725	-5.31
696.754	7.69
696.783	-2.31
696.812	-3.31
696.84	10.69
696.869	13.69
696.898	-6.31
696.927	-7.31
696.956	26.69
696.984	-10.31
697.013	6.69
697.042	2.69
697.071	-10.31
697.099	22.69
697.128	25.69
697.157	-2.31
697.186	3.69
697.214	1.69
697.243	-3.31
697.272	2.69
697.301	15.69
697.329	10.69
697.358	4.69
697.387	9.69
697.415	10.69
697.444	10.69
697.473	-13.31
697.502	-8.31
697.53	2.69
697.559	-1.31
697.588	-4.31
697.616	7.69
697.645	6.69
697.674	17.69
697.703	8.69
697.731	19.69
697.76	4.69
697.789	-4.31
697.817	18.69
697.846	24.69
697.875	5.69
697.903	23.69
697.932	19.69
697.961	-9.31
697.989	17.69
698.018	7.69
698.047	-0.31
698.075	20.69
698.104	-9.31
698.133	-9.31
698.161	-21.31
698.19	-9.31
698.218	2.69
698.247	2.69
698.276	-2.31
698.304	11.69
698.333	15.69
698.362	5.69
698.39	1.69
698.419	10.69
698.447	1.69
698.476	-8.31
698.505	0.69
698.533	9.69
698.562	-0.31
698.591	-11.31
698.619	-10.31
698.648	12.69
698.676	9.69
698.705	-4.31
698.733	-10.31
698.762	9.69
698.791	6.69
698.819	-14.31
698.848	6.69
698.876	15.69
698.905	-4.31
698.933	16.69
698.962	-1.31
698.991	13.69
699.019	-3.31
699.048	-7.31
699.076	-6.31
699.105	-17.31
699.133	-1.31
699.162	5.69
699.19	11.69
699.219	19.69
699.248	5.69
699.276	1.69
699.305	0.69
699.333	2.69
699.362	8.69
699.39	4.69
699.419	5.69
699.447	3.69
699.476	8.69
699.504	6.69
699.533	-0.31
699.561	-9.31
699.59	-0.31
699.618	3.69
699.647	9.69
699.675	-3.31
699.704	4.69
699.732	7.69
699.761	3.69
699.789	-2.31
699.818	9.69
699.846	-0.31
699.874	-8.31
699.903	0.69
699.931	-4.31
699.96	2.69
699.988	-9.31
700.017	-4.31
700.045	11.69
700.074	-8.31
700.102	-0.31
700.13	-3.31
700.159	0.69
700.187	-0.31
700.216	9.69
700.244	-3.31
700.273	-8.31
700.301	1.69
700.329	6.69
700.358	6.69
700.386	-3.31
700.415	9.69
700.443	5.69
700.472	-2.31
700.5	-12.31
700.528	-0.31
700.557	7.69
700.585	7.69
700.614	-2.31
700.642	14.69
700.67	20.69
700.699	16.69
700.727	-4.31
700.755	-1.31
700.784	-0.31
700.812	-10.31
700.841	3.69
700.869	4.69
700.897	-6.31
700.926	8.69
700.954	7.69
700.982	8.69
701.011	-3.31
701.039	8.69
701.067	-17.31
701.096	11.69
701.124	-14.31
701.152	-11.31
701.181	-2.31
701.209	-8.31
701.237	-0.31
701.266	1.69
701.294	0.69
701.322	-8.31
701.351	-9.31
701.379	-11.31
701.407	-10.31
701.435	8.69
701.464	25.69
701.492	27.69
701.52	-6.31
701.549	9.69
701.577	-4.31
701.605	-3.31
701.634	4.69
701.662	13.69
701.69	-15.31
701.718	-25.31
701.747	8.69
701.775	10.69
701.803	-4.31
701.831	-4.31
701.86	-7.31
701.888	0.69
701.916	0.69
701.944	-10.31
701.973	-12.31
702.001	-3.31
702.029	-5.31
702.057	-3.31
702.086	-7.31
702.114	-14.31
702.142	-0.31
702.17	-18.31
702.199	-8.31
702.227	-6.31
702.255	-4.31
702.283	-0.31
702.311	13.69
702.34	-9.31
702.368	-15.31
702.396	-7.31
702.424	15.69
702.452	-1.31
702.481	-12.31
702.509	-10.31
702.537	8.69
702.565	-1.31
702.593	-4.31
702.621	-5.31
702.65	17.69
702.678	-4.31
702.706	3.69
702.734	-2.31
702.762	-7.31
702.79	2.69
702.819	-2.31
702.847	4.69
702.875	-1.31
702.903	0.69
702.931	-11.31
702.959	-4.31
702.988	7.69
703.016	6.69
703.044	7.69
703.072	-6.31
703.1	-3.31
703.128	4.69
703.156	-2.31
703.184	1.69
703.212	14.69
703.241	16.69
703.269	15.69
703.297	6.69
703.325	2.69
703.353	2.69
703.381	-18.31
703.409	-1.31
703.437	-15.31
703.465	-4.31
703.493	-9.31
703.522	4.69
703.55	10.69
703.578	21.69
703.606	6.69
703.634	5.69
703.662	-0.31
703.69	-18.31
703.718	-13.31
703.746	8.69
703.774	24.69
703.802	12.69
703.83	5.69
703.858	-5.31
703.886	-17.31
703.914	-9.31
703.942	7.69
703.97	-1.31
703.998	-10.31
704.027	2.69
704.055	15.69
704.083	-0.31
704.111	-11.31
704.139	-5.31
704.167	-6.31
704.195	-9.31
704.223	-10.31
704.251	-5.31
704.279	-17.31
704.307	-10.31
704.335	-3.31
704.363	6.69
704.391	-11.31
704.419	-0.31
704.447	6.69
704.475	-9.31
704.503	3.69
704.531	33.69
704.558	13.69
704.586	-11.31
704.614	7.69
704.642	-13.31
704.67	-8.31
704.698	-3.31
704.726	18.69
704.754	8.69
704.782	-4.31
704.81	18.69
704.838	5.69
704.866	7.69
704.894	-5.31
704.922	-4.31
704.95	8.69
704.978	3.69
705.006	2.69
705.034	14.69
705.061	0.69
705.089	-6.31
705.117	-11.31
705.145	-7.31
705.173	-4.31
705.201	11.69
705.229	4.69
705.257	-7.31
705.285	4.69
705.313	3.69
705.34	-2.31
705.368	-5.31
705.396	5.69
705.424	0.69
705.452	-10.31
705.48	-3.31
705.508	-9.31
705.536	2.69
705.563	-7.31
705.591	3.69
705.619	2.69
705.647	-8.31
705.675	2.69
705.703	-2.31
705.731	-2.31
705.758	11.69
705.786	18.69
705.814	12.69
705.842	-9.31
705.87	2.69
705.898	-1.31
705.925	-18.31
705.953	11.69
705.981	-3.31
706.009	0.69
706.037	-3.31
706.065	6.69
706.092	-6.31
706.12	-7.31
706.148	-3.31
706.176	-7.31
706.204	7.69
706.231	5.69
706.259	-5.31
706.287	11.69
706.315	12.69
706.342	-10.31
706.37	1.69
706.398	-7.31
706.426	-12.31
706.454	5.69
706.481	-3.31
706.509	3.69
706.537	-12.31
706.565	-12.31
706.592	2.69
706.62	-12.31
706.648	-11.31
706.676	-10.31
706.703	0.69
706.731	-5.31
706.759	-0.31
706.787	17.69
706.814	13.69
706.842	12.69
706.87	-2.31
706.897	-4.31
706.925	-1.31
706.953	4.69
706.981	6.69
707.008	12.69
707.036	11.69
707.064	3.69
707.091	-19.31
707.119	-0.31
707.147	-0.31
707.174	-9.31
707.202	-3.31
707.23	4.69
707.258	13.69
707.285	-11.31
707.313	-3.31
707.341	-7.31
707.368	-2.31
707.396	3.69
707.424	-1.31
707.451	9.69
707.479	14.69
707.507	2.69
707.534	-1.31
707.562	-5.31
707.59	-2.31
707.617	-7.31
707.645	-5.31
707.672	-21.31
707.7	-4.31
707.728	0.69
707.755	-4.31
707.783	-3.31
707.811	5.69
707.838	4.69
707.866	-6.31
707.893	3.69
707.921	-4.31
707.949	-7.31
707.976	-2.31
708.004	0.69
708.031	-3.31
708.059	-3.31
708.087	1.69
708.114	5.69
708.142	-0.31
708.169	-1.31
708.197	-14.31
708.225	1.69
708.252	5.69
708.28	20.69
708.307	5.69
708.335	8.69
708.362	-5.31
708.39	-10.31
708.418	-9.31
708.445	4.69
708.473	-11.31
708.5	-7.31
708.528	8.69
708.555	-8.31
708.583	-1.31
708.61	3.69
708.638	8.69
708.665	-7.31
708.693	9.69
708.72	-1.31
708.748	-19.31
708.776	-2.31
708.803	19.69
708.831	-4.31
708.858	14.69
708.886	-1.31
708.913	-0.31
708.941	-10.31
708.968	23.69
708.996	2.69
709.023	28.69
709.051	-5.31
709.078	-8.31
709.105	5.69
709.133	12.69
709.16	-9.31
709.188	0.69
709.215	15.69
709.243	-0.31
709.27	-8.31
709.298	0.69
709.325	-15.31
709.353	-9.31
709.38	2.69
709.408	15.69
709.435	3.69
709.462	8.69
709.49	-0.31
709.517	-2.31
709.545	-1.31
709.572	-6.31
709.6	-7.31
709.627	-13.31
709.655	-2.31
709.682	-4.31
709.709	-7.31
709.737	0.69
709.764	-13.31
709.792	7.69
709.819	10.69
709.846	-8.31
709.874	-3.31
709.901	14.69
709.929	22.69
709.956	-4.31
709.983	-3.31
710.011	-1.31
710.038	-5.31
710.066	-4.31
710.093	4.69
710.12	7.69
710.148	-9.31
710.175	-14.31
710.202	-5.31
710.23	4.69
710.257	11.69
710.284	2.69
710.312	-0.31
710.339	-10.31
710.366	-1.31
710.394	-6.31
710.421	-1.31
710.448	17.69
710.476	-11.31
710.503	0.69
710.53	14.69
710.558	8.69
710.585	7.69
710.612	-13.31
710.64	-13.31
710.667	-8.31
710.694	-17.31
710.722	-3.31
710.749	-6.31
710.776	-7.31
710.804	16.69
710.831	-4.31
710.858	-10.31
710.885	-12.31
710.913	4.69
710.94	12.69
710.967	6.69
710.995	-5.31
711.022	19.69
711.049	3.69
711.076	-4.31
711.104	-4.31
711.131	-10.31
711.158	10.69
711.185	7.69
711.213	9.69
711.24	17.69
711.267	-1.31
711.294	-17.31
711.322	-7.31
711.349	-3.31
711.376	-5.31
711.403	5.69
711.431	-10.31
711.458	-7.31
711.485	-5.31
711.512	1.69
711.54	-1.31
711.567	6.69
711.594	-4.31
711.621	-19.31
711.648	6.69
711.676	6.69
711.703	9.69
711.73	-16.31
711.757	-0.31
711.784	-5.31
711.812	-1.31
711.839	-11.31
711.866	1.69
711.893	-2.31
711.92	13.69
711.947	8.69
711.975	8.69
712.002	-3.31
712.029	-11.31
712.056	-7.31
712.083	-12.31
712.11	-16.31
712.138	-3.31
712.165	-10.31
712.192	-17.31
712.219	-8.31
712.246	-8.31
712.273	-5.31
712.3	-10.31
712.328	-0.31
712.355	5.69
712.382	9.69
712.409	7.69
712.436	-3.31
712.463	8.69
712.49	17.69
712.517	-2.31
712.544	-9.31
712.572	4.69
712.599	-15.31
712.626	6.69
712.653	-8.31
712.68	-17.31
712.707	14.69
712.734	2.69
712.761	-4.31
712.788	5.69
712.815	-4.31
712.842	9.69
712.87	6.69
712.897	-9.31
712.924	-7.31
712.951	1.69
712.978	12.69
713.005	9.69
713.032	-4.31
713.059	2.69
713.086	-4.31
713.113	0.69
713.14	3.69
713.167	8.69
713.194	14.69
713.221	3.69
713.248	12.69
713.275	-15.31
713.302	-11.31
713.329	5.69
713.356	16.69
713.383	-6.31
713.41	-12.31
713.437	-10.31
713.464	-13.31
713.491	14.69
713.518	-5.31
713.545	-7.31
713.572	-6.31
713.599	17.69
713.626	0.69
713.653	2.69
713.68	-3.31
713.707	-1.31
713.734	-1.31
713.761	-11.31
713.788	-17.31
713.815	14.69
713.842	-1.31
713.869	2.69
713.896	-5.31
713.923	1.69
713.95	-2.31
713.977	-17.31
714.004	1.69
714.031	-1.31
714.058	-22.31
714.085	-24.31
714.112	19.69
714.139	15.69
714.165	10.69
714.192	-3.31
714.219	3.69
714.246	9.69
714.273	-8.31
714.3	-2.31
714.327	6.69
714.354	11.69
714.381	-3.31
714.408	-6.31
714.435	-7.31
714.461	-4.31
714.488	3.69
714.515	6.69
714.542	-4.31
714.569	0.69
714.596	-15.31
714.623	6.69
714.65	-22.31
714.677	-6.31
714.703	12.69
714.73	4.69
714.757	-7.31
714.784	9.69
714.811	-5.31
714.838	-0.31
714.865	-4.31
714.891	18.69
714.918	6.69
714.945	-16.31
714.972	7.69
714.999	19.69
715.026	-9.31
715.052	-11.31
715.079	-0.31
715.106	-1.31
715.133	-3.31
715.16	-12.31
715.187	10.69
715.213	3.69
715.24	-12.31
715.267	5.69
715.294	-12.31
715.321	0.69
715.347	-20.31
715.374	-16.31
715.401	-6.31
715.428	3.69
715.455	5.69
715.481	-8.31
715.508	-7.31
715.535	-8.31
715.562	23.69
715.588	4.69
715.615	-5.31
715.642	-9.31
715.669	2.69
715.695	-11.31
715.722	-0.31
715.749	5.69
715.776	13.69
715.802	18.69
715.829	12.69
715.856	-3.31
715.883	13.69
715.909	-5.31
715.936	-9.31
715.963	-3.31
715.99	-5.31
716.016	16.69
716.043	3.69
716.07	-9.31
716.096	-0.31
716.123	6.69
716.15	0.69
716.177	12.69
716.203	3.69
716.23	5.69
716.257	11.69
716.283	13.69
716.31	11.69
716.337	-6.31
716.363	-12.31
716.39	-1.31
716.417	0.69
716.443	14.69
716.47	-2.31
716.497	18.69
716.523	7.69
716.55	16.69
716.577	-0.31
716.603	-24.31
716.63	-3.31
716.657	11.69
716.683	-2.31
716.71	-8.31
716.737	-4.31
716.763	9.69
716.79	0.69
716.817	5.69
716.843	-0.31
716.87	-10.31
716.897	-4.31
716.923	7.69
716.95	10.69
716.976	-1.31
717.003	-11.31
717.03	-12.31
717.056	-13.31
717.083	-7.31
717.109	-8.31
717.136	-0.31
717.163	-5.31
717.189	3.69
717.216	6.69
717.242	3.69
717.269	6.69
717.296	-1.31
717.322	4.69
717.349	19.69
717.375	3.69
717.402	14.69
717.428	2.69
717.455	1.69
717.481	-3.31
717.508	14.69
717.535	9.69
717.561	11.69
717.588	-12.31
717.614	6.69
717.641	-5.31
717.667	8.69
717.694	2.69
717.72	-1.31
717.747	4.69
717.773	-4.31
717.8	15.69
717.826	-0.31
717.853	9.69
717.88	7.69
717.906	-7.31
717.933	1.69
717.959	9.69
717.986	11.69
718.012	-5.31
718.039	8.69
718.065	0.69
718.092	-11.31
718.118	3.69
718.144	-1.31
718.171	-2.31
718.197	21.69
718.224	-0.31
718.25	-8.31
718.277	-1.31
718.303	-5.31
718.33	-4.31
718.356	-4.31
718.383	-8.31
718.409	-0.31
718.436	1.69
718.462	-13.31
718.489	-8.31
718.515	-13.31
718.541	20.69
718.568	28.69
718.594	6.69
718.621	5.69
718.647	-4.31
718.674	-2.31
718.7	1.69
718.726	-8.31
718.753	1.69
718.779	10.69
718.806	-9.31
718.832	-3.31
718.858	-5.31
718.885	-5.31
718.911	-10.31
718.938	17.69
718.964	-10.31
718.99	-6.31
719.017	-0.31
719.043	10.69
719.07	12.69
719.096	-4.31
719.122	10.69
719.149	7.69
719.175	2.69
719.201	5.69
719.228	9.69
719.254	0.69
719.281	-5.31
719.307	-11.31
719.333	1.69
719.36	15.69
719.386	-12.31
719.412	-3.31
719.439	-2.31
719.465	14.69
719.491	-15.31
719.518	-5.31
719.544	-4.31
719.57	-1.31
719.597	-7.31
719.623	1.69
719.649	3.69
719.675	-0.31
719.702	2.69
719.728	-5.31
719.754	-16.31
719.781	-9.31
719.807	-3.31
719.833	-2.31
719.86	-7.31
719.886	-5.31
719.912	0.69
719.938	-9.31
719.965	3.69
719.991	19.69
720.017	13.69
720.044	-13.31
720.07	-3.31
720.096	1.69
720.122	-4.31
720.149	0.69
720.175	15.69
720.201	-4.31
720.227	-15.31
720.254	-14.31
720.28	-6.31
720.306	-2.31
720.332	-4.31
720.359	7.69
720.385	7.69
720.411	6.69
720.437	-7.31
720.463	-11.31
720.49	7.69
720.516	-3.31
720.542	-32.31
720.568	-8.31
720.595	15.69
720.621	2.69
720.647	-2.31
720.673	-0.31
720.699	-8.31
720.725	-5.31
720.752	-7.31
720.778	3.69
720.804	7.69
720.83	4.69
720.856	4.69
720.883	-1.31
720.909	-17.31
720.935	2.69
720.961	-4.31
720.987	-3.31
721.013	-0.31
721.04	-15.31
721.066	-0.31
721.092	-2.31
721.118	-4.31
721.144	-5.31
721.17	-5.31
721.196	1.69
721.223	-8.31
721.249	-9.31
721.275	19.69
721.301	-5.31
721.327	4.69
721.353	-1.31
721.379	-10.31
721.405	0.69
721.432	15.69
721.458	-0.31
721.484	5.69
721.51	-16.31
721.536	0.69
721.562	-4.31
721.588	5.69
721.614	-6.31
721.64	-4.31
721.666	-1.31
721.693	-4.31
721.719	-12.31
721.745	-13.31
721.771	-7.31
721.797	2.69
721.823	2.69
721.849	3.69
721.875	14.69
721.901	4.69
721.927	-10.31
721.953	-0.31
721.979	23.69
722.005	-0.31
722.031	-4.31
722.057	6.69
722.083	-1.31
722.109	-6.31
722.135	5.69
722.161	12.69
722.187	5.69
722.214	-12.31
722.24	-6.31
722.266	2.69
722.292	2.69
722.318	13.69
722.344	-5.31
722.37	15.69
722.396	1.69
722.422	1.69
722.448	8.69
722.474	-15.31
722.5	24.69
722.526	6.69
722.552	0.69
722.578	1.69
722.603	-2.31
722.629	-5.31
722.655	-0.31
722.681	-17.31
722.707	5.69
722.733	-13.31
722.759	-8.31
722.785	-3.31
722.811	9.69
722.837	1.69
722.863	1.69
722.889	3.69
722.915	-9.31
722.941	11.69
722.967	3.69
722.993	1.69
723.019	-5.31
723.045	6.69
723.071	5.69
723.097	-4.31
723.122	2.69
723.148	-13.31
723.174	-9.31
723.2	0.69
723.226	-4.31
723.252	-5.31
723.278	-8.31
723.304	-5.31
723.33	-1.31
723.356	-15.31
723.381	-9.31
723.407	-10.31
723.433	13.69
723.459	-5.31
723.485	4.69
723.511	-2.31
723.537	-1.31
723.563	-3.31
723.588	2.69
723.614	6.69
723.64	-7.31
723.666	-4.31
723.692	7.69
723.718	3.69
723.744	4.69
723.769	-8.31
723.795	-11.31
723.821	17.69
723.847	-9.31
723.873	-0.31
723.899	0.69
723.924	-6.31
723.95	-4.31
723.976	-11.31
724.002	-4.31
724.028	7.69
724.053	-11.31
724.079	-10.31
724.105	-5.31
724.131	-18.31
724.157	-9.31
724.182	-1.31
724.208	-10.31
724.234	-7.31
724.26	-2.31
724.286	7.69
724.311	-1.31
724.337	-10.31
724.363	-4.31
724.389	9.69
724.415	7.69
724.44	21.69
724.466	2.69
724.492	-5.31
724.518	-1.31
724.543	-12.31
724.569	-3.31
724.595	23.69
724.621	7.69
724.646	-10.31
724.672	-7.31
724.698	-9.31
724.723	-9.31
724.749	1.69
724.775	3.69
724.801	1.69
724.826	-28.31
724.852	-9.31
724.878	-14.31
724.904	-25.31
724.929	-4.31
724.955	-1.31
724.981	4.69
725.006	2.69
725.032	3.69
725.058	2.69
725.083	-1.31
725.109	-13.31
725.135	-8.31
725.161	0.69
725.186	7.69
725.212	-13.31
725.238	2.69
725.263	-4.31
725.289	-21.31
725.315	-16.31
725.34	-10.31
725.366	-4.31
725.392	5.69
725.417	0.69
725.443	-11.31
725.468	7.69
725.494	3.69
725.52	9.69
725.545	-2.31
725.571	-5.31
725.597	-0.31
725.622	-5.31
725.648	-2.31
725.674	15.69
725.699	-5.31
725.725	0.69
725.75	26.69
725.776	6.69
725.802	-5.31
725.827	5.69
725.853	-2.31
725.878	-7.31
725.904	6.69
725.93	-8.31
725.955	0.69
725.981	-13.31
726.006	-10.31
726.032	5.69
726.057	-17.31
726.083	-13.31
726.109	3.69
726.134	9.69
726.16	-6.31
726.185	-29.31
726.211	-12.31
726.236	-9.31
726.262	-5.31
726.288	11.69
726.313	5.69
726.339	1.69
726.364	4.69
726.39	-0.31
726.415	-14.31
726.441	-16.31
726.466	-11.31
726.492	5.69
726.517	6.69
726.543	0.69
726.568	-16.31
726.594	-20.31
726.619	-7.31
726.645	12.69
726.67	5.69
726.696	5.69
726.721	-12.31
726.747	0.69
726.772	6.69
726.798	-0.31
726.823	9.69
726.849	-5.31
726.874	7.69
726.9	15.69
726.925	14.69
726.951	-6.31
726.976	0.69
727.002	-1.31
727.027	1.69
727.053	-4.31
727.078	1.69
727.104	0.69
727.129	-20.31
727.155	4.69
727.18	-0.31
727.205	3.69
727.231	4.69
727.256	0.69
727.282	-9.31
727.307	-2.31
727.333	2.69
727.358	-10.31
727.383	2.69
727.409	-14.31
727.434	3.69
727.46	5.69
727.485	-2.31
727.511	12.69
727.536	-10.31
727.561	6.69
727.587	-6.31
727.612	-14.31
727.637	1.69
727.663	-9.31
727.688	15.69
727.714	-5.31
727.739	3.69
727.764	-8.31
727.79	4.69
727.815	2.69
727.841	-2.31
727.866	12.69
727.891	-11.31
727.917	-17.31
727.942	-15.31
727.967	-10.31
727.993	-26.31
728.018	-5.31
728.043	19.69
728.069	-2.31
728.094	3.69
728.119	-4.31
728.145	2.69
728.17	15.69
728.195	18.69
728.221	10.69
728.246	-7.31
728.271	-4.31
728.297	15.69
728.322	-4.31
728.347	6.69
728.373	12.69
728.398	-2.31
728.423	-8.31
728.448	-1.31
728.474	5.69
728.499	4.69
728.524	1.69
728.55	-8.31
728.575	-7.31
728.6	2.69
728.625	-1.31
728.651	-1.31
728.676	-21.31
728.701	-11.31
728.727	-7.31
728.752	-0.31
728.777	-12.31
728.802	0.69
728.828	-0.31
728.853	4.69
728.878	2.69
728.903	-16.31
728.929	1.69
728.954	0.69
728.979	1.69
729.004	-9.31
729.03	-6.31
729.055	3.69
729.08	-21.31
729.105	-17.31
729.13	2.69
729.156	1.69
729.181	-1.31
729.206	-8.31
729.231	-9.31
729.256	-0.31
729.282	4.69
729.307	-16.31
729.332	-18.31
729.357	2.69
729.382	10.69
729.408	-5.31
729.433	-7.31
729.458	3.69
729.483	-11.31
729.508	6.69
729.533	19.69
729.559	-2.31
729.584	-2.31
729.609	0.69
729.634	5.69
729.659	-17.31
729.684	-9.31
729.71	13.69
729.735	2.69
729.76	4.69
729.785	-1.31
729.81	17.69
729.835	-3.31
729.86	2.69
729.886	7.69
729.911	13.69
729.936	3.69
729.961	22.69
729.986	14.69
730.011	59.69
730.036	192.69
730.061	1044.69
730.086	2778.69
730.112	3454.69
730.137	2859.69
730.162	2175.69
730.187	1695.69
730.212	1291.69
730.237	787.69
730.262	448.69
730.287	224.69
730.312	144.69
730.337	78.69
730.362	64.69
730.387	27.69
730.413	20.69
730.438	2.69
730.463	21.69
730.488	12.69
730.513	10.69
730.538	12.69
730.563	15.69
730.588	23.69
730.613	13.69
730.638	8.69
730.663	13.69
730.688	19.69
730.713	9.69
730.738	7.69
730.763	-1.31
730.788	-4.31
730.813	7.69
730.838	1.69
730.863	0.69
730.888	-3.31
730.913	-4.31
730.938	-12.31
730.963	15.69
730.988	111.69
731.013	428.69
731.038	625.69
731.063	587.69
731.088	477.69
731.113	337.69
731.138	274.69
731.163	197.69
731.188	98.69
731.213	63.69
731.238	53.69
731.263	10.69
731.288	17.69
731.313	10.69
731.338	19.69
731.363	-1.31
731.388	4.69
731.413	-5.31
731.438	6.69
731.463	27.69
731.487	21.69
731.512	-0.31
731.537	-4.31
731.562	-3.31
731.587	-6.31
731.612	-9.31
731.637	-1.31
731.662	-8.31
731.687	-2.31
731.712	-11.31
731.737	-0.31
731.762	-2.31
731.786	-1.31
731.811	-1.31
731.836	0.69
731.861	6.69
731.886	-7.31
731.911	6.69
731.936	11.69
731.961	-10.31
731.986	1.69
732.01	-11.31
732.035	2.69
732.06	14.69
732.085	0.69
732.11	1.69
732.135	-5.31
732.16	-9.31
732.184	-0.31
732.209	-0.31
732.234	4.69
732.259	-9.31
732.284	5.69
732.309	-15.31
732.334	-10.31
732.358	-19.31
732.383	-1.31
732.408	-13.31
732.433	2.69
732.458	7.69
732.482	8.69
732.507	-18.31
732.532	3.69
732.557	16.69
732.582	15.69
732.607	16.69
732.631	46.69
732.656	98.69
732.681	158.69
732.706	318.69
732.73	467.69
732.755	412.69
732.78	300.69
732.805	230.69
732.83	162.69
732.854	125.69
732.879	88.69
732.904	30.69
732.929	27.69
732.953	11.69
732.978	2.69
733.003	-8.31
733.028	-8.31
733.052	14.69
733.077	4.69
733.102	16.69
733.127	-5.31
733.151	14.69
733.176	16.69
733.201	-8.31
733.226	-9.31
733.25	-11.31
733.275	-7.31
733.3	-5.31
733.324	20.69
733.349	24.69
733.374	22.69
733.399	-10.31
733.423	-5.31
733.448	9.69
733.473	-8.31
733.497	-1.31
733.522	-7.31
733.547	23.69
733.571	7.69
733.596	13.69
733.621	-4.31
733.646	5.69
733.67	-1.31
733.695	-16.31
733.72	6.69
733.744	-7.31
733.769	0.69
733.794	0.69
733.818	-3.31
733.843	-1.31
733.867	-13.31
733.892	-8.31
733.917	4.69
733.941	-18.31
733.966	-5.31
733.991	-10.31
734.015	10.69
734.04	11.69
734.065	-0.31
734.089	2.69
734.114	-5.31
734.138	0.69
734.163	-3.31
734.188	10.69
734.212	7.69
734.237	11.69
734.261	4.69
734.286	-4.31
734.311	-0.31
734.335	-7.31
734.36	-17.31
734.384	1.69
734.409	-2.31
734.434	-7.31
734.458	0.69
734.483	-7.31
734.507	-11.31
734.532	-1.31
734.556	-2.31
734.581	4.69
734.606	1.69
734.63	-23.31
734.655	-5.31
734.679	8.69
734.704	3.69
734.728	9.69
734.753	-2.31
734.777	8.69
734.802	-11.31
734.826	4.69
734.851	18.69
734.876	19.69
734.9	10.69
734.925	14.69
734.949	6.69
734.974	5.69
734.998	8.69
735.023	-10.31
735.047	-11.31
735.072	9.69
735.096	1.69
735.121	-1.31
735.145	-5.31
735.17	-9.31
735.194	10.69
735.219	-13.31
735.243	10.69
735.268	5.69
735.292	4.69
735.317	-1.31
735.341	11.69
735.365	-12.31
735.39	6.69
735.414	8.69
735.439	3.69
735.463	-4.31
735.488	-13.31
735.512	3.69
735.537	2.69
735.561	-14.31
735.586	-5.31
735.61	11.69
735.634	-11.31
735.659	1.69
735.683	19.69
735.708	-8.31
735.732	-11.31
735.757	-2.31
735.781	1.69
735.805	6.69
735.83	-13.31
735.854	-11.31
735.879	-7.31
735.903	15.69
735.927	16.69
735.952	7.69
735.976	-11.31
736.001	10.69
736.025	20.69
736.049	-1.31
736.074	-8.31
736.098	-3.31
736.123	6.69
736.147	-9.31
736.171	-3.31
736.196	13.69
736.22	-9.31
736.244	-10.31
736.269	17.69
736.293	6.69
736.317	-2.31
736.342	12.69
736.366	4.69
736.39	5.69
736.415	-1.31
736.439	-7.31
736.463	9.69
736.488	15.69
736.512	-4.31
736.536	-1.31
736.561	23.69
736.585	-1.31
736.609	6.69
736.634	-15.31
736.658	-10.31
736.682	-10.31
736.707	-7.31
736.731	-10.31
736.755	0.69
736.78	4.69
736.804	26.69
736.828	4.69
736.852	-6.31
736.877	3.69
736.901	4.69
736.925	14.69
736.949	12.69
736.974	-4.31
736.998	-18.31
737.022	4.69
737.047	-1.31
737.071	-11.31
737.095	14.69
737.119	29.69
737.144	11.69
737.168	-8.31
737.192	-5.31
737.216	2.69
737.241	-17.31
737.265	2.69
737.289	3.69
737.313	0.69
737.337	-4.31
737.362	-0.31
737.386	-9.31
737.41	-1.31
737.434	3.69
737.459	12.69
737.483	0.69
737.507	14.69
737.531	11.69
737.555	-5.31
737.58	11.69
737.604	7.69
737.628	-15.31
737.652	-3.31
737.676	-1.31
737.701	5.69
737.725	10.69
737.749	0.69
737.773	3.69
737.797	-10.31
737.821	-4.31
737.846	6.69
737.87	35.69
737.894	-0.31
737.918	-5.31
737.942	-18.31
737.966	8.69
737.99	7.69
738.015	5.69
738.039	0.69
738.063	6.69
738.087	5.69
738.111	-10.31
738.135	7.69
738.159	1.69
738.184	3.69
738.208	10.69
738.232	5.69
738.256	18.69
738.28	1.69
738.304	4.69
738.328	-12.31
738.352	-10.31
738.376	6.69
738.4	0.69
738.425	-1.31
738.449	-14.31
738.473	22.69
738.497	4.69
738.521	11.69
738.545	-1.31
738.569	8.69
738.593	18.69
738.617	2.69
738.641	-4.31
738.665	7.69
738.689	5.69
738.713	-8.31
738.737	0.69
738.762	36.69
738.786	11.69
738.81	-15.31
738.834	7.69
738.858	-14.31
738.882	6.69
738.906	-3.31
738.93	6.69
738.954	11.69
738.978	10.69
739.002	3.69
739.026	-3.31
739.05	-5.31
739.074	-4.31
739.098	10.69
739.122	3.69
739.146	23.69
739.17	10.69
739.194	3.69
739.218	-2.31
739.242	1.69
739.266	8.69
739.29	7.69
739.314	6.69
739.338	-5.31
739.362	-2.31
739.386	-0.31
739.41	-0.31
739.434	3.69
739.458	-3.31
739.482	-10.31
739.506	5.69
739.53	7.69
739.554	1.69
739.577	-4.31
739.601	6.69
739.625	-16.31
739.649	3.69
739.673	-2.31
739.697	-2.31
739.721	4.69
739.745	2.69
739.769	14.69
739.793	-9.31
739.817	15.69
739.841	-16.31
739.865	10.69
739.889	-9.31
739.912	10.69
739.936	-2.31
739.96	8.69
739.984	2.69
740.008	2.69
740.032	-2.31
740.056	10.69
740.08	5.69
740.104	-9.31
740.127	-7.31
740.151	-5.31
740.175	2.69
740.199	8.69
740.223	52.69
740.247	13.69
740.271	-1.31
740.295	-0.31
740.318	-14.31
740.342	-4.31
740.366	-0.31
740.39	7.69
740.414	-0.31
740.438	-13.31
740.461	12.69
740.485	-7.31
740.509	-10.31
740.533	13.69
740.557	13.69
740.581	-1.31
740.604	-12.31
740.628	-9.31
740.652	20.69
740.676	9.69
740.7	-4.31
740.723	3.69
740.747	-7.31
740.771	-9.31
740.795	-12.31
740.819	-2.31
740.842	7.69
740.866	12.69
740.89	-6.31
740.914	-10.31
740.938	-14.31
740.961	4.69
740.985	-4.31
741.009	1.69
741.033	14.69
741.056	-2.31
741.08	-13.31
741.104	-5.31
741.128	-0.31
741.151	21.69
741.175	3.69
741.199	-1.31
741.223	-11.31
741.246	-4.31
741.27	10.69
741.294	3.69
741.318	-1.31
741.341	-6.31
741.365	0.69
741.389	-7.31
741.413	5.69
741.436	8.69
741.46	0.69
741.484	10.69
741.507	5.69
741.531	24.69
741.555	11.69
741.579	0.69
741.602	-0.31
741.626	6.69
741.65	-9.31
741.673	7.69
741.697	-3.31
741.721	9.69
741.744	-14.31
741.768	-10.31
741.792	-10.31
741.815	-11.31
741.839	19.69
741.863	21.69
741.886	7.69
741.91	0.69
741.934	-1.31
741.957	-26.31
741.981	14.69
742.005	-2.31
742.028	-23.31
742.052	-23.31
742.075	-10.31
742.099	-0.31
742.123	-9.31
742.146	2.69
742.17	0.69
742.194	-16.31
742.217	-10.31
742.241	-2.31
742.264	-9.31
742.288	21.69
742.312	-1.31
742.335	-8.31
742.359	12.69
742.382	13.69
742.406	6.69
742.43	-4.31
742.453	-1.31
742.477	-9.31
742.5	-3.31
742.524	-5.31
742.548	-22.31
742.571	-8.31
742.595	-6.31
742.618	-10.31
742.642	-12.31
742.665	6.69
742.689	-21.31
742.712	-12.31
742.736	-7.31
742.76	6.69
742.783	9.69
742.807	4.69
742.83	5.69
742.854	-3.31
742.877	-0.31
742.901	-9.31
742.924	-3.31
742.948	13.69
742.971	10.69
742.995	-3.31
743.018	-11.31
743.042	-12.31
743.065	-16.31
743.089	-10.31
743.112	16.69
743.136	-11.31
743.159	-2.31
743.183	-0.31
743.206	7.69
743.23	-0.31
743.253	6.69
743.277	-2.31
743.3	-1.31
743.324	-1.31
743.347	-15.31
743.371	14.69
743.394	1.69
743.418	27.69
743.441	6.69
743.465	-1.31
743.488	-3.31
743.512	-10.31
743.535	-9.31
743.558	3.69
743.582	2.69
743.605	3.69
743.629	15.69
743.652	-3.31
743.676	2.69
743.699	11.69
743.723	-1.31
743.746	10.69
743.769	-11.31
743.793	31.69
743.816	1.69
743.84	10.69
743.863	-9.31
743.886	-5.31
743.91	6.69
743.933	7.69
743.957	3.69
743.98	-4.31
744.003	9.69
744.027	5.69
744.05	-10.31
744.074	-2.31
744.097	-20.31
744.12	5.69
744.144	-9.31
744.167	13.69
744.19	11.69
744.214	-11.31
744.237	-4.31
744.26	11.69
744.284	-7.31
744.307	-10.31
744.331	0.69
744.354	-15.31
744.377	-2.31
744.401	-3.31
744.424	11.69
744.447	-9.31
744.471	-7.31
