Data from HighRes_mercury_15_13_11_07_2024_HR4C61891__80__15-14-31-185.txt Node

Date: Thu Nov 07 15:14:31 EST 2024
User: crc00042
Spectrometer: HR4C6189
Trigger mode: 4
Integration Time (sec): 1.000000E-1
Scans to average: 1
Electric dark correction enabled: true
Nonlinearity correction enabled: false
Boxcar width: 0
XAxis mode: Wavelengths
Number of Pixels in Spectrum: 3648
>>>>>Begin Spectral Data<<<<<
639.567	-47.92
639.602	-47.92
639.636	-47.92
639.67	-42.92
639.704	-18.92
639.738	-0.92
639.773	7.08
639.807	-14.92
639.841	-0.92
639.875	5.08
639.909	0.08
639.943	-11.92
639.978	5.08
640.012	-0.92
640.046	11.08
640.08	5.08
640.114	-1.92
640.148	-1.92
640.182	-13.92
640.217	0.08
640.251	19.08
640.285	8.08
640.319	-2.92
640.353	26.08
640.387	7.08
640.421	9.08
640.455	9.08
640.49	-6.92
640.524	-11.92
640.558	13.08
640.592	12.08
640.626	-6.92
640.66	6.08
640.694	1.08
640.728	10.08
640.762	5.08
640.796	9.08
640.83	16.08
640.865	7.08
640.899	12.08
640.933	-13.92
640.967	4.08
641.001	1.08
641.035	-3.92
641.069	2.08
641.103	0.08
641.137	22.08
641.171	-5.92
641.205	7.08
641.239	10.08
641.273	17.08
641.307	15.08
641.341	-6.92
641.375	-7.92
641.409	5.08
641.443	1.08
641.477	6.08
641.511	7.08
641.545	7.08
641.579	-6.92
641.614	1.08
641.648	21.08
641.682	0.08
641.716	3.08
641.75	22.08
641.784	12.08
641.818	-3.92
641.852	17.08
641.886	11.08
641.919	32.08
641.953	14.08
641.987	-4.92
642.021	13.08
642.055	13.08
642.089	1.08
642.123	-25.92
642.157	-9.92
642.191	6.08
642.225	15.08
642.259	2.08
642.293	17.08
642.327	6.08
642.361	10.08
642.395	6.08
642.429	14.08
642.463	-2.92
642.497	8.08
642.531	2.08
642.565	8.08
642.599	3.08
642.633	-9.92
642.666	23.08
642.7	15.08
642.734	25.08
642.768	1.08
642.802	1.08
642.836	16.08
642.87	2.08
642.904	5.08
642.938	-2.92
642.972	-8.92
643.005	16.08
643.039	17.08
643.073	-8.92
643.107	9.08
643.141	-12.92
643.175	11.08
643.209	-0.92
643.243	2.08
643.276	-1.92
643.31	-4.92
643.344	0.08
643.378	13.08
643.412	3.08
643.446	11.08
643.48	-1.92
643.513	27.08
643.547	9.08
643.581	-1.92
643.615	13.08
643.649	6.08
643.683	9.08
643.716	-9.92
643.75	2.08
643.784	1.08
643.818	7.08
643.852	-22.92
643.886	-8.92
643.919	2.08
643.953	-1.92
643.987	21.08
644.021	45.08
644.055	21.08
644.088	-1.92
644.122	-22.92
644.156	-18.92
644.19	-3.92
644.224	4.08
644.257	11.08
644.291	11.08
644.325	4.08
644.359	-2.92
644.392	4.08
644.426	17.08
644.46	8.08
644.494	13.08
644.527	-13.92
644.561	12.08
644.595	1.08
644.629	6.08
644.662	8.08
644.696	5.08
644.73	7.08
644.764	17.08
644.797	6.08
644.831	11.08
644.865	13.08
644.899	28.08
644.932	29.08
644.966	4.08
645	14.08
645.033	16.08
645.067	12.08
645.101	-2.92
645.135	1.08
645.168	7.08
645.202	-0.92
645.236	11.08
645.269	4.08
645.303	4.08
645.337	2.08
645.37	-3.92
645.404	19.08
645.438	5.08
645.471	10.08
645.505	14.08
645.539	13.08
645.572	0.08
645.606	0.08
645.64	3.08
645.673	2.08
645.707	18.08
645.741	-4.92
645.774	-6.92
645.808	15.08
645.842	0.08
645.875	19.08
645.909	9.08
645.943	4.08
645.976	2.08
646.01	1.08
646.043	13.08
646.077	9.08
646.111	12.08
646.144	24.08
646.178	16.08
646.212	-6.92
646.245	-0.92
646.279	1.08
646.312	7.08
646.346	18.08
646.38	4.08
646.413	5.08
646.447	9.08
646.48	1.08
646.514	-8.92
646.547	-17.92
646.581	-6.92
646.615	9.08
646.648	6.08
646.682	8.08
646.715	0.08
646.749	11.08
646.782	12.08
646.816	-11.92
646.85	7.08
646.883	-3.92
646.917	8.08
646.95	-4.92
646.984	3.08
647.017	7.08
647.051	14.08
647.084	6.08
647.118	-5.92
647.151	-4.92
647.185	11.08
647.218	-21.92
647.252	3.08
647.285	1.08
647.319	-13.92
647.353	14.08
647.386	26.08
647.42	13.08
647.453	18.08
647.487	12.08
647.52	17.08
647.553	13.08
647.587	-1.92
647.62	-8.92
647.654	10.08
647.687	5.08
647.721	3.08
647.754	10.08
647.788	6.08
647.821	-3.92
647.855	16.08
647.888	22.08
647.922	8.08
647.955	-4.92
647.989	-9.92
648.022	8.08
648.055	1.08
648.089	4.08
648.122	23.08
648.156	1.08
648.189	-3.92
648.223	21.08
648.256	23.08
648.29	8.08
648.323	4.08
648.356	15.08
648.39	6.08
648.423	9.08
648.457	1.08
648.49	7.08
648.523	7.08
648.557	0.08
648.59	-0.92
648.624	-10.92
648.657	6.08
648.69	10.08
648.724	19.08
648.757	25.08
648.791	14.08
648.824	8.08
648.857	-2.92
648.891	2.08
648.924	9.08
648.957	13.08
648.991	-5.92
649.024	0.08
649.057	-10.92
649.091	-0.92
649.124	-9.92
649.158	11.08
649.191	27.08
649.224	-5.92
649.258	11.08
649.291	8.08
649.324	2.08
649.358	5.08
649.391	9.08
649.424	-2.92
649.458	2.08
649.491	5.08
649.524	-4.92
649.557	10.08
649.591	4.08
649.624	14.08
649.657	0.08
649.691	0.08
649.724	7.08
649.757	-3.92
649.791	-7.92
649.824	20.08
649.857	12.08
649.89	1.08
649.924	-24.92
649.957	-6.92
649.99	-17.92
650.023	20.08
650.057	17.08
650.09	14.08
650.123	4.08
650.157	2.08
650.19	26.08
650.223	2.08
650.256	-19.92
650.29	-5.92
650.323	6.08
650.356	12.08
650.389	1.08
650.423	4.08
650.456	9.08
650.489	-2.92
650.522	9.08
650.555	9.08
650.589	10.08
650.622	-3.92
650.655	5.08
650.688	1.08
650.721	5.08
650.755	8.08
650.788	8.08
650.821	7.08
650.854	5.08
650.887	22.08
650.921	-0.92
650.954	-16.92
650.987	8.08
651.02	-3.92
651.053	-5.92
651.087	0.08
651.12	8.08
651.153	25.08
651.186	10.08
651.219	-17.92
651.252	14.08
651.286	26.08
651.319	-1.92
651.352	-11.92
651.385	12.08
651.418	5.08
651.451	8.08
651.484	5.08
651.518	-11.92
651.551	21.08
651.584	-18.92
651.617	10.08
651.65	-2.92
651.683	12.08
651.716	-10.92
651.749	-9.92
651.783	5.08
651.816	9.08
651.849	-0.92
651.882	12.08
651.915	1.08
651.948	4.08
651.981	-2.92
652.014	-6.92
652.047	-7.92
652.08	-10.92
652.114	-2.92
652.147	-13.92
652.18	2.08
652.213	25.08
652.246	0.08
652.279	6.08
652.312	22.08
652.345	-1.92
652.378	5.08
652.411	23.08
652.444	-2.92
652.477	-10.92
652.51	0.08
652.543	-7.92
652.576	-6.92
652.609	-3.92
652.642	7.08
652.675	6.08
652.709	5.08
652.742	15.08
652.775	2.08
652.808	23.08
652.841	0.08
652.874	-6.92
652.907	7.08
652.94	9.08
652.973	-7.92
653.006	7.08
653.039	-3.92
653.072	3.08
653.105	10.08
653.138	5.08
653.171	-15.92
653.204	-3.92
653.237	-1.92
653.27	-3.92
653.303	-1.92
653.336	15.08
653.368	-5.92
653.401	7.08
653.434	-3.92
653.467	1.08
653.5	4.08
653.533	-16.92
653.566	-3.92
653.599	-4.92
653.632	3.08
653.665	14.08
653.698	-21.92
653.731	-2.92
653.764	1.08
653.797	9.08
653.83	1.08
653.863	7.08
653.896	3.08
653.929	-6.92
653.961	2.08
653.994	4.08
654.027	-7.92
654.06	6.08
654.093	19.08
654.126	-1.92
654.159	-20.92
654.192	9.08
654.225	-10.92
654.258	-6.92
654.29	-14.92
654.323	-8.92
654.356	4.08
654.389	1.08
654.422	-6.92
654.455	-1.92
654.488	1.08
654.521	-5.92
654.553	-4.92
654.586	-1.92
654.619	14.08
654.652	5.08
654.685	5.08
654.718	8.08
654.751	17.08
654.783	-0.92
654.816	37.08
654.849	12.08
654.882	4.08
654.915	-4.92
654.948	0.08
654.98	15.08
655.013	7.08
655.046	-3.92
655.079	-20.92
655.112	3.08
655.144	-21.92
655.177	0.08
655.21	21.08
655.243	17.08
655.276	1.08
655.308	0.08
655.341	-14.92
655.374	4.08
655.407	-6.92
655.44	1.08
655.472	12.08
655.505	13.08
655.538	4.08
655.571	13.08
655.603	4.08
655.636	-1.92
655.669	16.08
655.702	10.08
655.734	-13.92
655.767	-0.92
655.8	-7.92
655.833	-10.92
655.865	-2.92
655.898	-11.92
655.931	2.08
655.964	10.08
655.996	-12.92
656.029	10.08
656.062	-2.92
656.095	5.08
656.127	-5.92
656.16	2.08
656.193	3.08
656.225	8.08
656.258	8.08
656.291	-2.92
656.324	10.08
656.356	1.08
656.389	8.08
656.422	6.08
656.454	2.08
656.487	4.08
656.52	5.08
656.552	4.08
656.585	4.08
656.618	-2.92
656.65	11.08
656.683	11.08
656.716	14.08
656.748	10.08
656.781	8.08
656.814	17.08
656.846	11.08
656.879	-6.92
656.912	8.08
656.944	-15.92
656.977	-13.92
657.01	-12.92
657.042	5.08
657.075	15.08
657.108	-0.92
657.14	3.08
657.173	14.08
657.205	29.08
657.238	-1.92
657.271	3.08
657.303	-21.92
657.336	20.08
657.369	-0.92
657.401	0.08
657.434	-4.92
657.466	-10.92
657.499	-8.92
657.532	-9.92
657.564	7.08
657.597	-12.92
657.629	2.08
657.662	3.08
657.694	7.08
657.727	-13.92
657.76	10.08
657.792	-13.92
657.825	5.08
657.857	5.08
657.89	12.08
657.922	10.08
657.955	-1.92
657.987	11.08
658.02	20.08
658.053	10.08
658.085	16.08
658.118	9.08
658.15	16.08
658.183	18.08
658.215	9.08
658.248	2.08
658.28	10.08
658.313	12.08
658.345	0.08
658.378	-1.92
658.41	2.08
658.443	19.08
658.475	14.08
658.508	12.08
658.54	0.08
658.573	0.08
658.605	12.08
658.638	7.08
658.67	2.08
658.703	8.08
658.735	-11.92
658.768	-11.92
658.8	-10.92
658.833	15.08
658.865	2.08
658.898	10.08
658.93	-2.92
658.963	-0.92
658.995	-19.92
659.028	3.08
659.06	-0.92
659.092	-19.92
659.125	-7.92
659.157	15.08
659.19	-7.92
659.222	-0.92
659.255	-6.92
659.287	3.08
659.32	10.08
659.352	24.08
659.384	2.08
659.417	0.08
659.449	16.08
659.482	20.08
659.514	6.08
659.546	5.08
659.579	-14.92
659.611	1.08
659.644	8.08
659.676	-3.92
659.708	10.08
659.741	-5.92
659.773	9.08
659.806	25.08
659.838	8.08
659.87	-1.92
659.903	-14.92
659.935	6.08
659.967	7.08
660	8.08
660.032	-6.92
660.065	18.08
660.097	5.08
660.129	-3.92
660.162	-15.92
660.194	-16.92
660.226	-0.92
660.259	11.08
660.291	3.08
660.323	1.08
660.356	12.08
660.388	-0.92
660.42	-5.92
660.453	0.08
660.485	-0.92
660.517	10.08
660.55	7.08
660.582	-1.92
660.614	12.08
660.647	-13.92
660.679	-12.92
660.711	15.08
660.743	-19.92
660.776	-7.92
660.808	-9.92
660.84	-6.92
660.873	-10.92
660.905	-19.92
660.937	-2.92
660.969	2.08
661.002	-3.92
661.034	26.08
661.066	-8.92
661.099	8.08
661.131	12.08
661.163	5.08
661.195	3.08
661.228	21.08
661.26	6.08
661.292	5.08
661.324	0.08
661.357	3.08
661.389	10.08
661.421	-8.92
661.453	0.08
661.485	17.08
661.518	3.08
661.55	-11.92
661.582	-5.92
661.614	-7.92
661.647	16.08
661.679	12.08
661.711	14.08
661.743	-18.92
661.775	4.08
661.808	22.08
661.84	-11.92
661.872	14.08
661.904	-3.92
661.936	12.08
661.969	-2.92
662.001	-3.92
662.033	22.08
662.065	-11.92
662.097	13.08
662.129	14.08
662.162	14.08
662.194	2.08
662.226	-0.92
662.258	4.08
662.29	-4.92
662.322	-22.92
662.355	-15.92
662.387	15.08
662.419	15.08
662.451	20.08
662.483	12.08
662.515	18.08
662.547	10.08
662.58	-8.92
662.612	-14.92
662.644	-14.92
662.676	10.08
662.708	13.08
662.74	7.08
662.772	0.08
662.804	10.08
662.836	11.08
662.869	-2.92
662.901	15.08
662.933	5.08
662.965	38.08
662.997	27.08
663.029	-9.92
663.061	9.08
663.093	-7.92
663.125	3.08
663.157	14.08
663.189	1.08
663.221	14.08
663.254	7.08
663.286	25.08
663.318	-4.92
663.35	4.08
663.382	9.08
663.414	10.08
663.446	18.08
663.478	8.08
663.51	13.08
663.542	6.08
663.574	-4.92
663.606	7.08
663.638	-5.92
663.67	6.08
663.702	6.08
663.734	12.08
663.766	6.08
663.798	13.08
663.83	4.08
663.862	19.08
663.894	20.08
663.926	10.08
663.958	9.08
663.99	7.08
664.022	9.08
664.054	7.08
664.086	-4.92
664.118	-15.92
664.15	3.08
664.182	6.08
664.214	1.08
664.246	15.08
664.278	8.08
664.31	-5.92
664.342	1.08
664.374	1.08
664.406	15.08
664.438	6.08
664.47	20.08
664.502	-3.92
664.534	-0.92
664.566	-9.92
664.598	1.08
664.63	-6.92
664.662	20.08
664.693	5.08
664.725	5.08
664.757	16.08
664.789	4.08
664.821	5.08
664.853	22.08
664.885	6.08
664.917	-2.92
664.949	25.08
664.981	15.08
665.013	0.08
665.045	1.08
665.076	-1.92
665.108	-0.92
665.14	4.08
665.172	1.08
665.204	0.08
665.236	4.08
665.268	32.08
665.3	2.08
665.331	5.08
665.363	5.08
665.395	4.08
665.427	6.08
665.459	19.08
665.491	10.08
665.523	1.08
665.555	-12.92
665.586	2.08
665.618	-13.92
665.65	-10.92
665.682	9.08
665.714	0.08
665.746	-10.92
665.777	4.08
665.809	-2.92
665.841	13.08
665.873	8.08
665.905	4.08
665.937	13.08
665.968	5.08
666	1.08
666.032	5.08
666.064	-0.92
666.096	-1.92
666.127	9.08
666.159	4.08
666.191	4.08
666.223	1.08
666.255	9.08
666.286	16.08
666.318	-2.92
666.35	20.08
666.382	17.08
666.413	9.08
666.445	4.08
666.477	-9.92
666.509	3.08
666.54	9.08
666.572	7.08
666.604	11.08
666.636	4.08
666.667	14.08
666.699	24.08
666.731	11.08
666.763	9.08
666.794	8.08
666.826	8.08
666.858	-2.92
666.89	19.08
666.921	12.08
666.953	2.08
666.985	6.08
667.017	25.08
667.048	17.08
667.08	10.08
667.112	-6.92
667.143	-10.92
667.175	1.08
667.207	-5.92
667.238	11.08
667.27	-13.92
667.302	16.08
667.334	-7.92
667.365	21.08
667.397	9.08
667.429	4.08
667.46	-1.92
667.492	9.08
667.524	6.08
667.555	6.08
667.587	14.08
667.619	4.08
667.65	18.08
667.682	21.08
667.714	20.08
667.745	14.08
667.777	13.08
667.808	33.08
667.84	10.08
667.872	7.08
667.903	24.08
667.935	5.08
667.967	14.08
667.998	17.08
668.03	7.08
668.061	14.08
668.093	11.08
668.125	10.08
668.156	9.08
668.188	10.08
668.22	4.08
668.251	4.08
668.283	4.08
668.314	19.08
668.346	12.08
668.377	26.08
668.409	13.08
668.441	32.08
668.472	39.08
668.504	7.08
668.535	9.08
668.567	9.08
668.599	-2.92
668.63	5.08
668.662	-3.92
668.693	13.08
668.725	7.08
668.756	9.08
668.788	-5.92
668.819	2.08
668.851	4.08
668.882	0.08
668.914	2.08
668.946	10.08
668.977	6.08
669.009	4.08
669.04	-6.92
669.072	23.08
669.103	21.08
669.135	2.08
669.166	17.08
669.198	9.08
669.229	15.08
669.261	2.08
669.292	6.08
669.324	22.08
669.355	6.08
669.387	2.08
669.418	6.08
669.45	-4.92
669.481	1.08
669.513	4.08
669.544	11.08
669.576	7.08
669.607	13.08
669.639	14.08
669.67	-8.92
669.701	5.08
669.733	-11.92
669.764	-11.92
669.796	-7.92
669.827	5.08
669.859	-11.92
669.89	27.08
669.922	15.08
669.953	15.08
669.985	19.08
670.016	20.08
670.047	-3.92
670.079	6.08
670.11	13.08
670.142	-2.92
670.173	-0.92
670.204	-7.92
670.236	13.08
670.267	-5.92
670.299	6.08
670.33	23.08
670.362	16.08
670.393	8.08
670.424	15.08
670.456	-6.92
670.487	0.08
670.518	2.08
670.55	-2.92
670.581	-1.92
670.613	-4.92
670.644	-9.92
670.675	0.08
670.707	-14.92
670.738	10.08
670.769	4.08
670.801	-6.92
670.832	14.08
670.864	-4.92
670.895	13.08
670.926	2.08
670.958	9.08
670.989	9.08
671.02	-2.92
671.052	-5.92
671.083	7.08
671.114	9.08
671.146	-0.92
671.177	4.08
671.208	-5.92
671.24	-8.92
671.271	-12.92
671.302	-0.92
671.333	-2.92
671.365	-14.92
671.396	-1.92
671.427	8.08
671.459	14.08
671.49	16.08
671.521	2.08
671.553	-8.92
671.584	8.08
671.615	-13.92
671.646	5.08
671.678	6.08
671.709	0.08
671.74	-16.92
671.771	-0.92
671.803	-6.92
671.834	2.08
671.865	0.08
671.896	-1.92
671.928	-6.92
671.959	-1.92
671.99	3.08
672.021	-10.92
672.053	-15.92
672.084	9.08
672.115	7.08
672.146	12.08
672.178	-10.92
672.209	-14.92
672.24	-4.92
672.271	13.08
672.303	0.08
672.334	4.08
672.365	-5.92
672.396	13.08
672.427	11.08
672.459	16.08
672.49	20.08
672.521	10.08
672.552	14.08
672.583	-8.92
672.615	9.08
672.646	20.08
672.677	5.08
672.708	-9.92
672.739	-10.92
672.77	7.08
672.802	20.08
672.833	-15.92
672.864	5.08
672.895	8.08
672.926	-8.92
672.957	-6.92
672.989	4.08
673.02	-7.92
673.051	-4.92
673.082	10.08
673.113	3.08
673.144	20.08
673.175	13.08
673.206	-1.92
673.238	0.08
673.269	-4.92
673.3	9.08
673.331	3.08
673.362	-5.92
673.393	18.08
673.424	7.08
673.455	28.08
673.487	22.08
673.518	19.08
673.549	12.08
673.58	5.08
673.611	6.08
673.642	-5.92
673.673	-8.92
673.704	-10.92
673.735	-0.92
673.766	-0.92
673.797	3.08
673.828	-2.92
673.86	-14.92
673.891	-12.92
673.922	-9.92
673.953	5.08
673.984	7.08
674.015	5.08
674.046	4.08
674.077	4.08
674.108	-12.92
674.139	-10.92
674.17	4.08
674.201	-5.92
674.232	7.08
674.263	-3.92
674.294	2.08
674.325	-9.92
674.356	-6.92
674.387	2.08
674.418	5.08
674.449	9.08
674.48	1.08
674.511	5.08
674.542	0.08
674.573	3.08
674.604	-4.92
674.635	0.08
674.666	10.08
674.697	9.08
674.728	-2.92
674.759	4.08
674.79	-4.92
674.821	-4.92
674.852	1.08
674.883	-6.92
674.914	-6.92
674.945	5.08
674.976	0.08
675.007	-4.92
675.038	-13.92
675.069	-22.92
675.1	-9.92
675.131	2.08
675.162	3.08
675.193	-8.92
675.224	-6.92
675.254	22.08
675.285	4.08
675.316	-9.92
675.347	15.08
675.378	13.08
675.409	8.08
675.44	14.08
675.471	-5.92
675.502	-18.92
675.533	-2.92
675.564	8.08
675.595	-8.92
675.625	23.08
675.656	11.08
675.687	5.08
675.718	-13.92
675.749	5.08
675.78	19.08
675.811	-8.92
675.842	-0.92
675.873	7.08
675.903	-3.92
675.934	-8.92
675.965	-11.92
675.996	7.08
676.027	8.08
676.058	11.08
676.089	2.08
676.119	4.08
676.15	4.08
676.181	-11.92
676.212	1.08
676.243	18.08
676.274	-10.92
676.304	19.08
676.335	-8.92
676.366	0.08
676.397	4.08
676.428	1.08
676.459	10.08
676.489	5.08
676.52	9.08
676.551	-10.92
676.582	3.08
676.613	0.08
676.643	-11.92
676.674	14.08
676.705	3.08
676.736	8.08
676.767	11.08
676.797	27.08
676.828	4.08
676.859	2.08
676.89	-5.92
676.92	24.08
676.951	5.08
676.982	0.08
677.013	-7.92
677.044	17.08
677.074	47.08
677.105	1.08
677.136	6.08
677.167	-3.92
677.197	20.08
677.228	9.08
677.259	0.08
677.289	-2.92
677.32	-10.92
677.351	6.08
677.382	1.08
677.412	-9.92
677.443	9.08
677.474	12.08
677.505	-4.92
677.535	9.08
677.566	-0.92
677.597	-14.92
677.627	-13.92
677.658	-7.92
677.689	4.08
677.72	8.08
677.75	-3.92
677.781	-3.92
677.812	17.08
677.842	25.08
677.873	16.08
677.904	5.08
677.934	4.08
677.965	7.08
677.996	-6.92
678.026	3.08
678.057	7.08
678.088	-7.92
678.118	4.08
678.149	-13.92
678.18	-8.92
678.21	-2.92
678.241	-0.92
678.272	0.08
678.302	8.08
678.333	8.08
678.363	20.08
678.394	0.08
678.425	4.08
678.455	-1.92
678.486	2.08
678.517	0.08
678.547	2.08
678.578	-2.92
678.608	-6.92
678.639	19.08
678.67	5.08
678.7	-9.92
678.731	-15.92
678.761	3.08
678.792	7.08
678.823	4.08
678.853	2.08
678.884	-11.92
678.914	5.08
678.945	10.08
678.975	2.08
679.006	0.08
679.037	-12.92
679.067	24.08
679.098	-2.92
679.128	0.08
679.159	13.08
679.189	24.08
679.22	7.08
679.25	10.08
679.281	1.08
679.312	-4.92
679.342	-0.92
679.373	30.08
679.403	2.08
679.434	3.08
679.464	-5.92
679.495	3.08
679.525	10.08
679.556	9.08
679.586	17.08
679.617	20.08
679.647	1.08
679.678	-5.92
679.708	11.08
679.739	-6.92
679.769	-1.92
679.8	-7.92
679.83	8.08
679.861	19.08
679.891	-2.92
679.922	-15.92
679.952	4.08
679.983	13.08
680.013	1.08
680.044	-10.92
680.074	15.08
680.105	21.08
680.135	-5.92
680.165	3.08
680.196	10.08
680.226	4.08
680.257	13.08
680.287	15.08
680.318	6.08
680.348	-3.92
680.379	2.08
680.409	14.08
680.439	-2.92
680.47	-3.92
680.5	3.08
680.531	1.08
680.561	4.08
680.592	7.08
680.622	13.08
680.652	-0.92
680.683	27.08
680.713	2.08
680.744	0.08
680.774	-8.92
680.804	18.08
680.835	10.08
680.865	-7.92
680.896	25.08
680.926	7.08
680.956	7.08
680.987	1.08
681.017	-3.92
681.047	-1.92
681.078	-11.92
681.108	8.08
681.139	-0.92
681.169	2.08
681.199	0.08
681.23	17.08
681.26	5.08
681.29	9.08
681.321	3.08
681.351	-2.92
681.381	-11.92
681.412	0.08
681.442	15.08
681.472	35.08
681.503	-5.92
681.533	4.08
681.563	8.08
681.594	7.08
681.624	11.08
681.654	-9.92
681.685	26.08
681.715	8.08
681.745	-6.92
681.775	-2.92
681.806	15.08
681.836	-9.92
681.866	-14.92
681.897	-13.92
681.927	-13.92
681.957	-14.92
681.987	-1.92
682.018	6.08
682.048	1.08
682.078	5.08
682.109	29.08
682.139	11.08
682.169	-1.92
682.199	15.08
682.23	-12.92
682.26	2.08
682.29	6.08
682.32	-5.92
682.351	10.08
682.381	-2.92
682.411	-1.92
682.441	-10.92
682.472	-15.92
682.502	1.08
682.532	6.08
682.562	-2.92
682.592	-5.92
682.623	-10.92
682.653	3.08
682.683	-3.92
682.713	11.08
682.743	3.08
682.774	0.08
682.804	2.08
682.834	13.08
682.864	6.08
682.894	7.08
682.925	-1.92
682.955	-3.92
682.985	-4.92
683.015	13.08
683.045	16.08
683.076	-7.92
683.106	-9.92
683.136	-0.92
683.166	-1.92
683.196	11.08
683.226	-0.92
683.257	0.08
683.287	-0.92
683.317	-3.92
683.347	-20.92
683.377	5.08
683.407	5.08
683.437	-2.92
683.468	10.08
683.498	-18.92
683.528	0.08
683.558	15.08
683.588	4.08
683.618	-4.92
683.648	-8.92
683.678	6.08
683.708	11.08
683.739	2.08
683.769	1.08
683.799	12.08
683.829	1.08
683.859	6.08
683.889	16.08
683.919	-1.92
683.949	0.08
683.979	1.08
684.009	-11.92
684.039	-1.92
684.07	-3.92
684.1	16.08
684.13	6.08
684.16	-1.92
684.19	-1.92
684.22	7.08
684.25	8.08
684.28	-7.92
684.31	13.08
684.34	14.08
684.37	9.08
684.4	4.08
684.43	0.08
684.46	4.08
684.49	9.08
684.52	7.08
684.55	3.08
684.58	18.08
684.61	12.08
684.64	9.08
684.67	16.08
684.7	1.08
684.73	16.08
684.76	3.08
684.79	9.08
684.82	3.08
684.85	9.08
684.88	7.08
684.91	6.08
684.94	4.08
684.97	-10.92
685	-12.92
685.03	-15.92
685.06	-2.92
685.09	10.08
685.12	27.08
685.15	-2.92
685.18	7.08
685.21	-1.92
685.24	15.08
685.27	2.08
685.3	3.08
685.33	10.08
685.36	-7.92
685.39	5.08
685.42	-1.92
685.45	17.08
685.48	-0.92
685.51	-6.92
685.54	24.08
685.569	13.08
685.599	2.08
685.629	16.08
685.659	8.08
685.689	1.08
685.719	6.08
685.749	0.08
685.779	-6.92
685.809	3.08
685.839	1.08
685.869	8.08
685.898	10.08
685.928	-0.92
685.958	12.08
685.988	14.08
686.018	5.08
686.048	14.08
686.078	17.08
686.108	26.08
686.137	7.08
686.167	9.08
686.197	-10.92
686.227	-2.92
686.257	29.08
686.287	1.08
686.317	-1.92
686.346	1.08
686.376	-4.92
686.406	3.08
686.436	6.08
686.466	3.08
686.496	16.08
686.525	8.08
686.555	0.08
686.585	17.08
686.615	27.08
686.645	10.08
686.675	-7.92
686.704	8.08
686.734	8.08
686.764	-3.92
686.794	2.08
686.824	-8.92
686.853	11.08
686.883	12.08
686.913	8.08
686.943	4.08
686.973	-19.92
687.002	6.08
687.032	10.08
687.062	-3.92
687.092	17.08
687.121	1.08
687.151	13.08
687.181	12.08
687.211	25.08
687.24	1.08
687.27	21.08
687.3	11.08
687.33	-0.92
687.359	-16.92
687.389	4.08
687.419	7.08
687.449	-6.92
687.478	11.08
687.508	1.08
687.538	3.08
687.568	0.08
687.597	-5.92
687.627	-4.92
687.657	9.08
687.686	11.08
687.716	22.08
687.746	-2.92
687.776	10.08
687.805	-2.92
687.835	5.08
687.865	18.08
687.894	9.08
687.924	6.08
687.954	-1.92
687.983	3.08
688.013	19.08
688.043	12.08
688.072	16.08
688.102	19.08
688.132	9.08
688.161	5.08
688.191	7.08
688.221	25.08
688.25	1.08
688.28	3.08
688.31	1.08
688.339	2.08
688.369	-9.92
688.399	4.08
688.428	13.08
688.458	4.08
688.488	-6.92
688.517	0.08
688.547	1.08
688.576	28.08
688.606	19.08
688.636	-4.92
688.665	-6.92
688.695	4.08
688.725	10.08
688.754	5.08
688.784	8.08
688.813	4.08
688.843	0.08
688.873	1.08
688.902	-0.92
688.932	-4.92
688.961	9.08
688.991	30.08
689.02	21.08
689.05	-5.92
689.08	23.08
689.109	16.08
689.139	2.08
689.168	11.08
689.198	1.08
689.227	2.08
689.257	10.08
689.287	5.08
689.316	5.08
689.346	1.08
689.375	10.08
689.405	24.08
689.434	-2.92
689.464	18.08
689.493	4.08
689.523	1.08
689.552	-6.92
689.582	0.08
689.611	5.08
689.641	-2.92
689.67	6.08
689.7	7.08
689.73	7.08
689.759	4.08
689.789	19.08
689.818	-4.92
689.848	-8.92
689.877	19.08
689.906	6.08
689.936	3.08
689.965	-0.92
689.995	14.08
690.024	10.08
690.054	20.08
690.083	14.08
690.113	21.08
690.142	15.08
690.172	8.08
690.201	8.08
690.231	-3.92
690.26	7.08
690.29	13.08
690.319	14.08
690.348	-3.92
690.378	-2.92
690.407	12.08
690.437	13.08
690.466	9.08
690.496	11.08
690.525	28.08
690.555	11.08
690.584	-4.92
690.613	-2.92
690.643	7.08
690.672	12.08
690.702	16.08
690.731	0.08
690.76	26.08
690.79	67.08
690.819	36.08
690.849	27.08
690.878	20.08
690.907	20.08
690.937	16.08
690.966	34.08
690.996	14.08
691.025	11.08
691.054	-10.92
691.084	2.08
691.113	0.08
691.142	1.08
691.172	-1.92
691.201	12.08
691.23	5.08
691.26	29.08
691.289	15.08
691.319	6.08
691.348	12.08
691.377	13.08
691.407	-0.92
691.436	11.08
691.465	3.08
691.495	-0.92
691.524	-8.92
691.553	-9.92
691.583	-0.92
691.612	8.08
691.641	-6.92
691.67	-0.92
691.7	10.08
691.729	-4.92
691.758	15.08
691.788	12.08
691.817	7.08
691.846	1.08
691.876	6.08
691.905	8.08
691.934	3.08
691.963	26.08
691.993	11.08
692.022	10.08
692.051	0.08
692.081	23.08
692.11	15.08
692.139	-6.92
692.168	22.08
692.198	7.08
692.227	10.08
692.256	12.08
692.285	3.08
692.315	20.08
692.344	7.08
692.373	11.08
692.402	-14.92
692.432	0.08
692.461	1.08
692.49	-12.92
692.519	0.08
692.548	15.08
692.578	26.08
692.607	13.08
692.636	-3.92
692.665	9.08
692.694	-2.92
692.724	-6.92
692.753	9.08
692.782	21.08
692.811	-3.92
692.84	17.08
692.87	7.08
692.899	-2.92
692.928	5.08
692.957	14.08
692.986	-3.92
693.016	7.08
693.045	-4.92
693.074	14.08
693.103	-10.92
693.132	7.08
693.161	1.08
693.191	1.08
693.22	-8.92
693.249	11.08
693.278	0.08
693.307	18.08
693.336	7.08
693.365	-6.92
693.395	-3.92
693.424	19.08
693.453	17.08
693.482	-3.92
693.511	21.08
693.54	9.08
693.569	23.08
693.598	2.08
693.628	22.08
693.657	25.08
693.686	16.08
693.715	18.08
693.744	8.08
693.773	32.08
693.802	19.08
693.831	2.08
693.86	23.08
693.889	0.08
693.919	6.08
693.948	-9.92
693.977	13.08
694.006	-7.92
694.035	8.08
694.064	3.08
694.093	10.08
694.122	7.08
694.151	0.08
694.18	10.08
694.209	28.08
694.238	17.08
694.267	25.08
694.296	20.08
694.325	13.08
694.354	25.08
694.383	7.08
694.412	11.08
694.441	5.08
694.471	-1.92
694.5	6.08
694.529	8.08
694.558	20.08
694.587	15.08
694.616	6.08
694.645	-3.92
694.674	11.08
694.703	19.08
694.732	9.08
694.761	17.08
694.79	8.08
694.819	-13.92
694.848	17.08
694.877	27.08
694.906	34.08
694.935	10.08
694.963	19.08
694.992	16.08
695.021	13.08
695.05	12.08
695.079	4.08
695.108	-11.92
695.137	28.08
695.166	16.08
695.195	-0.92
695.224	12.08
695.253	14.08
695.282	10.08
695.311	28.08
695.34	0.08
695.369	-10.92
695.398	2.08
695.427	13.08
695.456	13.08
695.485	14.08
695.513	8.08
695.542	-1.92
695.571	5.08
695.6	8.08
695.629	10.08
695.658	21.08
695.687	-7.92
695.716	-0.92
695.745	21.08
695.774	11.08
695.802	9.08
695.831	12.08
695.86	10.08
695.889	7.08
695.918	6.08
695.947	4.08
695.976	13.08
696.005	6.08
696.033	20.08
696.062	38.08
696.091	1.08
696.12	11.08
696.149	18.08
696.178	-5.92
696.207	-1.92
696.235	9.08
696.264	-4.92
696.293	5.08
696.322	5.08
696.351	1.08
696.38	8.08
696.408	1.08
696.437	11.08
696.466	4.08
696.495	23.08
696.524	-7.92
696.553	-0.92
696.581	20.08
696.61	14.08
696.639	6.08
696.668	11.08
696.697	6.08
696.725	12.08
696.754	18.08
696.783	7.08
696.812	-5.92
696.84	8.08
696.869	11.08
696.898	6.08
696.927	-5.92
696.956	9.08
696.984	-11.92
697.013	-4.92
697.042	-4.92
697.071	19.08
697.099	25.08
697.128	5.08
697.157	-2.92
697.186	6.08
697.214	7.08
697.243	0.08
697.272	-6.92
697.301	1.08
697.329	1.08
697.358	3.08
697.387	32.08
697.415	18.08
697.444	12.08
697.473	9.08
697.502	-8.92
697.53	3.08
697.559	6.08
697.588	15.08
697.616	-0.92
697.645	7.08
697.674	12.08
697.703	8.08
697.731	21.08
697.76	12.08
697.789	4.08
697.817	16.08
697.846	18.08
697.875	10.08
697.903	16.08
697.932	20.08
697.961	18.08
697.989	20.08
698.018	3.08
698.047	11.08
698.075	18.08
698.104	0.08
698.133	0.08
698.161	16.08
698.19	9.08
698.218	15.08
698.247	2.08
698.276	3.08
698.304	5.08
698.333	13.08
698.362	-3.92
698.39	0.08
698.419	10.08
698.447	7.08
698.476	-4.92
698.505	5.08
698.533	23.08
698.562	20.08
698.591	-1.92
698.619	-2.92
698.648	8.08
698.676	17.08
698.705	2.08
698.733	-2.92
698.762	8.08
698.791	11.08
698.819	9.08
698.848	4.08
698.876	28.08
698.905	15.08
698.933	19.08
698.962	20.08
698.991	0.08
699.019	3.08
699.048	8.08
699.076	6.08
699.105	-15.92
699.133	-8.92
699.162	5.08
699.19	21.08
699.219	-4.92
699.248	3.08
699.276	-7.92
699.305	-3.92
699.333	13.08
699.362	7.08
699.39	17.08
699.419	-2.92
699.447	14.08
699.476	8.08
699.504	-9.92
699.533	1.08
699.561	-5.92
699.59	3.08
699.618	1.08
699.647	-0.92
699.675	21.08
699.704	22.08
699.732	4.08
699.761	2.08
699.789	-7.92
699.818	13.08
699.846	7.08
699.874	2.08
699.903	10.08
699.931	-7.92
699.96	15.08
699.988	5.08
700.017	-3.92
700.045	21.08
700.074	3.08
700.102	5.08
700.13	3.08
700.159	6.08
700.187	10.08
700.216	9.08
700.244	-1.92
700.273	1.08
700.301	8.08
700.329	17.08
700.358	30.08
700.386	13.08
700.415	2.08
700.443	6.08
700.472	8.08
700.5	6.08
700.528	8.08
700.557	9.08
700.585	5.08
700.614	4.08
700.642	9.08
700.67	7.08
700.699	7.08
700.727	6.08
700.755	0.08
700.784	6.08
700.812	3.08
700.841	11.08
700.869	16.08
700.897	-3.92
700.926	6.08
700.954	7.08
700.982	11.08
701.011	24.08
701.039	25.08
701.067	10.08
701.096	15.08
701.124	-16.92
701.152	7.08
701.181	3.08
701.209	-12.92
701.237	3.08
701.266	-10.92
701.294	-4.92
701.322	19.08
701.351	19.08
701.379	15.08
701.407	16.08
701.435	3.08
701.464	4.08
701.492	20.08
701.52	-0.92
701.549	9.08
701.577	-4.92
701.605	3.08
701.634	8.08
701.662	15.08
701.69	-2.92
701.718	0.08
701.747	4.08
701.775	1.08
701.803	-5.92
701.831	2.08
701.86	-4.92
701.888	6.08
701.916	7.08
701.944	17.08
701.973	-7.92
702.001	-7.92
702.029	-6.92
702.057	3.08
702.086	0.08
702.114	-0.92
702.142	9.08
702.17	-6.92
702.199	-1.92
702.227	1.08
702.255	-6.92
702.283	-3.92
702.311	16.08
702.34	-10.92
702.368	-1.92
702.396	4.08
702.424	0.08
702.452	0.08
702.481	11.08
702.509	-2.92
702.537	10.08
702.565	3.08
702.593	-1.92
702.621	4.08
702.65	14.08
702.678	17.08
702.706	13.08
702.734	0.08
702.762	19.08
702.79	-0.92
702.819	5.08
702.847	3.08
702.875	12.08
702.903	29.08
702.931	-7.92
702.959	-5.92
702.988	16.08
703.016	-1.92
703.044	1.08
703.072	19.08
703.1	-8.92
703.128	0.08
703.156	-3.92
703.184	16.08
703.212	22.08
703.241	9.08
703.269	12.08
703.297	-4.92
703.325	3.08
703.353	-12.92
703.381	-16.92
703.409	9.08
703.437	7.08
703.465	10.08
703.493	-8.92
703.522	3.08
703.55	-1.92
703.578	16.08
703.606	-9.92
703.634	-9.92
703.662	-11.92
703.69	6.08
703.718	4.08
703.746	28.08
703.774	-2.92
703.802	13.08
703.83	5.08
703.858	5.08
703.886	-6.92
703.914	-4.92
703.942	25.08
703.97	6.08
703.998	0.08
704.027	7.08
704.055	2.08
704.083	5.08
704.111	-13.92
704.139	4.08
704.167	-8.92
704.195	9.08
704.223	-4.92
704.251	13.08
704.279	9.08
704.307	20.08
704.335	6.08
704.363	4.08
704.391	4.08
704.419	-4.92
704.447	-3.92
704.475	1.08
704.503	1.08
704.531	11.08
704.558	5.08
704.586	-4.92
704.614	14.08
704.642	17.08
704.67	-4.92
704.698	-10.92
704.726	5.08
704.754	0.08
704.782	8.08
704.81	-0.92
704.838	25.08
704.866	27.08
704.894	-9.92
704.922	-0.92
704.95	13.08
704.978	11.08
705.006	7.08
705.034	22.08
705.061	4.08
705.089	-7.92
705.117	-14.92
705.145	0.08
705.173	18.08
705.201	4.08
705.229	12.08
705.257	17.08
705.285	22.08
705.313	11.08
705.34	-12.92
705.368	-1.92
705.396	-1.92
705.424	23.08
705.452	4.08
705.48	-7.92
705.508	7.08
705.536	1.08
705.563	8.08
705.591	-2.92
705.619	6.08
705.647	-4.92
705.675	13.08
705.703	6.08
705.731	0.08
705.758	3.08
705.786	-3.92
705.814	23.08
705.842	1.08
705.87	8.08
705.898	12.08
705.925	3.08
705.953	6.08
705.981	0.08
706.009	19.08
706.037	8.08
706.065	-7.92
706.092	3.08
706.12	13.08
706.148	-10.92
706.176	8.08
706.204	14.08
706.231	2.08
706.259	18.08
706.287	-1.92
706.315	8.08
706.342	-3.92
706.37	27.08
706.398	25.08
706.426	2.08
706.454	7.08
706.481	9.08
706.509	3.08
706.537	6.08
706.565	7.08
706.592	13.08
706.62	4.08
706.648	13.08
706.676	-10.92
706.703	1.08
706.731	0.08
706.759	7.08
706.787	25.08
706.814	0.08
706.842	-1.92
706.87	-2.92
706.897	1.08
706.925	-0.92
706.953	16.08
706.981	-2.92
707.008	2.08
707.036	-9.92
707.064	-5.92
707.091	-8.92
707.119	16.08
707.147	0.08
707.174	0.08
707.202	8.08
707.23	-5.92
707.258	7.08
707.285	-15.92
707.313	-4.92
707.341	-13.92
707.368	-2.92
707.396	7.08
707.424	33.08
707.451	20.08
707.479	-3.92
707.507	17.08
707.534	-16.92
707.562	10.08
707.59	-12.92
707.617	-19.92
707.645	4.08
707.672	7.08
707.7	1.08
707.728	21.08
707.755	18.08
707.783	10.08
707.811	19.08
707.838	2.08
707.866	0.08
707.893	5.08
707.921	4.08
707.949	-7.92
707.976	9.08
708.004	2.08
708.031	10.08
708.059	-4.92
708.087	10.08
708.114	-4.92
708.142	16.08
708.169	-9.92
708.197	-18.92
708.225	-5.92
708.252	-4.92
708.28	17.08
708.307	7.08
708.335	8.08
708.362	24.08
708.39	-5.92
708.418	-7.92
708.445	-9.92
708.473	-7.92
708.5	-7.92
708.528	13.08
708.555	15.08
708.583	4.08
708.61	1.08
708.638	20.08
708.665	-0.92
708.693	1.08
708.72	2.08
708.748	14.08
708.776	-1.92
708.803	14.08
708.831	3.08
708.858	9.08
708.886	-6.92
708.913	-6.92
708.941	-3.92
708.968	3.08
708.996	-0.92
709.023	33.08
709.051	-0.92
709.078	-7.92
709.105	12.08
709.133	4.08
709.16	3.08
709.188	5.08
709.215	10.08
709.243	1.08
709.27	0.08
709.298	5.08
709.325	5.08
709.353	-6.92
709.38	12.08
709.408	9.08
709.435	19.08
709.462	12.08
709.49	12.08
709.517	1.08
709.545	-10.92
709.572	-5.92
709.6	4.08
709.627	9.08
709.655	-5.92
709.682	3.08
709.709	-10.92
709.737	-22.92
709.764	-13.92
709.792	21.08
709.819	9.08
709.846	-1.92
709.874	-8.92
709.901	9.08
709.929	14.08
709.956	23.08
709.983	6.08
710.011	6.08
710.038	-5.92
710.066	4.08
710.093	-0.92
710.12	6.08
710.148	5.08
710.175	-15.92
710.202	-25.92
710.23	-0.92
710.257	3.08
710.284	18.08
710.312	8.08
710.339	0.08
710.366	4.08
710.394	-1.92
710.421	7.08
710.448	1.08
710.476	-6.92
710.503	5.08
710.53	8.08
710.558	32.08
710.585	1.08
710.612	-6.92
710.64	-2.92
710.667	-3.92
710.694	-2.92
710.722	5.08
710.749	7.08
710.776	-4.92
710.804	16.08
710.831	2.08
710.858	-10.92
710.885	-9.92
710.913	-1.92
710.94	27.08
710.967	-11.92
710.995	2.08
711.022	-0.92
711.049	3.08
711.076	-4.92
711.104	1.08
711.131	-3.92
711.158	-3.92
711.185	4.08
711.213	-9.92
711.24	-2.92
711.267	0.08
711.294	9.08
711.322	21.08
711.349	10.08
711.376	-2.92
711.403	8.08
711.431	6.08
711.458	-6.92
711.485	-2.92
711.512	5.08
711.54	-3.92
711.567	-2.92
711.594	-9.92
711.621	-15.92
711.648	0.08
711.676	1.08
711.703	4.08
711.73	-5.92
711.757	16.08
711.784	-5.92
711.812	15.08
711.839	2.08
711.866	6.08
711.893	0.08
711.92	22.08
711.947	11.08
711.975	25.08
712.002	-6.92
712.029	20.08
712.056	-0.92
712.083	3.08
712.11	-9.92
712.138	-3.92
712.165	0.08
712.192	14.08
712.219	2.08
712.246	-4.92
712.273	-6.92
712.3	-11.92
712.328	7.08
712.355	6.08
712.382	-11.92
712.409	5.08
712.436	-12.92
712.463	25.08
712.49	15.08
712.517	4.08
712.544	13.08
712.572	2.08
712.599	3.08
712.626	6.08
712.653	-6.92
712.68	-0.92
712.707	18.08
712.734	11.08
712.761	3.08
712.788	12.08
712.815	4.08
712.842	15.08
712.87	5.08
712.897	-2.92
712.924	-3.92
712.951	-6.92
712.978	28.08
713.005	14.08
713.032	4.08
713.059	-0.92
713.086	3.08
713.113	-2.92
713.14	-12.92
713.167	12.08
713.194	11.08
713.221	-5.92
713.248	5.08
713.275	3.08
713.302	-0.92
713.329	5.08
713.356	3.08
713.383	5.08
713.41	11.08
713.437	-9.92
713.464	7.08
713.491	14.08
713.518	3.08
713.545	-1.92
713.572	-12.92
713.599	25.08
713.626	8.08
713.653	15.08
713.68	-2.92
713.707	11.08
713.734	3.08
713.761	-7.92
713.788	-4.92
713.815	1.08
713.842	0.08
713.869	7.08
713.896	-2.92
713.923	0.08
713.95	0.08
713.977	-13.92
714.004	-1.92
714.031	-5.92
714.058	-0.92
714.085	-2.92
714.112	10.08
714.139	11.08
714.165	0.08
714.192	-7.92
714.219	0.08
714.246	-0.92
714.273	-2.92
714.3	-9.92
714.327	-2.92
714.354	7.08
714.381	4.08
714.408	1.08
714.435	3.08
714.461	-0.92
714.488	9.08
714.515	-4.92
714.542	4.08
714.569	-2.92
714.596	-19.92
714.623	4.08
714.65	-11.92
714.677	11.08
714.703	-4.92
714.73	9.08
714.757	7.08
714.784	-2.92
714.811	-3.92
714.838	24.08
714.865	15.08
714.891	18.08
714.918	1.08
714.945	-11.92
714.972	-3.92
714.999	23.08
715.026	-6.92
715.052	2.08
715.079	-6.92
715.106	-2.92
715.133	2.08
715.16	-16.92
715.187	2.08
715.213	18.08
715.24	-4.92
715.267	1.08
715.294	-2.92
715.321	2.08
715.347	7.08
715.374	-0.92
715.401	-0.92
715.428	8.08
715.455	-10.92
715.481	-8.92
715.508	4.08
715.535	-12.92
715.562	8.08
715.588	-3.92
715.615	14.08
715.642	5.08
715.669	20.08
715.695	0.08
715.722	-0.92
715.749	0.08
715.776	5.08
715.802	12.08
715.829	6.08
715.856	-6.92
715.883	7.08
715.909	-6.92
715.936	6.08
715.963	5.08
715.99	-26.92
716.016	-6.92
716.043	7.08
716.07	4.08
716.096	-2.92
716.123	-5.92
716.15	-4.92
716.177	11.08
716.203	5.08
716.23	10.08
716.257	3.08
716.283	-0.92
716.31	2.08
716.337	6.08
716.363	-7.92
716.39	-18.92
716.417	7.08
716.443	-4.92
716.47	20.08
716.497	12.08
716.523	4.08
716.55	20.08
716.577	5.08
716.603	-7.92
716.63	16.08
716.657	17.08
716.683	-7.92
716.71	-1.92
716.737	-10.92
716.763	9.08
716.79	8.08
716.817	15.08
716.843	-6.92
716.87	-10.92
716.897	6.08
716.923	22.08
716.95	-2.92
716.976	-8.92
717.003	0.08
717.03	2.08
717.056	-4.92
717.083	23.08
717.109	15.08
717.136	16.08
717.163	1.08
717.189	11.08
717.216	7.08
717.242	13.08
717.269	4.08
717.296	14.08
717.322	-2.92
717.349	-6.92
717.375	9.08
717.402	-12.92
717.428	12.08
717.455	15.08
717.481	-0.92
717.508	-6.92
717.535	3.08
717.561	1.08
717.588	7.08
717.614	12.08
717.641	5.08
717.667	-0.92
717.694	7.08
717.72	2.08
717.747	17.08
717.773	-1.92
717.8	-0.92
717.826	14.08
717.853	17.08
717.88	20.08
717.906	8.08
717.933	17.08
717.959	12.08
717.986	0.08
718.012	0.08
718.039	5.08
718.065	8.08
718.092	8.08
718.118	-12.92
718.144	-1.92
718.171	18.08
718.197	15.08
718.224	14.08
718.25	6.08
718.277	0.08
718.303	6.08
718.33	-10.92
718.356	5.08
718.383	-1.92
718.409	-1.92
718.436	6.08
718.462	6.08
718.489	3.08
718.515	9.08
718.541	7.08
718.568	8.08
718.594	7.08
718.621	12.08
718.647	1.08
718.674	12.08
718.7	11.08
718.726	-5.92
718.753	11.08
718.779	11.08
718.806	-5.92
718.832	-6.92
718.858	-5.92
718.885	-7.92
718.911	-3.92
718.938	6.08
718.964	-7.92
718.99	3.08
719.017	-0.92
719.043	6.08
719.07	14.08
719.096	5.08
719.122	0.08
719.149	-4.92
719.175	-6.92
719.201	7.08
719.228	-0.92
719.254	0.08
719.281	-4.92
719.307	9.08
719.333	-1.92
719.36	5.08
719.386	13.08
719.412	24.08
719.439	-0.92
719.465	0.08
719.491	-14.92
719.518	5.08
719.544	3.08
719.57	9.08
719.597	5.08
719.623	10.08
719.649	12.08
719.675	1.08
719.702	-3.92
719.728	14.08
719.754	3.08
719.781	11.08
719.807	-2.92
719.833	5.08
719.86	-0.92
719.886	-9.92
719.912	-2.92
719.938	-12.92
719.965	4.08
719.991	5.08
720.017	11.08
720.044	2.08
720.07	4.08
720.096	6.08
720.122	6.08
720.149	11.08
720.175	26.08
720.201	7.08
720.227	-7.92
720.254	2.08
720.28	-2.92
720.306	-7.92
720.332	-0.92
720.359	-5.92
720.385	-2.92
720.411	15.08
720.437	11.08
720.463	-4.92
720.49	13.08
720.516	-7.92
720.542	-20.92
720.568	11.08
720.595	6.08
720.621	6.08
720.647	5.08
720.673	19.08
720.699	3.08
720.725	7.08
720.752	21.08
720.778	21.08
720.804	16.08
720.83	10.08
720.856	-0.92
720.883	5.08
720.909	4.08
720.935	16.08
720.961	31.08
720.987	15.08
721.013	11.08
721.04	4.08
721.066	-6.92
721.092	3.08
721.118	16.08
721.144	11.08
721.17	0.08
721.196	-6.92
721.223	-6.92
721.249	-6.92
721.275	14.08
721.301	4.08
721.327	6.08
721.353	18.08
721.379	-2.92
721.405	25.08
721.432	9.08
721.458	-3.92
721.484	0.08
721.51	-14.92
721.536	3.08
721.562	-0.92
721.588	-0.92
721.614	-5.92
721.64	16.08
721.666	-1.92
721.693	4.08
721.719	-8.92
721.745	-8.92
721.771	-6.92
721.797	1.08
721.823	-6.92
721.849	19.08
721.875	9.08
721.901	0.08
721.927	-1.92
721.953	11.08
721.979	17.08
722.005	12.08
722.031	-0.92
722.057	20.08
722.083	5.08
722.109	16.08
722.135	23.08
722.161	30.08
722.187	-3.92
722.214	-0.92
722.24	0.08
722.266	-2.92
722.292	9.08
722.318	20.08
722.344	8.08
722.37	9.08
722.396	3.08
722.422	-3.92
722.448	15.08
722.474	7.08
722.5	11.08
722.526	-0.92
722.552	8.08
722.578	9.08
722.603	8.08
722.629	5.08
722.655	0.08
722.681	-4.92
722.707	7.08
722.733	-1.92
722.759	-6.92
722.785	9.08
722.811	12.08
722.837	-0.92
722.863	12.08
722.889	19.08
722.915	1.08
722.941	0.08
722.967	8.08
722.993	23.08
723.019	12.08
723.045	0.08
723.071	18.08
723.097	15.08
723.122	9.08
723.148	0.08
723.174	-4.92
723.2	6.08
723.226	2.08
723.252	-1.92
723.278	1.08
723.304	-3.92
723.33	12.08
723.356	-4.92
723.381	-16.92
723.407	-4.92
723.433	32.08
723.459	-3.92
723.485	0.08
723.511	18.08
723.537	16.08
723.563	5.08
723.588	24.08
723.614	8.08
723.64	9.08
723.666	4.08
723.692	17.08
723.718	3.08
723.744	17.08
723.769	-0.92
723.795	3.08
723.821	12.08
723.847	3.08
723.873	-2.92
723.899	6.08
723.924	1.08
723.95	12.08
723.976	-10.92
724.002	8.08
724.028	-8.92
724.053	-5.92
724.079	22.08
724.105	0.08
724.131	0.08
724.157	-1.92
724.182	1.08
724.208	4.08
724.234	3.08
724.26	-2.92
724.286	14.08
724.311	0.08
724.337	-2.92
724.363	-10.92
724.389	-3.92
724.415	-2.92
724.44	17.08
724.466	-4.92
724.492	3.08
724.518	11.08
724.543	8.08
724.569	10.08
724.595	7.08
724.621	8.08
724.646	1.08
724.672	9.08
724.698	-2.92
724.723	-12.92
724.749	5.08
724.775	18.08
724.801	-0.92
724.826	-2.92
724.852	15.08
724.878	-5.92
724.904	-4.92
724.929	-4.92
724.955	-4.92
724.981	0.08
725.006	7.08
725.032	7.08
725.058	12.08
725.083	-1.92
725.109	-3.92
725.135	5.08
725.161	-2.92
725.186	20.08
725.212	-4.92
725.238	15.08
725.263	-5.92
725.289	-0.92
725.315	8.08
725.34	6.08
725.366	14.08
725.392	-2.92
725.417	-4.92
725.443	3.08
725.468	-4.92
725.494	-3.92
725.52	4.08
725.545	0.08
725.571	8.08
725.597	11.08
725.622	-0.92
725.648	15.08
725.674	2.08
725.699	1.08
725.725	-1.92
725.75	19.08
725.776	-8.92
725.802	2.08
725.827	11.08
725.853	12.08
725.878	8.08
725.904	10.08
725.93	9.08
725.955	-6.92
725.981	-12.92
726.006	-0.92
726.032	9.08
726.057	1.08
726.083	-5.92
726.109	-2.92
726.134	14.08
726.16	13.08
726.185	2.08
726.211	-4.92
726.236	20.08
726.262	13.08
726.288	15.08
726.313	11.08
726.339	14.08
726.364	-0.92
726.39	12.08
726.415	-0.92
726.441	4.08
726.466	-20.92
726.492	-4.92
726.517	-8.92
726.543	-9.92
726.568	-0.92
726.594	7.08
726.619	-1.92
726.645	4.08
726.67	-0.92
726.696	11.08
726.721	6.08
726.747	-6.92
726.772	7.08
726.798	-0.92
726.823	0.08
726.849	-7.92
726.874	20.08
726.9	30.08
726.925	8.08
726.951	15.08
726.976	24.08
727.002	-1.92
727.027	7.08
727.053	13.08
727.078	-0.92
727.104	-7.92
727.129	-9.92
727.155	-12.92
727.18	0.08
727.205	3.08
727.231	-3.92
727.256	4.08
727.282	23.08
727.307	16.08
727.333	11.08
727.358	13.08
727.383	-6.92
727.409	-4.92
727.434	8.08
727.46	-1.92
727.485	6.08
727.511	4.08
727.536	-7.92
727.561	10.08
727.587	16.08
727.612	7.08
727.637	-5.92
727.663	-10.92
727.688	2.08
727.714	-12.92
727.739	-7.92
727.764	-5.92
727.79	-0.92
727.815	20.08
727.841	19.08
727.866	20.08
727.891	17.08
727.917	8.08
727.942	9.08
727.967	10.08
727.993	-6.92
728.018	12.08
728.043	18.08
728.069	8.08
728.094	5.08
728.119	1.08
728.145	24.08
728.17	4.08
728.195	6.08
728.221	12.08
728.246	13.08
728.271	-2.92
728.297	1.08
728.322	10.08
728.347	8.08
728.373	8.08
728.398	10.08
728.423	-0.92
728.448	2.08
728.474	9.08
728.499	20.08
728.524	-9.92
728.55	-2.92
728.575	3.08
728.6	0.08
728.625	7.08
728.651	8.08
728.676	7.08
728.701	1.08
728.727	0.08
728.752	-5.92
728.777	-10.92
728.802	5.08
728.828	11.08
728.853	5.08
728.878	1.08
728.903	-5.92
728.929	-7.92
728.954	1.08
728.979	16.08
729.004	4.08
729.03	-9.92
729.055	15.08
729.08	-5.92
729.105	-5.92
729.13	4.08
729.156	4.08
729.181	-8.92
729.206	-16.92
729.231	-0.92
729.256	8.08
729.282	17.08
729.307	-2.92
729.332	-11.92
729.357	-2.92
729.382	-10.92
729.408	0.08
729.433	8.08
729.458	3.08
729.483	22.08
729.508	22.08
729.533	11.08
729.559	23.08
729.584	7.08
729.609	0.08
729.634	3.08
729.659	7.08
729.684	13.08
729.71	36.08
729.735	8.08
729.76	-2.92
729.785	4.08
729.81	16.08
729.835	13.08
729.86	8.08
729.886	16.08
729.911	13.08
729.936	7.08
729.961	25.08
729.986	9.08
730.011	61.08
730.036	215.08
730.061	998.08
730.086	2688.08
730.112	3392.08
730.137	2880.08
730.162	2102.08
730.187	1676.08
730.212	1287.08
730.237	824.08
730.262	445.08
730.287	248.08
730.312	167.08
730.337	81.08
730.362	69.08
730.387	27.08
730.413	23.08
730.438	1.08
730.463	17.08
730.488	4.08
730.513	8.08
730.538	-3.92
730.563	19.08
730.588	17.08
730.613	37.08
730.638	15.08
730.663	7.08
730.688	19.08
730.713	6.08
730.738	10.08
730.763	5.08
730.788	-16.92
730.813	23.08
730.838	-0.92
730.863	6.08
730.888	5.08
730.913	-3.92
730.938	10.08
730.963	34.08
730.988	116.08
731.013	403.08
731.038	629.08
731.063	614.08
731.088	479.08
731.113	349.08
731.138	281.08
731.163	191.08
731.188	95.08
731.213	56.08
731.238	50.08
731.263	15.08
731.288	24.08
731.313	19.08
731.338	13.08
731.363	17.08
731.388	13.08
731.413	-8.92
731.438	14.08
731.463	28.08
731.487	9.08
731.512	12.08
731.537	-2.92
731.562	-9.92
731.587	13.08
731.612	5.08
731.637	2.08
731.662	-6.92
731.687	4.08
731.712	-11.92
731.737	5.08
731.762	-12.92
731.786	4.08
731.811	8.08
731.836	8.08
731.861	-1.92
731.886	0.08
731.911	6.08
731.936	12.08
731.961	-9.92
731.986	1.08
732.01	4.08
732.035	11.08
732.06	29.08
732.085	3.08
732.11	-11.92
732.135	-12.92
732.16	-9.92
732.184	-4.92
732.209	12.08
732.234	16.08
732.259	2.08
732.284	23.08
732.309	-16.92
732.334	3.08
732.358	3.08
732.383	-14.92
732.408	7.08
732.433	8.08
732.458	18.08
732.482	1.08
732.507	4.08
732.532	-4.92
732.557	21.08
732.582	8.08
732.607	45.08
732.631	59.08
732.656	96.08
732.681	143.08
732.706	337.08
732.73	448.08
732.755	395.08
732.78	300.08
732.805	232.08
732.83	166.08
732.854	116.08
732.879	92.08
732.904	37.08
732.929	17.08
732.953	26.08
732.978	0.08
733.003	2.08
733.028	-2.92
733.052	7.08
733.077	4.08
733.102	12.08
733.127	4.08
733.151	1.08
733.176	5.08
733.201	3.08
733.226	4.08
733.25	17.08
733.275	-1.92
733.3	-3.92
733.324	11.08
733.349	8.08
733.374	14.08
733.399	2.08
733.423	26.08
733.448	-7.92
733.473	-13.92
733.497	-7.92
733.522	-8.92
733.547	13.08
733.571	26.08
733.596	12.08
733.621	1.08
733.646	1.08
733.67	2.08
733.695	-5.92
733.72	12.08
733.744	7.08
733.769	13.08
733.794	20.08
733.818	11.08
733.843	-2.92
733.867	4.08
733.892	12.08
733.917	-4.92
733.941	-0.92
733.966	-12.92
733.991	8.08
734.015	18.08
734.04	13.08
734.065	15.08
734.089	7.08
734.114	6.08
734.138	-0.92
734.163	8.08
734.188	21.08
734.212	7.08
734.237	5.08
734.261	-6.92
734.286	2.08
734.311	8.08
734.335	3.08
734.36	-0.92
734.384	-3.92
734.409	-3.92
734.434	-16.92
734.458	8.08
734.483	-0.92
734.507	-8.92
734.532	4.08
734.556	10.08
734.581	6.08
734.606	-3.92
734.63	-6.92
734.655	1.08
734.679	3.08
734.704	7.08
734.728	14.08
734.753	2.08
734.777	23.08
734.802	16.08
734.826	17.08
734.851	-4.92
734.876	18.08
734.9	20.08
734.925	17.08
734.949	7.08
734.974	1.08
734.998	12.08
735.023	-4.92
735.047	-20.92
735.072	9.08
735.096	9.08
735.121	7.08
735.145	10.08
735.17	10.08
735.194	12.08
735.219	6.08
735.243	18.08
735.268	20.08
735.292	16.08
735.317	9.08
735.341	1.08
735.365	-25.92
735.39	7.08
735.414	20.08
735.439	1.08
735.463	7.08
735.488	6.08
735.512	-3.92
735.537	-0.92
735.561	10.08
735.586	-2.92
735.61	-2.92
735.634	4.08
735.659	12.08
735.683	12.08
735.708	-7.92
735.732	-7.92
735.757	-5.92
735.781	5.08
735.805	5.08
735.83	-2.92
735.854	-8.92
735.879	-6.92
735.903	6.08
735.927	1.08
735.952	4.08
735.976	-10.92
736.001	-1.92
736.025	0.08
736.049	3.08
736.074	-9.92
736.098	2.08
736.123	-1.92
736.147	-7.92
736.171	3.08
736.196	7.08
736.22	-10.92
736.244	19.08
736.269	-5.92
736.293	12.08
736.317	-3.92
736.342	6.08
736.366	21.08
736.39	21.08
736.415	3.08
736.439	11.08
736.463	29.08
736.488	20.08
736.512	11.08
736.536	5.08
736.561	7.08
736.585	6.08
736.609	13.08
736.634	1.08
736.658	5.08
736.682	-10.92
736.707	4.08
736.731	-7.92
736.755	-18.92
736.78	11.08
736.804	18.08
736.828	16.08
736.852	-2.92
736.877	4.08
736.901	5.08
736.925	13.08
736.949	19.08
736.974	8.08
736.998	-6.92
737.022	14.08
737.047	-3.92
737.071	-0.92
737.095	-0.92
737.119	25.08
737.144	14.08
737.168	-4.92
737.192	-1.92
737.216	16.08
737.241	-6.92
737.265	-0.92
737.289	-3.92
737.313	-13.92
737.337	16.08
737.362	13.08
737.386	3.08
737.41	1.08
737.434	-0.92
737.459	0.08
737.483	11.08
737.507	9.08
737.531	12.08
737.555	3.08
737.58	8.08
737.604	16.08
737.628	9.08
737.652	-18.92
737.676	-9.92
737.701	-0.92
737.725	5.08
737.749	23.08
737.773	-5.92
737.797	-16.92
737.821	0.08
737.846	-3.92
737.87	16.08
737.894	-0.92
737.918	3.08
737.942	4.08
737.966	3.08
737.99	14.08
738.015	14.08
738.039	-3.92
738.063	-11.92
738.087	6.08
738.111	7.08
738.135	13.08
738.159	-7.92
738.184	0.08
738.208	6.08
738.232	24.08
738.256	13.08
738.28	7.08
738.304	13.08
738.328	-12.92
738.352	17.08
738.376	-8.92
738.4	14.08
738.425	9.08
738.449	-6.92
738.473	19.08
738.497	1.08
738.521	12.08
738.545	1.08
738.569	4.08
738.593	15.08
738.617	14.08
738.641	6.08
738.665	-22.92
738.689	10.08
738.713	-12.92
738.737	5.08
738.762	5.08
738.786	10.08
738.81	-2.92
738.834	12.08
738.858	-7.92
738.882	17.08
738.906	-0.92
738.93	-7.92
738.954	4.08
738.978	9.08
739.002	1.08
739.026	23.08
739.05	4.08
739.074	-3.92
739.098	11.08
739.122	20.08
739.146	16.08
739.17	12.08
739.194	6.08
739.218	-5.92
739.242	11.08
739.266	4.08
739.29	29.08
739.314	13.08
739.338	11.08
739.362	9.08
739.386	0.08
739.41	-19.92
739.434	3.08
739.458	24.08
739.482	28.08
739.506	14.08
739.53	3.08
739.554	19.08
739.577	-10.92
739.601	4.08
739.625	0.08
739.649	10.08
739.673	1.08
739.697	17.08
739.721	-7.92
739.745	19.08
739.769	17.08
739.793	8.08
739.817	5.08
739.841	-2.92
739.865	7.08
739.889	-15.92
739.912	13.08
739.936	2.08
739.96	-0.92
739.984	7.08
740.008	5.08
740.032	6.08
740.056	-2.92
740.08	-2.92
740.104	5.08
740.127	10.08
740.151	4.08
740.175	1.08
740.199	0.08
740.223	32.08
740.247	-2.92
740.271	1.08
740.295	10.08
740.318	0.08
740.342	-12.92
740.366	-5.92
740.39	4.08
740.414	0.08
740.438	-4.92
740.461	30.08
740.485	0.08
740.509	1.08
740.533	11.08
740.557	1.08
740.581	-2.92
740.604	4.08
740.628	11.08
740.652	11.08
740.676	11.08
740.7	16.08
740.723	-4.92
740.747	-4.92
740.771	4.08
740.795	4.08
740.819	10.08
740.842	0.08
740.866	11.08
740.89	-3.92
740.914	-11.92
740.938	-7.92
740.961	13.08
740.985	5.08
741.009	-0.92
741.033	20.08
741.056	3.08
741.08	5.08
741.104	0.08
741.128	13.08
741.151	9.08
741.175	1.08
741.199	21.08
741.223	24.08
741.246	-1.92
741.27	25.08
741.294	8.08
741.318	-9.92
741.341	-3.92
741.365	-0.92
741.389	12.08
741.413	14.08
741.436	19.08
741.46	3.08
741.484	9.08
741.507	3.08
741.531	38.08
741.555	12.08
741.579	7.08
741.602	3.08
741.626	29.08
741.65	4.08
741.673	7.08
741.697	29.08
741.721	11.08
741.744	1.08
741.768	-13.92
741.792	0.08
741.815	-4.92
741.839	16.08
741.863	35.08
741.886	28.08
741.91	17.08
741.934	8.08
741.957	-3.92
741.981	24.08
742.005	7.08
742.028	5.08
742.052	3.08
742.075	0.08
742.099	28.08
742.123	11.08
742.146	7.08
742.17	9.08
742.194	4.08
742.217	4.08
742.241	8.08
742.264	15.08
742.288	21.08
742.312	12.08
742.335	23.08
742.359	-2.92
742.382	8.08
742.406	16.08
742.43	-1.92
742.453	4.08
742.477	-14.92
742.5	18.08
742.524	-2.92
742.548	1.08
742.571	2.08
742.595	8.08
742.618	0.08
742.642	-2.92
742.665	5.08
742.689	-0.92
742.712	8.08
742.736	-3.92
742.76	14.08
742.783	15.08
742.807	16.08
742.83	17.08
742.854	-5.92
742.877	4.08
742.901	-2.92
742.924	2.08
742.948	3.08
742.971	2.08
742.995	4.08
743.018	-7.92
743.042	-3.92
743.065	4.08
743.089	-0.92
743.112	1.08
743.136	1.08
743.159	-3.92
743.183	6.08
743.206	15.08
743.23	-0.92
743.253	9.08
743.277	24.08
743.3	-0.92
743.324	3.08
743.347	-9.92
743.371	17.08
743.394	15.08
743.418	26.08
743.441	21.08
743.465	1.08
743.488	8.08
743.512	8.08
743.535	1.08
743.558	0.08
743.582	17.08
743.605	5.08
743.629	9.08
743.652	10.08
743.676	-6.92
743.699	13.08
743.723	25.08
743.746	22.08
743.769	-5.92
743.793	3.08
743.816	0.08
743.84	20.08
743.863	11.08
743.886	0.08
743.91	12.08
743.933	4.08
743.957	16.08
743.98	-2.92
744.003	-7.92
744.027	19.08
744.05	3.08
744.074	19.08
744.097	-32.92
744.12	7.08
744.144	3.08
744.167	7.08
744.19	0.08
744.214	14.08
744.237	-10.92
744.26	5.08
744.284	13.08
744.307	-14.92
744.331	8.08
744.354	4.08
744.377	7.08
744.401	-5.92
744.424	-0.92
744.447	-2.92
744.471	-6.92
