Data from HighRes_mercury_15_13_11_07_2024_HR4C61891__6__15-14-23-786.txt Node

Date: Thu Nov 07 15:14:23 EST 2024
User: crc00042
Spectrometer: HR4C6189
Trigger mode: 4
Integration Time (sec): 1.000000E-1
Scans to average: 1
Electric dark correction enabled: true
Nonlinearity correction enabled: false
Boxcar width: 0
XAxis mode: Wavelengths
Number of Pixels in Spectrum: 3648
>>>>>Begin Spectral Data<<<<<
639.567	-77.69
639.602	-77.69
639.636	-77.69
639.67	-33.69
639.704	-1.69
639.738	0.31
639.773	8.31
639.807	-23.69
639.841	-3.69
639.875	16.31
639.909	-1.69
639.943	2.31
639.978	-2.69
640.012	-5.69
640.046	32.31
640.08	-17.69
640.114	4.31
640.148	-8.69
640.182	-4.69
640.217	-19.69
640.251	12.31
640.285	-6.69
640.319	-11.69
640.353	-1.69
640.387	-3.69
640.421	11.31
640.455	-12.69
640.49	-1.69
640.524	-2.69
640.558	2.31
640.592	-2.69
640.626	-6.69
640.66	9.31
640.694	-2.69
640.728	5.31
640.762	0.31
640.796	3.31
640.83	21.31
640.865	0.31
640.899	-9.69
640.933	-7.69
640.967	8.31
641.001	5.31
641.035	-14.69
641.069	13.31
641.103	-11.69
641.137	-19.69
641.171	-3.69
641.205	8.31
641.239	11.31
641.273	9.31
641.307	-0.69
641.341	7.31
641.375	-20.69
641.409	-8.69
641.443	4.31
641.477	-1.69
641.511	-1.69
641.545	-2.69
641.579	-2.69
641.614	4.31
641.648	1.31
641.682	3.31
641.716	9.31
641.75	13.31
641.784	-2.69
641.818	-0.69
641.852	5.31
641.886	5.31
641.919	12.31
641.953	-0.69
641.987	-7.69
642.021	-1.69
642.055	4.31
642.089	0.31
642.123	-27.69
642.157	-10.69
642.191	-13.69
642.225	1.31
642.259	-1.69
642.293	2.31
642.327	-17.69
642.361	2.31
642.395	7.31
642.429	19.31
642.463	19.31
642.497	24.31
642.531	8.31
642.565	4.31
642.599	5.31
642.633	-7.69
642.666	-0.69
642.7	-4.69
642.734	-2.69
642.768	-14.69
642.802	-9.69
642.836	2.31
642.87	-10.69
642.904	13.31
642.938	0.31
642.972	1.31
643.005	-6.69
643.039	8.31
643.073	-8.69
643.107	16.31
643.141	7.31
643.175	3.31
643.209	-7.69
643.243	6.31
643.276	5.31
643.31	-21.69
643.344	-11.69
643.378	4.31
643.412	16.31
643.446	0.31
643.48	-12.69
643.513	-6.69
643.547	-4.69
643.581	-5.69
643.615	9.31
643.649	-1.69
643.683	3.31
643.716	5.31
643.75	23.31
643.784	-2.69
643.818	13.31
643.852	5.31
643.886	-15.69
643.919	3.31
643.953	-1.69
643.987	6.31
644.021	20.31
644.055	0.31
644.088	-4.69
644.122	-3.69
644.156	-2.69
644.19	4.31
644.224	-3.69
644.257	3.31
644.291	8.31
644.325	0.31
644.359	-0.69
644.392	17.31
644.426	14.31
644.46	1.31
644.494	6.31
644.527	-1.69
644.561	15.31
644.595	-1.69
644.629	-8.69
644.662	6.31
644.696	17.31
644.73	8.31
644.764	24.31
644.797	-1.69
644.831	-1.69
644.865	-2.69
644.899	-14.69
644.932	17.31
644.966	-1.69
645	12.31
645.033	0.31
645.067	-26.69
645.101	13.31
645.135	1.31
645.168	-8.69
645.202	-18.69
645.236	-6.69
645.269	-4.69
645.303	3.31
645.337	1.31
645.37	-11.69
645.404	0.31
645.438	-19.69
645.471	11.31
645.505	14.31
645.539	13.31
645.572	-15.69
645.606	-1.69
645.64	10.31
645.673	4.31
645.707	16.31
645.741	-9.69
645.774	-17.69
645.808	-1.69
645.842	6.31
645.875	9.31
645.909	-10.69
645.943	-14.69
645.976	11.31
646.01	14.31
646.043	4.31
646.077	6.31
646.111	3.31
646.144	8.31
646.178	4.31
646.212	-3.69
646.245	2.31
646.279	14.31
646.312	8.31
646.346	-0.69
646.38	-12.69
646.413	12.31
646.447	4.31
646.48	-14.69
646.514	2.31
646.547	-15.69
646.581	-7.69
646.615	-1.69
646.648	-6.69
646.682	3.31
646.715	-8.69
646.749	23.31
646.782	1.31
646.816	-6.69
646.85	10.31
646.883	7.31
646.917	-4.69
646.95	5.31
646.984	-7.69
647.017	-3.69
647.051	3.31
647.084	-4.69
647.118	-14.69
647.151	2.31
647.185	-0.69
647.218	-11.69
647.252	17.31
647.285	-1.69
647.319	-6.69
647.353	9.31
647.386	14.31
647.42	9.31
647.453	4.31
647.487	4.31
647.52	17.31
647.553	7.31
647.587	-10.69
647.62	0.31
647.654	-4.69
647.687	-6.69
647.721	-1.69
647.754	-2.69
647.788	-5.69
647.821	-10.69
647.855	-2.69
647.888	-3.69
647.922	10.31
647.955	8.31
647.989	1.31
648.022	5.31
648.055	-2.69
648.089	-9.69
648.122	16.31
648.156	5.31
648.189	8.31
648.223	-2.69
648.256	28.31
648.29	5.31
648.323	0.31
648.356	2.31
648.39	-1.69
648.423	-4.69
648.457	-7.69
648.49	6.31
648.523	16.31
648.557	1.31
648.59	3.31
648.624	-3.69
648.657	7.31
648.69	18.31
648.724	7.31
648.757	5.31
648.791	8.31
648.824	6.31
648.857	29.31
648.891	4.31
648.924	-1.69
648.957	10.31
648.991	-1.69
649.024	18.31
649.057	-12.69
649.091	-1.69
649.124	-1.69
649.158	15.31
649.191	10.31
649.224	3.31
649.258	12.31
649.291	12.31
649.324	16.31
649.358	3.31
649.391	2.31
649.424	1.31
649.458	9.31
649.491	10.31
649.524	3.31
649.557	3.31
649.591	-12.69
649.624	5.31
649.657	-3.69
649.691	0.31
649.724	5.31
649.757	10.31
649.791	-22.69
649.824	12.31
649.857	7.31
649.89	3.31
649.924	4.31
649.957	-0.69
649.99	-17.69
650.023	-12.69
650.057	9.31
650.09	7.31
650.123	6.31
650.157	11.31
650.19	16.31
650.223	9.31
650.256	3.31
650.29	-3.69
650.323	0.31
650.356	9.31
650.389	-0.69
650.423	-16.69
650.456	3.31
650.489	1.31
650.522	4.31
650.555	4.31
650.589	4.31
650.622	5.31
650.655	8.31
650.688	2.31
650.721	-3.69
650.755	10.31
650.788	2.31
650.821	-8.69
650.854	-6.69
650.887	1.31
650.921	6.31
650.954	9.31
650.987	0.31
651.02	-3.69
651.053	-9.69
651.087	-4.69
651.12	20.31
651.153	-10.69
651.186	-11.69
651.219	-23.69
651.252	-3.69
651.286	15.31
651.319	-17.69
651.352	-2.69
651.385	-7.69
651.418	6.31
651.451	22.31
651.484	10.31
651.518	-5.69
651.551	0.31
651.584	-17.69
651.617	9.31
651.65	11.31
651.683	7.31
651.716	2.31
651.749	-17.69
651.783	0.31
651.816	7.31
651.849	6.31
651.882	0.31
651.915	-1.69
651.948	10.31
651.981	-4.69
652.014	-9.69
652.047	-18.69
652.08	0.31
652.114	13.31
652.147	-8.69
652.18	3.31
652.213	36.31
652.246	15.31
652.279	-13.69
652.312	-5.69
652.345	11.31
652.378	1.31
652.411	5.31
652.444	-0.69
652.477	-19.69
652.51	0.31
652.543	-14.69
652.576	10.31
652.609	-10.69
652.642	14.31
652.675	15.31
652.709	-13.69
652.742	8.31
652.775	0.31
652.808	-9.69
652.841	7.31
652.874	7.31
652.907	14.31
652.94	-0.69
652.973	-6.69
653.006	-7.69
653.039	2.31
653.072	-1.69
653.105	4.31
653.138	-9.69
653.171	-1.69
653.204	-2.69
653.237	9.31
653.27	12.31
653.303	5.31
653.336	4.31
653.368	-1.69
653.401	-3.69
653.434	3.31
653.467	-2.69
653.5	-19.69
653.533	-20.69
653.566	-10.69
653.599	-11.69
653.632	-3.69
653.665	0.31
653.698	-18.69
653.731	-1.69
653.764	14.31
653.797	4.31
653.83	-0.69
653.863	0.31
653.896	8.31
653.929	9.31
653.961	7.31
653.994	10.31
654.027	-6.69
654.06	0.31
654.093	10.31
654.126	1.31
654.159	3.31
654.192	10.31
654.225	0.31
654.258	2.31
654.29	0.31
654.323	-1.69
654.356	-2.69
654.389	-2.69
654.422	11.31
654.455	9.31
654.488	-6.69
654.521	-18.69
654.553	-7.69
654.586	10.31
654.619	3.31
654.652	-10.69
654.685	2.31
654.718	2.31
654.751	6.31
654.783	-11.69
654.816	6.31
654.849	-9.69
654.882	5.31
654.915	-6.69
654.948	0.31
654.98	4.31
655.013	13.31
655.046	-5.69
655.079	-18.69
655.112	8.31
655.144	-4.69
655.177	5.31
655.21	-6.69
655.243	8.31
655.276	-2.69
655.308	4.31
655.341	-0.69
655.374	15.31
655.407	-0.69
655.44	-6.69
655.472	7.31
655.505	-5.69
655.538	0.31
655.571	17.31
655.603	-0.69
655.636	-10.69
655.669	4.31
655.702	0.31
655.734	-13.69
655.767	-3.69
655.8	6.31
655.833	-5.69
655.865	-13.69
655.898	-9.69
655.931	-13.69
655.964	-19.69
655.996	-7.69
656.029	0.31
656.062	3.31
656.095	-17.69
656.127	-16.69
656.16	2.31
656.193	3.31
656.225	15.31
656.258	0.31
656.291	12.31
656.324	1.31
656.356	13.31
656.389	13.31
656.422	3.31
656.454	5.31
656.487	12.31
656.52	3.31
656.552	1.31
656.585	-7.69
656.618	7.31
656.65	15.31
656.683	11.31
656.716	9.31
656.748	-10.69
656.781	-13.69
656.814	-27.69
656.846	-9.69
656.879	-18.69
656.912	-0.69
656.944	-6.69
656.977	11.31
657.01	-1.69
657.042	15.31
657.075	1.31
657.108	-3.69
657.14	25.31
657.173	23.31
657.205	31.31
657.238	4.31
657.271	1.31
657.303	-10.69
657.336	4.31
657.369	4.31
657.401	0.31
657.434	-4.69
657.466	-12.69
657.499	-21.69
657.532	-13.69
657.564	9.31
657.597	-0.69
657.629	0.31
657.662	-4.69
657.694	-2.69
657.727	-9.69
657.76	5.31
657.792	-18.69
657.825	-7.69
657.857	1.31
657.89	-13.69
657.922	11.31
657.955	-10.69
657.987	4.31
658.02	-3.69
658.053	-1.69
658.085	-2.69
658.118	1.31
658.15	6.31
658.183	17.31
658.215	-10.69
658.248	-0.69
658.28	-8.69
658.313	8.31
658.345	9.31
658.378	-3.69
658.41	-3.69
658.443	5.31
658.475	12.31
658.508	3.31
658.54	1.31
658.573	-3.69
658.605	3.31
658.638	6.31
658.67	-8.69
658.703	-6.69
658.735	-28.69
658.768	-5.69
658.8	-17.69
658.833	17.31
658.865	-9.69
658.898	-4.69
658.93	-16.69
658.963	-20.69
658.995	-28.69
659.028	-1.69
659.06	-4.69
659.092	-6.69
659.125	-4.69
659.157	4.31
659.19	-11.69
659.222	-17.69
659.255	2.31
659.287	3.31
659.32	-1.69
659.352	-2.69
659.384	3.31
659.417	0.31
659.449	8.31
659.482	2.31
659.514	11.31
659.546	-12.69
659.579	-4.69
659.611	-0.69
659.644	-1.69
659.676	-9.69
659.708	-9.69
659.741	-8.69
659.773	7.31
659.806	0.31
659.838	0.31
659.87	-8.69
659.903	1.31
659.935	1.31
659.967	7.31
660	11.31
660.032	-15.69
660.065	16.31
660.097	-5.69
660.129	-0.69
660.162	-3.69
660.194	-10.69
660.226	-7.69
660.259	-11.69
660.291	-1.69
660.323	0.31
660.356	6.31
660.388	-0.69
660.42	-9.69
660.453	15.31
660.485	7.31
660.517	2.31
660.55	15.31
660.582	8.31
660.614	20.31
660.647	-10.69
660.679	-15.69
660.711	-2.69
660.743	-20.69
660.776	-7.69
660.808	-15.69
660.84	-6.69
660.873	-7.69
660.905	9.31
660.937	-13.69
660.969	-13.69
661.002	-2.69
661.034	24.31
661.066	-27.69
661.099	2.31
661.131	12.31
661.163	13.31
661.195	-6.69
661.228	19.31
661.26	-9.69
661.292	-12.69
661.324	7.31
661.357	6.31
661.389	-9.69
661.421	9.31
661.453	-10.69
661.485	-1.69
661.518	3.31
661.55	-3.69
661.582	-14.69
661.614	-6.69
661.647	18.31
661.679	22.31
661.711	17.31
661.743	18.31
661.775	-10.69
661.808	7.31
661.84	-3.69
661.872	6.31
661.904	3.31
661.936	-9.69
661.969	-3.69
662.001	-16.69
662.033	-0.69
662.065	-24.69
662.097	18.31
662.129	14.31
662.162	-6.69
662.194	1.31
662.226	-12.69
662.258	-17.69
662.29	0.31
662.322	-17.69
662.355	-26.69
662.387	2.31
662.419	18.31
662.451	14.31
662.483	-1.69
662.515	-6.69
662.547	-8.69
662.58	-3.69
662.612	2.31
662.644	3.31
662.676	9.31
662.708	6.31
662.74	-14.69
662.772	-6.69
662.804	-3.69
662.836	7.31
662.869	-5.69
662.901	4.31
662.933	13.31
662.965	21.31
662.997	-0.69
663.029	-16.69
663.061	-3.69
663.093	-13.69
663.125	6.31
663.157	8.31
663.189	0.31
663.221	15.31
663.254	-3.69
663.286	8.31
663.318	-6.69
663.35	-5.69
663.382	-8.69
663.414	7.31
663.446	4.31
663.478	-1.69
663.51	28.31
663.542	0.31
663.574	-0.69
663.606	-6.69
663.638	-2.69
663.67	-15.69
663.702	-4.69
663.734	-3.69
663.766	15.31
663.798	-10.69
663.83	18.31
663.862	14.31
663.894	16.31
663.926	-4.69
663.958	6.31
663.99	8.31
664.022	5.31
664.054	8.31
664.086	-17.69
664.118	-20.69
664.15	-4.69
664.182	14.31
664.214	-1.69
664.246	7.31
664.278	3.31
664.31	20.31
664.342	-6.69
664.374	-14.69
664.406	3.31
664.438	-3.69
664.47	18.31
664.502	5.31
664.534	-0.69
664.566	15.31
664.598	14.31
664.63	-1.69
664.662	-4.69
664.693	13.31
664.725	-9.69
664.757	3.31
664.789	-17.69
664.821	-7.69
664.853	8.31
664.885	1.31
664.917	-4.69
664.949	-1.69
664.981	4.31
665.013	-17.69
665.045	-7.69
665.076	-13.69
665.108	-1.69
665.14	-10.69
665.172	10.31
665.204	3.31
665.236	12.31
665.268	17.31
665.3	-6.69
665.331	0.31
665.363	6.31
665.395	-10.69
665.427	1.31
665.459	-2.69
665.491	0.31
665.523	3.31
665.555	-10.69
665.586	2.31
665.618	0.31
665.65	-11.69
665.682	13.31
665.714	7.31
665.746	-20.69
665.777	-9.69
665.809	9.31
665.841	5.31
665.873	-9.69
665.905	10.31
665.937	15.31
665.968	1.31
666	-11.69
666.032	14.31
666.064	1.31
666.096	-4.69
666.127	4.31
666.159	-0.69
666.191	-0.69
666.223	7.31
666.255	4.31
666.286	-1.69
666.318	2.31
666.35	9.31
666.382	-7.69
666.413	-7.69
666.445	-28.69
666.477	-18.69
666.509	-3.69
666.54	5.31
666.572	-10.69
666.604	-7.69
666.636	5.31
666.667	12.31
666.699	10.31
666.731	12.31
666.763	-8.69
666.794	-6.69
666.826	-2.69
666.858	-15.69
666.89	1.31
666.921	-8.69
666.953	8.31
666.985	10.31
667.017	15.31
667.048	2.31
667.08	8.31
667.112	-17.69
667.143	-18.69
667.175	-1.69
667.207	2.31
667.238	8.31
667.27	6.31
667.302	5.31
667.334	5.31
667.365	8.31
667.397	-17.69
667.429	-0.69
667.46	16.31
667.492	1.31
667.524	-1.69
667.555	-8.69
667.587	-18.69
667.619	-1.69
667.65	10.31
667.682	9.31
667.714	23.31
667.745	5.31
667.777	-4.69
667.808	10.31
667.84	7.31
667.872	2.31
667.903	12.31
667.935	-3.69
667.967	6.31
667.998	23.31
668.03	-3.69
668.061	20.31
668.093	1.31
668.125	30.31
668.156	11.31
668.188	-7.69
668.22	0.31
668.251	-1.69
668.283	17.31
668.314	6.31
668.346	6.31
668.377	18.31
668.409	4.31
668.441	10.31
668.472	15.31
668.504	9.31
668.535	5.31
668.567	8.31
668.599	-6.69
668.63	5.31
668.662	-9.69
668.693	15.31
668.725	9.31
668.756	9.31
668.788	-10.69
668.819	11.31
668.851	-0.69
668.882	3.31
668.914	-13.69
668.946	0.31
668.977	4.31
669.009	-10.69
669.04	-15.69
669.072	6.31
669.103	8.31
669.135	8.31
669.166	1.31
669.198	11.31
669.229	8.31
669.261	9.31
669.292	-7.69
669.324	-12.69
669.355	0.31
669.387	-6.69
669.418	11.31
669.45	-0.69
669.481	-3.69
669.513	17.31
669.544	-3.69
669.576	-1.69
669.607	21.31
669.639	19.31
669.67	-11.69
669.701	-1.69
669.733	-9.69
669.764	3.31
669.796	-13.69
669.827	-11.69
669.859	2.31
669.89	2.31
669.922	13.31
669.953	6.31
669.985	1.31
670.016	7.31
670.047	3.31
670.079	5.31
670.11	-0.69
670.142	9.31
670.173	18.31
670.204	-1.69
670.236	15.31
670.267	-3.69
670.299	3.31
670.33	-6.69
670.362	13.31
670.393	1.31
670.424	14.31
670.456	-6.69
670.487	-9.69
670.518	-7.69
670.55	11.31
670.581	4.31
670.613	8.31
670.644	-7.69
670.675	-4.69
670.707	3.31
670.738	11.31
670.769	12.31
670.801	-6.69
670.832	-3.69
670.864	-4.69
670.895	16.31
670.926	5.31
670.958	3.31
670.989	8.31
671.02	2.31
671.052	-3.69
671.083	-7.69
671.114	-3.69
671.146	-3.69
671.177	2.31
671.208	-4.69
671.24	-10.69
671.271	4.31
671.302	15.31
671.333	1.31
671.365	0.31
671.396	-17.69
671.427	6.31
671.459	-2.69
671.49	9.31
671.521	0.31
671.553	-12.69
671.584	14.31
671.615	-14.69
671.646	17.31
671.678	-0.69
671.709	-16.69
671.74	-16.69
671.771	-24.69
671.803	-13.69
671.834	-2.69
671.865	-2.69
671.896	-5.69
671.928	-17.69
671.959	-16.69
671.99	-14.69
672.021	-7.69
672.053	3.31
672.084	-0.69
672.115	-0.69
672.146	-7.69
672.178	-2.69
672.209	-18.69
672.24	-11.69
672.271	23.31
672.303	-1.69
672.334	-0.69
672.365	4.31
672.396	2.31
672.427	8.31
672.459	0.31
672.49	20.31
672.521	2.31
672.552	3.31
672.583	-2.69
672.615	17.31
672.646	14.31
672.677	-7.69
672.708	5.31
672.739	0.31
672.77	0.31
672.802	7.31
672.833	-4.69
672.864	11.31
672.895	-6.69
672.926	-15.69
672.957	-13.69
672.989	7.31
673.02	0.31
673.051	-9.69
673.082	7.31
673.113	-1.69
673.144	17.31
673.175	2.31
673.206	-6.69
673.238	-0.69
673.269	8.31
673.3	-17.69
673.331	8.31
673.362	-2.69
673.393	-10.69
673.424	-4.69
673.455	0.31
673.487	-8.69
673.518	4.31
673.549	2.31
673.58	-15.69
673.611	5.31
673.642	-13.69
673.673	-15.69
673.704	-12.69
673.735	-13.69
673.766	-1.69
673.797	-5.69
673.828	1.31
673.86	-16.69
673.891	-27.69
673.922	-4.69
673.953	-3.69
673.984	-1.69
674.015	5.31
674.046	0.31
674.077	1.31
674.108	1.31
674.139	-1.69
674.17	-12.69
674.201	-3.69
674.232	-14.69
674.263	-23.69
674.294	0.31
674.325	-2.69
674.356	22.31
674.387	23.31
674.418	2.31
674.449	-8.69
674.48	-28.69
674.511	-15.69
674.542	3.31
674.573	-3.69
674.604	4.31
674.635	-2.69
674.666	-2.69
674.697	3.31
674.728	4.31
674.759	-5.69
674.79	0.31
674.821	-5.69
674.852	3.31
674.883	-16.69
674.914	3.31
674.945	3.31
674.976	-2.69
675.007	-7.69
675.038	-7.69
675.069	-6.69
675.1	-9.69
675.131	4.31
675.162	-16.69
675.193	-3.69
675.224	-5.69
675.254	3.31
675.285	4.31
675.316	-1.69
675.347	-18.69
675.378	-3.69
675.409	5.31
675.44	0.31
675.471	2.31
675.502	-25.69
675.533	-10.69
675.564	-2.69
675.595	-1.69
675.625	12.31
675.656	-10.69
675.687	1.31
675.718	-18.69
675.749	-0.69
675.78	-0.69
675.811	4.31
675.842	10.31
675.873	11.31
675.903	3.31
675.934	10.31
675.965	-6.69
675.996	12.31
676.027	8.31
676.058	12.31
676.089	14.31
676.119	-0.69
676.15	-5.69
676.181	-3.69
676.212	-9.69
676.243	-7.69
676.274	1.31
676.304	16.31
676.335	-8.69
676.366	4.31
676.397	-16.69
676.428	8.31
676.459	1.31
676.489	1.31
676.52	7.31
676.551	13.31
676.582	-1.69
676.613	0.31
676.643	1.31
676.674	3.31
676.705	4.31
676.736	-3.69
676.767	-4.69
676.797	0.31
676.828	1.31
676.859	-2.69
676.89	0.31
676.92	0.31
676.951	10.31
676.982	11.31
677.013	-0.69
677.044	23.31
677.074	49.31
677.105	4.31
677.136	-2.69
677.167	6.31
677.197	-4.69
677.228	-9.69
677.259	-2.69
677.289	2.31
677.32	-2.69
677.351	-1.69
677.382	-0.69
677.412	-8.69
677.443	17.31
677.474	0.31
677.505	-3.69
677.535	-0.69
677.566	-11.69
677.597	-16.69
677.627	-17.69
677.658	0.31
677.689	-4.69
677.72	2.31
677.75	2.31
677.781	2.31
677.812	6.31
677.842	4.31
677.873	18.31
677.904	3.31
677.934	7.31
677.965	-2.69
677.996	-1.69
678.026	-0.69
678.057	12.31
678.088	-15.69
678.118	4.31
678.149	-9.69
678.18	-7.69
678.21	-0.69
678.241	-4.69
678.272	-6.69
678.302	2.31
678.333	5.31
678.363	12.31
678.394	13.31
678.425	-8.69
678.455	2.31
678.486	12.31
678.517	-3.69
678.547	2.31
678.578	-3.69
678.608	0.31
678.639	14.31
678.67	16.31
678.7	-3.69
678.731	4.31
678.761	4.31
678.792	13.31
678.823	17.31
678.853	3.31
678.884	-7.69
678.914	4.31
678.945	8.31
678.975	-9.69
679.006	4.31
679.037	4.31
679.067	16.31
679.098	4.31
679.128	-7.69
679.159	-16.69
679.189	2.31
679.22	-13.69
679.25	-6.69
679.281	3.31
679.312	-0.69
679.342	-2.69
679.373	14.31
679.403	-0.69
679.434	-1.69
679.464	-9.69
679.495	-8.69
679.525	-13.69
679.556	-11.69
679.586	6.31
679.617	14.31
679.647	-7.69
679.678	-14.69
679.708	-9.69
679.739	-4.69
679.769	-4.69
679.8	3.31
679.83	-0.69
679.861	-12.69
679.891	-10.69
679.922	-15.69
679.952	-2.69
679.983	2.31
680.013	7.31
680.044	-5.69
680.074	3.31
680.105	17.31
680.135	0.31
680.165	14.31
680.196	4.31
680.226	4.31
680.257	0.31
680.287	-14.69
680.318	-13.69
680.348	-11.69
680.379	4.31
680.409	17.31
680.439	-6.69
680.47	-2.69
680.5	-16.69
680.531	-13.69
680.561	1.31
680.592	22.31
680.622	17.31
680.652	9.31
680.683	15.31
680.713	16.31
680.744	-10.69
680.774	-18.69
680.804	19.31
680.835	-3.69
680.865	-14.69
680.896	12.31
680.926	1.31
680.956	2.31
680.987	3.31
681.017	-4.69
681.047	-10.69
681.078	-7.69
681.108	8.31
681.139	12.31
681.169	3.31
681.199	-5.69
681.23	9.31
681.26	1.31
681.29	4.31
681.321	-5.69
681.351	-3.69
681.381	-33.69
681.412	-11.69
681.442	-0.69
681.472	5.31
681.503	4.31
681.533	13.31
681.563	-7.69
681.594	-4.69
681.624	10.31
681.654	-14.69
681.685	-0.69
681.715	-5.69
681.745	-1.69
681.775	4.31
681.806	0.31
681.836	0.31
681.866	1.31
681.897	2.31
681.927	-9.69
681.957	-16.69
681.987	-7.69
682.018	-6.69
682.048	-6.69
682.078	-1.69
682.109	24.31
682.139	18.31
682.169	10.31
682.199	-7.69
682.23	-10.69
682.26	-4.69
682.29	-1.69
682.32	6.31
682.351	-4.69
682.381	-4.69
682.411	0.31
682.441	5.31
682.472	0.31
682.502	7.31
682.532	10.31
682.562	3.31
682.592	5.31
682.623	-16.69
682.653	-14.69
682.683	-4.69
682.713	4.31
682.743	0.31
682.774	-17.69
682.804	5.31
682.834	16.31
682.864	-1.69
682.894	3.31
682.925	1.31
682.955	1.31
682.985	-13.69
683.015	9.31
683.045	6.31
683.076	-2.69
683.106	-10.69
683.136	-15.69
683.166	3.31
683.196	-7.69
683.226	2.31
683.257	2.31
683.287	-10.69
683.317	-16.69
683.347	-12.69
683.377	-2.69
683.407	14.31
683.437	14.31
683.468	3.31
683.498	-0.69
683.528	0.31
683.558	9.31
683.588	3.31
683.618	-5.69
683.648	-23.69
683.678	-2.69
683.708	3.31
683.739	-0.69
683.769	-3.69
683.799	0.31
683.829	14.31
683.859	15.31
683.889	7.31
683.919	-11.69
683.949	-11.69
683.979	-7.69
684.009	0.31
684.039	-2.69
684.07	-12.69
684.1	16.31
684.13	19.31
684.16	11.31
684.19	2.31
684.22	14.31
684.25	8.31
684.28	-13.69
684.31	3.31
684.34	1.31
684.37	19.31
684.4	-9.69
684.43	4.31
684.46	0.31
684.49	7.31
684.52	-2.69
684.55	4.31
684.58	12.31
684.61	7.31
684.64	-6.69
684.67	-3.69
684.7	-11.69
684.73	19.31
684.76	6.31
684.79	-5.69
684.82	-1.69
684.85	-9.69
684.88	5.31
684.91	5.31
684.94	-3.69
684.97	-14.69
685	-10.69
685.03	-8.69
685.06	-3.69
685.09	-7.69
685.12	14.31
685.15	7.31
685.18	2.31
685.21	2.31
685.24	19.31
685.27	9.31
685.3	-9.69
685.33	6.31
685.36	-0.69
685.39	-4.69
685.42	-14.69
685.45	-4.69
685.48	-26.69
685.51	-9.69
685.54	8.31
685.569	16.31
685.599	1.31
685.629	-0.69
685.659	-3.69
685.689	3.31
685.719	-7.69
685.749	-9.69
685.779	20.31
685.809	23.31
685.839	-9.69
685.869	1.31
685.898	10.31
685.928	10.31
685.958	0.31
685.988	11.31
686.018	-0.69
686.048	-12.69
686.078	9.31
686.108	12.31
686.137	2.31
686.167	17.31
686.197	-11.69
686.227	-1.69
686.257	-1.69
686.287	17.31
686.317	0.31
686.346	8.31
686.376	-7.69
686.406	-6.69
686.436	5.31
686.466	-13.69
686.496	0.31
686.525	4.31
686.555	-1.69
686.585	16.31
686.615	18.31
686.645	8.31
686.675	-10.69
686.704	-2.69
686.734	-1.69
686.764	-15.69
686.794	-4.69
686.824	-0.69
686.853	-2.69
686.883	11.31
686.913	-0.69
686.943	-13.69
686.973	7.31
687.002	20.31
687.032	1.31
687.062	-1.69
687.092	-0.69
687.121	-2.69
687.151	-1.69
687.181	-10.69
687.211	8.31
687.24	7.31
687.27	8.31
687.3	-3.69
687.33	7.31
687.359	-3.69
687.389	-9.69
687.419	-1.69
687.449	9.31
687.478	4.31
687.508	7.31
687.538	27.31
687.568	25.31
687.597	-14.69
687.627	5.31
687.657	-0.69
687.686	9.31
687.716	33.31
687.746	1.31
687.776	-22.69
687.805	7.31
687.835	4.31
687.865	12.31
687.894	10.31
687.924	-2.69
687.954	-5.69
687.983	13.31
688.013	10.31
688.043	-1.69
688.072	-2.69
688.102	17.31
688.132	15.31
688.161	2.31
688.191	-2.69
688.221	28.31
688.25	9.31
688.28	-2.69
688.31	-3.69
688.339	-0.69
688.369	-7.69
688.399	-6.69
688.428	-11.69
688.458	4.31
688.488	-3.69
688.517	17.31
688.547	-11.69
688.576	32.31
688.606	-1.69
688.636	-5.69
688.665	1.31
688.695	-3.69
688.725	23.31
688.754	5.31
688.784	6.31
688.813	15.31
688.843	-8.69
688.873	-6.69
688.902	-18.69
688.932	-10.69
688.961	-4.69
688.991	23.31
689.02	6.31
689.05	-0.69
689.08	8.31
689.109	7.31
689.139	0.31
689.168	-4.69
689.198	8.31
689.227	-1.69
689.257	1.31
689.287	10.31
689.316	-10.69
689.346	-2.69
689.375	-20.69
689.405	1.31
689.434	1.31
689.464	17.31
689.493	12.31
689.523	5.31
689.552	-3.69
689.582	-13.69
689.611	-9.69
689.641	3.31
689.67	0.31
689.7	-4.69
689.73	-1.69
689.759	4.31
689.789	16.31
689.818	3.31
689.848	3.31
689.877	17.31
689.906	0.31
689.936	-0.69
689.965	18.31
689.995	1.31
690.024	12.31
690.054	2.31
690.083	10.31
690.113	8.31
690.142	-12.69
690.172	-10.69
690.201	1.31
690.231	-9.69
690.26	-5.69
690.29	2.31
690.319	19.31
690.348	17.31
690.378	-0.69
690.407	3.31
690.437	-1.69
690.466	5.31
690.496	0.31
690.525	12.31
690.555	-2.69
690.584	-0.69
690.613	-7.69
690.643	0.31
690.672	9.31
690.702	8.31
690.731	-3.69
690.76	27.31
690.79	64.31
690.819	41.31
690.849	23.31
690.878	36.31
690.907	19.31
690.937	11.31
690.966	16.31
690.996	7.31
691.025	5.31
691.054	-3.69
691.084	3.31
691.113	8.31
691.142	7.31
691.172	7.31
691.201	11.31
691.23	0.31
691.26	17.31
691.289	-1.69
691.319	-3.69
691.348	3.31
691.377	28.31
691.407	-0.69
691.436	7.31
691.465	14.31
691.495	-11.69
691.524	-11.69
691.553	3.31
691.583	-4.69
691.612	5.31
691.641	-3.69
691.67	-2.69
691.7	-0.69
691.729	-15.69
691.758	7.31
691.788	6.31
691.817	-2.69
691.846	-10.69
691.876	-9.69
691.905	-6.69
691.934	-1.69
691.963	4.31
691.993	11.31
692.022	-1.69
692.051	-5.69
692.081	7.31
692.11	37.31
692.139	18.31
692.168	10.31
692.198	13.31
692.227	10.31
692.256	7.31
692.285	0.31
692.315	-6.69
692.344	0.31
692.373	3.31
692.402	-15.69
692.432	-12.69
692.461	1.31
692.49	-1.69
692.519	-9.69
692.548	14.31
692.578	20.31
692.607	-13.69
692.636	-3.69
692.665	3.31
692.694	3.31
692.724	-4.69
692.753	3.31
692.782	21.31
692.811	-8.69
692.84	-3.69
692.87	2.31
692.899	7.31
692.928	0.31
692.957	0.31
692.986	12.31
693.016	-0.69
693.045	-0.69
693.074	-0.69
693.103	-0.69
693.132	10.31
693.161	10.31
693.191	-8.69
693.22	-4.69
693.249	12.31
693.278	-1.69
693.307	19.31
693.336	-5.69
693.365	2.31
693.395	0.31
693.424	6.31
693.453	23.31
693.482	5.31
693.511	5.31
693.54	19.31
693.569	-3.69
693.598	-7.69
693.628	-0.69
693.657	20.31
693.686	7.31
693.715	-0.69
693.744	23.31
693.773	10.31
693.802	13.31
693.831	4.31
693.86	9.31
693.889	-7.69
693.919	-9.69
693.948	-1.69
693.977	9.31
694.006	-2.69
694.035	4.31
694.064	-17.69
694.093	-3.69
694.122	1.31
694.151	4.31
694.18	19.31
694.209	32.31
694.238	17.31
694.267	9.31
694.296	13.31
694.325	14.31
694.354	15.31
694.383	-3.69
694.412	-5.69
694.441	-14.69
694.471	-2.69
694.5	-8.69
694.529	-1.69
694.558	20.31
694.587	14.31
694.616	1.31
694.645	-19.69
694.674	26.31
694.703	9.31
694.732	6.31
694.761	10.31
694.79	16.31
694.819	2.31
694.848	10.31
694.877	33.31
694.906	37.31
694.935	14.31
694.963	25.31
694.992	4.31
695.021	24.31
695.05	13.31
695.079	1.31
695.108	-16.69
695.137	14.31
695.166	16.31
695.195	4.31
695.224	-4.69
695.253	-2.69
695.282	-2.69
695.311	13.31
695.34	16.31
695.369	15.31
695.398	-5.69
695.427	10.31
695.456	-2.69
695.485	3.31
695.513	10.31
695.542	-0.69
695.571	-5.69
695.6	-4.69
695.629	11.31
695.658	9.31
695.687	2.31
695.716	6.31
695.745	16.31
695.774	-6.69
695.802	-6.69
695.831	7.31
695.86	8.31
695.889	5.31
695.918	4.31
695.947	1.31
695.976	4.31
696.005	-12.69
696.033	-0.69
696.062	1.31
696.091	-4.69
696.12	2.31
696.149	14.31
696.178	10.31
696.207	7.31
696.235	-14.69
696.264	13.31
696.293	-2.69
696.322	12.31
696.351	8.31
696.38	-17.69
696.408	7.31
696.437	-0.69
696.466	14.31
696.495	16.31
696.524	23.31
696.553	13.31
696.581	25.31
696.61	1.31
696.639	6.31
696.668	4.31
696.697	-8.69
696.725	3.31
696.754	5.31
696.783	11.31
696.812	9.31
696.84	27.31
696.869	13.31
696.898	-1.69
696.927	4.31
696.956	19.31
696.984	-12.69
697.013	-0.69
697.042	5.31
697.071	1.31
697.099	15.31
697.128	12.31
697.157	-8.69
697.186	11.31
697.214	1.31
697.243	-3.69
697.272	4.31
697.301	-5.69
697.329	5.31
697.358	-12.69
697.387	14.31
697.415	-0.69
697.444	1.31
697.473	8.31
697.502	7.31
697.53	15.31
697.559	3.31
697.588	12.31
697.616	0.31
697.645	-2.69
697.674	20.31
697.703	21.31
697.731	11.31
697.76	-6.69
697.789	-2.69
697.817	-0.69
697.846	22.31
697.875	-0.69
697.903	7.31
697.932	9.31
697.961	11.31
697.989	15.31
698.018	15.31
698.047	-2.69
698.075	9.31
698.104	-2.69
698.133	-0.69
698.161	-11.69
698.19	4.31
698.218	-16.69
698.247	-2.69
698.276	-2.69
698.304	3.31
698.333	4.31
698.362	21.31
698.39	10.31
698.419	9.31
698.447	6.31
698.476	7.31
698.505	26.31
698.533	14.31
698.562	10.31
698.591	-9.69
698.619	0.31
698.648	-1.69
698.676	4.31
698.705	3.31
698.733	-13.69
698.762	2.31
698.791	8.31
698.819	10.31
698.848	0.31
698.876	10.31
698.905	3.31
698.933	10.31
698.962	2.31
698.991	20.31
699.019	16.31
699.048	12.31
699.076	7.31
699.105	-20.69
699.133	-0.69
699.162	8.31
699.19	25.31
699.219	4.31
699.248	7.31
699.276	-8.69
699.305	4.31
699.333	8.31
699.362	-7.69
699.39	-3.69
699.419	-13.69
699.447	6.31
699.476	10.31
699.504	-0.69
699.533	7.31
699.561	0.31
699.59	7.31
699.618	6.31
699.647	9.31
699.675	2.31
699.704	6.31
699.732	-3.69
699.761	2.31
699.789	-6.69
699.818	5.31
699.846	-0.69
699.874	5.31
699.903	6.31
699.931	-0.69
699.96	1.31
699.988	4.31
700.017	-12.69
700.045	-1.69
700.074	-4.69
700.102	17.31
700.13	-0.69
700.159	9.31
700.187	15.31
700.216	-5.69
700.244	-10.69
700.273	3.31
700.301	5.31
700.329	6.31
700.358	23.31
700.386	5.31
700.415	0.31
700.443	-1.69
700.472	-3.69
700.5	-7.69
700.528	-3.69
700.557	10.31
700.585	-12.69
700.614	3.31
700.642	22.31
700.67	25.31
700.699	4.31
700.727	-14.69
700.755	4.31
700.784	-10.69
700.812	-3.69
700.841	18.31
700.869	-4.69
700.897	7.31
700.926	7.31
700.954	17.31
700.982	3.31
701.011	14.31
701.039	-1.69
701.067	0.31
701.096	13.31
701.124	-6.69
701.152	0.31
701.181	-3.69
701.209	-18.69
701.237	3.31
701.266	-16.69
701.294	-0.69
701.322	9.31
701.351	6.31
701.379	12.31
701.407	-10.69
701.435	4.31
701.464	6.31
701.492	7.31
701.52	-7.69
701.549	9.31
701.577	-4.69
701.605	5.31
701.634	0.31
701.662	12.31
701.69	-8.69
701.718	-20.69
701.747	5.31
701.775	1.31
701.803	0.31
701.831	0.31
701.86	3.31
701.888	4.31
701.916	-7.69
701.944	4.31
701.973	-7.69
702.001	-7.69
702.029	-10.69
702.057	-7.69
702.086	-27.69
702.114	-18.69
702.142	1.31
702.17	-6.69
702.199	3.31
702.227	-5.69
702.255	7.31
702.283	-11.69
702.311	7.31
702.34	-3.69
702.368	-5.69
702.396	2.31
702.424	5.31
702.452	9.31
702.481	4.31
702.509	1.31
702.537	10.31
702.565	5.31
702.593	-3.69
702.621	-0.69
702.65	16.31
702.678	1.31
702.706	4.31
702.734	-8.69
702.762	4.31
702.79	2.31
702.819	-12.69
702.847	4.31
702.875	12.31
702.903	-10.69
702.931	-16.69
702.959	-1.69
702.988	12.31
703.016	-9.69
703.044	-0.69
703.072	1.31
703.1	-1.69
703.128	-15.69
703.156	-3.69
703.184	-3.69
703.212	9.31
703.241	-6.69
703.269	-1.69
703.297	8.31
703.325	7.31
703.353	-4.69
703.381	-7.69
703.409	-7.69
703.437	-6.69
703.465	2.31
703.493	-12.69
703.522	0.31
703.55	-0.69
703.578	8.31
703.606	-4.69
703.634	-10.69
703.662	-4.69
703.69	2.31
703.718	-8.69
703.746	1.31
703.774	4.31
703.802	11.31
703.83	7.31
703.858	4.31
703.886	-5.69
703.914	-20.69
703.942	-2.69
703.97	-1.69
703.998	-0.69
704.027	16.31
704.055	4.31
704.083	0.31
704.111	-3.69
704.139	7.31
704.167	-1.69
704.195	-4.69
704.223	-3.69
704.251	-9.69
704.279	2.31
704.307	4.31
704.335	-6.69
704.363	-1.69
704.391	-5.69
704.419	6.31
704.447	1.31
704.475	-6.69
704.503	-11.69
704.531	3.31
704.558	7.31
704.586	-1.69
704.614	-8.69
704.642	5.31
704.67	-21.69
704.698	-4.69
704.726	12.31
704.754	-12.69
704.782	5.31
704.81	-16.69
704.838	17.31
704.866	10.31
704.894	-4.69
704.922	-3.69
704.95	-1.69
704.978	11.31
705.006	2.31
705.034	14.31
705.061	-4.69
705.089	-5.69
705.117	-15.69
705.145	-0.69
705.173	-6.69
705.201	-10.69
705.229	12.31
705.257	4.31
705.285	8.31
705.313	1.31
705.34	-2.69
705.368	9.31
705.396	-1.69
705.424	2.31
705.452	-7.69
705.48	-5.69
705.508	-6.69
705.536	-1.69
705.563	-7.69
705.591	10.31
705.619	15.31
705.647	-8.69
705.675	-2.69
705.703	13.31
705.731	-7.69
705.758	8.31
705.786	1.31
705.814	2.31
705.842	3.31
705.87	6.31
705.898	7.31
705.925	-10.69
705.953	-4.69
705.981	-23.69
706.009	8.31
706.037	7.31
706.065	9.31
706.092	-19.69
706.12	-9.69
706.148	-4.69
706.176	2.31
706.204	14.31
706.231	1.31
706.259	-5.69
706.287	-4.69
706.315	4.31
706.342	-13.69
706.37	6.31
706.398	12.31
706.426	-10.69
706.454	-13.69
706.481	5.31
706.509	-6.69
706.537	-15.69
706.565	-1.69
706.592	7.31
706.62	-8.69
706.648	5.31
706.676	-15.69
706.703	8.31
706.731	-16.69
706.759	-15.69
706.787	-1.69
706.814	-0.69
706.842	8.31
706.87	5.31
706.897	1.31
706.925	-4.69
706.953	14.31
706.981	0.31
707.008	13.31
707.036	13.31
707.064	-5.69
707.091	-20.69
707.119	5.31
707.147	2.31
707.174	-19.69
707.202	8.31
707.23	-3.69
707.258	5.31
707.285	-10.69
707.313	-2.69
707.341	-9.69
707.368	-8.69
707.396	0.31
707.424	8.31
707.451	2.31
707.479	2.31
707.507	-3.69
707.534	-11.69
707.562	-0.69
707.59	-5.69
707.617	-13.69
707.645	-8.69
707.672	-0.69
707.7	1.31
707.728	5.31
707.755	-6.69
707.783	-6.69
707.811	16.31
707.838	-14.69
707.866	4.31
707.893	-19.69
707.921	-8.69
707.949	-2.69
707.976	4.31
708.004	6.31
708.031	4.31
708.059	-4.69
708.087	2.31
708.114	-8.69
708.142	2.31
708.169	-10.69
708.197	-26.69
708.225	1.31
708.252	-7.69
708.28	27.31
708.307	-1.69
708.335	-0.69
708.362	0.31
708.39	-8.69
708.418	-6.69
708.445	10.31
708.473	-1.69
708.5	-15.69
708.528	4.31
708.555	-10.69
708.583	13.31
708.61	-19.69
708.638	0.31
708.665	0.31
708.693	-0.69
708.72	-4.69
708.748	-13.69
708.776	-13.69
708.803	6.31
708.831	5.31
708.858	22.31
708.886	-7.69
708.913	-3.69
708.941	-15.69
708.968	4.31
708.996	-11.69
709.023	16.31
709.051	-8.69
709.078	-4.69
709.105	-0.69
709.133	2.31
709.16	9.31
709.188	12.31
709.215	-3.69
709.243	-0.69
709.27	7.31
709.298	-4.69
709.325	-3.69
709.353	-4.69
709.38	3.31
709.408	10.31
709.435	13.31
709.462	2.31
709.49	2.31
709.517	-6.69
709.545	-0.69
709.572	-1.69
709.6	-5.69
709.627	-4.69
709.655	-3.69
709.682	-5.69
709.709	-1.69
709.737	5.31
709.764	-7.69
709.792	3.31
709.819	-7.69
709.846	-2.69
709.874	4.31
709.901	9.31
709.929	13.31
709.956	1.31
709.983	-15.69
710.011	-14.69
710.038	-5.69
710.066	8.31
710.093	14.31
710.12	18.31
710.148	-4.69
710.175	-10.69
710.202	-9.69
710.23	0.31
710.257	5.31
710.284	0.31
710.312	9.31
710.339	-11.69
710.366	-7.69
710.394	3.31
710.421	-11.69
710.448	-11.69
710.476	-9.69
710.503	-0.69
710.53	17.31
710.558	21.31
710.585	17.31
710.612	-8.69
710.64	-11.69
710.667	0.31
710.694	-16.69
710.722	-2.69
710.749	-3.69
710.776	4.31
710.804	7.31
710.831	2.31
710.858	-9.69
710.885	-6.69
710.913	-3.69
710.94	6.31
710.967	1.31
710.995	8.31
711.022	7.31
711.049	-0.69
711.076	-11.69
711.104	-6.69
711.131	-20.69
711.158	-0.69
711.185	14.31
711.213	0.31
711.24	-0.69
711.267	-7.69
711.294	-4.69
711.322	30.31
711.349	-12.69
711.376	-3.69
711.403	6.31
711.431	-6.69
711.458	-0.69
711.485	-7.69
711.512	-6.69
711.54	6.31
711.567	11.31
711.594	-12.69
711.621	-13.69
711.648	-7.69
711.676	1.31
711.703	3.31
711.73	-8.69
711.757	2.31
711.784	-8.69
711.812	-8.69
711.839	3.31
711.866	-0.69
711.893	-8.69
711.92	-1.69
711.947	5.31
711.975	15.31
712.002	2.31
712.029	19.31
712.056	-6.69
712.083	-10.69
712.11	-13.69
712.138	-2.69
712.165	0.31
712.192	3.31
712.219	-4.69
712.246	-8.69
712.273	-8.69
712.3	-5.69
712.328	5.31
712.355	7.31
712.382	-10.69
712.409	4.31
712.436	-13.69
712.463	4.31
712.49	11.31
712.517	11.31
712.544	-14.69
712.572	1.31
712.599	0.31
712.626	7.31
712.653	-6.69
712.68	-7.69
712.707	5.31
712.734	-8.69
712.761	-4.69
712.788	-10.69
712.815	4.31
712.842	9.31
712.87	-7.69
712.897	0.31
712.924	-2.69
712.951	2.31
712.978	1.31
713.005	7.31
713.032	8.31
713.059	-7.69
713.086	2.31
713.113	2.31
713.14	-4.69
713.167	0.31
713.194	13.31
713.221	-10.69
713.248	24.31
713.275	-3.69
713.302	4.31
713.329	3.31
713.356	4.31
713.383	4.31
713.41	0.31
713.437	-10.69
713.464	-3.69
713.491	6.31
713.518	-0.69
713.545	5.31
713.572	5.31
713.599	22.31
713.626	-3.69
713.653	-4.69
713.68	-15.69
713.707	1.31
713.734	-5.69
713.761	-4.69
713.788	-10.69
713.815	8.31
713.842	1.31
713.869	3.31
713.896	2.31
713.923	13.31
713.95	1.31
713.977	-3.69
714.004	-4.69
714.031	0.31
714.058	-9.69
714.085	-2.69
714.112	4.31
714.139	-11.69
714.165	-5.69
714.192	-17.69
714.219	5.31
714.246	12.31
714.273	-3.69
714.3	8.31
714.327	-0.69
714.354	1.31
714.381	-7.69
714.408	-0.69
714.435	-6.69
714.461	2.31
714.488	0.31
714.515	-5.69
714.542	-3.69
714.569	-11.69
714.596	-15.69
714.623	0.31
714.65	-20.69
714.677	-4.69
714.703	19.31
714.73	12.31
714.757	5.31
714.784	0.31
714.811	-24.69
714.838	8.31
714.865	-7.69
714.891	25.31
714.918	-3.69
714.945	-16.69
714.972	-8.69
714.999	-0.69
715.026	-17.69
715.052	7.31
715.079	-15.69
715.106	13.31
715.133	3.31
715.16	-24.69
715.187	7.31
715.213	12.31
715.24	0.31
715.267	11.31
715.294	-0.69
715.321	12.31
715.347	7.31
715.374	-13.69
715.401	-1.69
715.428	-0.69
715.455	12.31
715.481	0.31
715.508	1.31
715.535	-4.69
715.562	14.31
715.588	7.31
715.615	-9.69
715.642	10.31
715.669	7.31
715.695	-7.69
715.722	8.31
715.749	7.31
715.776	21.31
715.802	-4.69
715.829	-6.69
715.856	-2.69
715.883	12.31
715.909	-3.69
715.936	-4.69
715.963	17.31
715.99	-8.69
716.016	-7.69
716.043	15.31
716.07	9.31
716.096	-7.69
716.123	-11.69
716.15	-7.69
716.177	-0.69
716.203	-0.69
716.23	1.31
716.257	-18.69
716.283	3.31
716.31	5.31
716.337	-5.69
716.363	-6.69
716.39	16.31
716.417	10.31
716.443	5.31
716.47	8.31
716.497	8.31
716.523	4.31
716.55	-1.69
716.577	15.31
716.603	5.31
716.63	-9.69
716.657	-0.69
716.683	-2.69
716.71	-2.69
716.737	-0.69
716.763	23.31
716.79	-6.69
716.817	15.31
716.843	-0.69
716.87	-1.69
716.897	1.31
716.923	21.31
716.95	-1.69
716.976	-11.69
717.003	-18.69
717.03	-4.69
717.056	4.31
717.083	-7.69
717.109	-1.69
717.136	4.31
717.163	-4.69
717.189	12.31
717.216	1.31
717.242	0.31
717.269	2.31
717.296	5.31
717.322	16.31
717.349	6.31
717.375	3.31
717.402	-1.69
717.428	-4.69
717.455	-4.69
717.481	-15.69
717.508	8.31
717.535	17.31
717.561	8.31
717.588	-4.69
717.614	0.31
717.641	16.31
717.667	-0.69
717.694	-3.69
717.72	-9.69
717.747	-0.69
717.773	6.31
717.8	16.31
717.826	14.31
717.853	16.31
717.88	20.31
717.906	9.31
717.933	9.31
717.959	-4.69
717.986	7.31
718.012	-7.69
718.039	8.31
718.065	0.31
718.092	4.31
718.118	-12.69
718.144	0.31
718.171	20.31
718.197	9.31
718.224	-1.69
718.25	8.31
718.277	14.31
718.303	-1.69
718.33	-2.69
718.356	0.31
718.383	1.31
718.409	3.31
718.436	-14.69
718.462	-4.69
718.489	-14.69
718.515	13.31
718.541	8.31
718.568	2.31
718.594	16.31
718.621	-2.69
718.647	-0.69
718.674	-3.69
718.7	5.31
718.726	-3.69
718.753	-0.69
718.779	5.31
718.806	-0.69
718.832	-5.69
718.858	10.31
718.885	3.31
718.911	4.31
718.938	-2.69
718.964	-10.69
718.99	9.31
719.017	11.31
719.043	5.31
719.07	1.31
719.096	2.31
719.122	16.31
719.149	11.31
719.175	-10.69
719.201	-3.69
719.228	-1.69
719.254	-1.69
719.281	3.31
719.307	3.31
719.333	-0.69
719.36	14.31
719.386	4.31
719.412	17.31
719.439	0.31
719.465	7.31
719.491	-3.69
719.518	7.31
719.544	6.31
719.57	24.31
719.597	7.31
719.623	-18.69
719.649	5.31
719.675	-0.69
719.702	4.31
719.728	-2.69
719.754	-15.69
719.781	0.31
719.807	6.31
719.833	-17.69
719.86	-4.69
719.886	0.31
719.912	14.31
719.938	4.31
719.965	7.31
719.991	13.31
720.017	7.31
720.044	-6.69
720.07	1.31
720.096	-4.69
720.122	-6.69
720.149	12.31
720.175	24.31
720.201	7.31
720.227	-4.69
720.254	7.31
720.28	-10.69
720.306	-4.69
720.332	-18.69
720.359	0.31
720.385	7.31
720.411	6.31
720.437	-6.69
720.463	-4.69
720.49	20.31
720.516	-4.69
720.542	-15.69
720.568	6.31
720.595	3.31
720.621	13.31
720.647	2.31
720.673	0.31
720.699	2.31
720.725	-3.69
720.752	9.31
720.778	5.31
720.804	0.31
720.83	12.31
720.856	3.31
720.883	-10.69
720.909	-7.69
720.935	7.31
720.961	21.31
720.987	11.31
721.013	5.31
721.04	-0.69
721.066	-2.69
721.092	4.31
721.118	1.31
721.144	0.31
721.17	-7.69
721.196	11.31
721.223	-18.69
721.249	-4.69
721.275	17.31
721.301	1.31
721.327	13.31
721.353	1.31
721.379	-8.69
721.405	8.31
721.432	21.31
721.458	-7.69
721.484	4.31
721.51	-12.69
721.536	-11.69
721.562	-2.69
721.588	7.31
721.614	-7.69
721.64	4.31
721.666	3.31
721.693	1.31
721.719	-2.69
721.745	-12.69
721.771	-2.69
721.797	-3.69
721.823	6.31
721.849	21.31
721.875	13.31
721.901	3.31
721.927	-3.69
721.953	-2.69
721.979	28.31
722.005	7.31
722.031	1.31
722.057	19.31
722.083	8.31
722.109	26.31
722.135	15.31
722.161	-2.69
722.187	-0.69
722.214	9.31
722.24	0.31
722.266	-3.69
722.292	4.31
722.318	0.31
722.344	-2.69
722.37	-5.69
722.396	-1.69
722.422	-11.69
722.448	-6.69
722.474	-11.69
722.5	7.31
722.526	3.31
722.552	6.31
722.578	6.31
722.603	9.31
722.629	-2.69
722.655	0.31
722.681	-9.69
722.707	2.31
722.733	2.31
722.759	-4.69
722.785	3.31
722.811	9.31
722.837	-4.69
722.863	17.31
722.889	6.31
722.915	2.31
722.941	-2.69
722.967	8.31
722.993	14.31
723.019	-1.69
723.045	3.31
723.071	-0.69
723.097	0.31
723.122	-6.69
723.148	-10.69
723.174	-6.69
723.2	17.31
723.226	0.31
723.252	4.31
723.278	0.31
723.304	1.31
723.33	-2.69
723.356	-10.69
723.381	-22.69
723.407	-16.69
723.433	4.31
723.459	3.31
723.485	7.31
723.511	-7.69
723.537	0.31
723.563	3.31
723.588	1.31
723.614	15.31
723.64	1.31
723.666	-11.69
723.692	-5.69
723.718	6.31
723.744	4.31
723.769	-14.69
723.795	-14.69
723.821	6.31
723.847	4.31
723.873	14.31
723.899	5.31
723.924	-10.69
723.95	0.31
723.976	-3.69
724.002	1.31
724.028	2.31
724.053	-1.69
724.079	1.31
724.105	1.31
724.131	-13.69
724.157	-8.69
724.182	-0.69
724.208	10.31
724.234	10.31
724.26	6.31
724.286	9.31
724.311	-3.69
724.337	-6.69
724.363	-1.69
724.389	17.31
724.415	8.31
724.44	-1.69
724.466	1.31
724.492	-4.69
724.518	17.31
724.543	4.31
724.569	-2.69
724.595	0.31
724.621	-12.69
724.646	-7.69
724.672	4.31
724.698	-2.69
724.723	9.31
724.749	11.31
724.775	8.31
724.801	12.31
724.826	-9.69
724.852	-9.69
724.878	-10.69
724.904	-6.69
724.929	-4.69
724.955	-4.69
724.981	-9.69
725.006	4.31
725.032	-14.69
725.058	1.31
725.083	-11.69
725.109	7.31
725.135	5.31
725.161	8.31
725.186	-18.69
725.212	-14.69
725.238	1.31
725.263	2.31
725.289	-8.69
725.315	-1.69
725.34	0.31
725.366	4.31
725.392	-4.69
725.417	-3.69
725.443	1.31
725.468	14.31
725.494	13.31
725.52	-1.69
725.545	-8.69
725.571	-12.69
725.597	-10.69
725.622	0.31
725.648	1.31
725.674	6.31
725.699	-3.69
725.725	2.31
725.75	35.31
725.776	1.31
725.802	5.31
725.827	0.31
725.853	3.31
725.878	5.31
725.904	-1.69
725.93	3.31
725.955	-7.69
725.981	-15.69
726.006	7.31
726.032	-4.69
726.057	-13.69
726.083	-2.69
726.109	0.31
726.134	13.31
726.16	11.31
726.185	1.31
726.211	8.31
726.236	9.31
726.262	12.31
726.288	4.31
726.313	1.31
726.339	13.31
726.364	-0.69
726.39	-4.69
726.415	-9.69
726.441	-2.69
726.466	3.31
726.492	8.31
726.517	8.31
726.543	-4.69
726.568	-23.69
726.594	-1.69
726.619	0.31
726.645	3.31
726.67	10.31
726.696	-1.69
726.721	-13.69
726.747	-17.69
726.772	-4.69
726.798	-11.69
726.823	7.31
726.849	-10.69
726.874	3.31
726.9	30.31
726.925	14.31
726.951	-2.69
726.976	10.31
727.002	-1.69
727.027	2.31
727.053	-4.69
727.078	-8.69
727.104	-9.69
727.129	-14.69
727.155	-9.69
727.18	9.31
727.205	-8.69
727.231	-11.69
727.256	0.31
727.282	10.31
727.307	7.31
727.333	8.31
727.358	-4.69
727.383	-23.69
727.409	-14.69
727.434	9.31
727.46	-2.69
727.485	-11.69
727.511	7.31
727.536	-6.69
727.561	-4.69
727.587	-3.69
727.612	4.31
727.637	-3.69
727.663	-3.69
727.688	3.31
727.714	5.31
727.739	-5.69
727.764	-2.69
727.79	-5.69
727.815	-0.69
727.841	-2.69
727.866	11.31
727.891	5.31
727.917	-12.69
727.942	-9.69
727.967	-0.69
727.993	-6.69
728.018	-9.69
728.043	3.31
728.069	-4.69
728.094	-2.69
728.119	-10.69
728.145	18.31
728.17	5.31
728.195	3.31
728.221	15.31
728.246	0.31
728.271	-14.69
728.297	-1.69
728.322	-14.69
728.347	0.31
728.373	-8.69
728.398	2.31
728.423	-4.69
728.448	11.31
728.474	3.31
728.499	3.31
728.524	-2.69
728.55	-4.69
728.575	-9.69
728.6	-4.69
728.625	-0.69
728.651	5.31
728.676	-12.69
728.701	-2.69
728.727	9.31
728.752	-3.69
728.777	0.31
728.802	6.31
728.828	-2.69
728.853	5.31
728.878	-0.69
728.903	-0.69
728.929	-6.69
728.954	0.31
728.979	-4.69
729.004	-2.69
729.03	-3.69
729.055	7.31
729.08	-13.69
729.105	4.31
729.13	-3.69
729.156	-3.69
729.181	-0.69
729.206	-15.69
729.231	-20.69
729.256	17.31
729.282	4.31
729.307	-27.69
729.332	-15.69
729.357	-9.69
729.382	-3.69
729.408	-10.69
729.433	0.31
729.458	7.31
729.483	-4.69
729.508	26.31
729.533	1.31
729.559	-16.69
729.584	-9.69
729.609	-3.69
729.634	9.31
729.659	-12.69
729.684	-11.69
729.71	4.31
729.735	8.31
729.76	-1.69
729.785	-4.69
729.81	14.31
729.835	-3.69
729.86	-10.69
729.886	7.31
729.911	11.31
729.936	2.31
729.961	28.31
729.986	11.31
730.011	65.31
730.036	217.31
730.061	1027.31
730.086	2765.31
730.112	3455.31
730.137	2845.31
730.162	2159.31
730.187	1656.31
730.212	1288.31
730.237	811.31
730.262	487.31
730.287	235.31
730.312	135.31
730.337	76.31
730.362	60.31
730.387	36.31
730.413	5.31
730.438	10.31
730.463	7.31
730.488	-1.69
730.513	19.31
730.538	24.31
730.563	17.31
730.588	15.31
730.613	23.31
730.638	10.31
730.663	7.31
730.688	17.31
730.713	2.31
730.738	20.31
730.763	-2.69
730.788	-6.69
730.813	1.31
730.838	-10.69
730.863	-0.69
730.888	3.31
730.913	0.31
730.938	-20.69
730.963	11.31
730.988	111.31
731.013	407.31
731.038	638.31
731.063	615.31
731.088	450.31
731.113	349.31
731.138	265.31
731.163	198.31
731.188	119.31
731.213	68.31
731.238	51.31
731.263	19.31
731.288	12.31
731.313	4.31
731.338	-3.69
731.363	-0.69
731.388	0.31
731.413	0.31
731.438	11.31
731.463	-14.69
731.487	4.31
731.512	-4.69
731.537	-1.69
731.562	-5.69
731.587	-8.69
731.612	-9.69
731.637	1.31
731.662	-1.69
731.687	1.31
731.712	-16.69
731.737	8.31
731.762	-3.69
731.786	4.31
731.811	-3.69
731.836	0.31
731.861	-10.69
731.886	-8.69
731.911	-2.69
731.936	8.31
731.961	0.31
731.986	-10.69
732.01	-2.69
732.035	12.31
732.06	5.31
732.085	2.31
732.11	6.31
732.135	-27.69
732.16	7.31
732.184	10.31
732.209	11.31
732.234	-2.69
732.259	-10.69
732.284	-0.69
732.309	-17.69
732.334	-14.69
732.358	-15.69
732.383	-17.69
732.408	3.31
732.433	13.31
732.458	-3.69
732.482	1.31
732.507	12.31
732.532	6.31
732.557	12.31
732.582	3.31
732.607	20.31
732.631	55.31
732.656	96.31
732.681	144.31
732.706	338.31
732.73	469.31
732.755	391.31
732.78	301.31
732.805	236.31
732.83	185.31
732.854	115.31
732.879	102.31
732.904	38.31
732.929	19.31
732.953	10.31
732.978	14.31
733.003	7.31
733.028	4.31
733.052	10.31
733.077	6.31
733.102	8.31
733.127	10.31
733.151	-3.69
733.176	14.31
733.201	-4.69
733.226	0.31
733.25	5.31
733.275	1.31
733.3	13.31
733.324	14.31
733.349	13.31
733.374	15.31
733.399	5.31
733.423	4.31
733.448	-17.69
733.473	-6.69
733.497	-4.69
733.522	-2.69
733.547	23.31
733.571	14.31
733.596	-8.69
733.621	8.31
733.646	-5.69
733.67	6.31
733.695	-14.69
733.72	4.31
733.744	8.31
733.769	9.31
733.794	0.31
733.818	-16.69
733.843	-10.69
733.867	-18.69
733.892	-10.69
733.917	6.31
733.941	2.31
733.966	-18.69
733.991	-4.69
734.015	13.31
734.04	9.31
734.065	3.31
734.089	11.31
734.114	7.31
734.138	1.31
734.163	-9.69
734.188	-4.69
734.212	5.31
734.237	-0.69
734.261	1.31
734.286	2.31
734.311	-3.69
734.335	8.31
734.36	3.31
734.384	19.31
734.409	-8.69
734.434	-12.69
734.458	6.31
734.483	0.31
734.507	-11.69
734.532	-0.69
734.556	6.31
734.581	-8.69
734.606	6.31
734.63	-3.69
734.655	-0.69
734.679	15.31
734.704	4.31
734.728	3.31
734.753	-5.69
734.777	-11.69
734.802	0.31
734.826	15.31
734.851	-4.69
734.876	19.31
734.9	17.31
734.925	0.31
734.949	5.31
734.974	1.31
734.998	3.31
735.023	-10.69
735.047	-8.69
735.072	24.31
735.096	-2.69
735.121	1.31
735.145	4.31
735.17	14.31
735.194	16.31
735.219	-6.69
735.243	12.31
735.268	-0.69
735.292	-5.69
735.317	1.31
735.341	-4.69
735.365	-16.69
735.39	-6.69
735.414	2.31
735.439	4.31
735.463	-11.69
735.488	7.31
735.512	-4.69
735.537	0.31
735.561	-24.69
735.586	-4.69
735.61	-6.69
735.634	-3.69
735.659	-1.69
735.683	10.31
735.708	3.31
735.732	-13.69
735.757	-6.69
735.781	8.31
735.805	-4.69
735.83	-23.69
735.854	8.31
735.879	7.31
735.903	12.31
735.927	-0.69
735.952	3.31
735.976	-6.69
736.001	-10.69
736.025	-11.69
736.049	2.31
736.074	-12.69
736.098	3.31
736.123	-3.69
736.147	-4.69
736.171	16.31
736.196	5.31
736.22	-4.69
736.244	0.31
736.269	-10.69
736.293	4.31
736.317	-11.69
736.342	-0.69
736.366	17.31
736.39	24.31
736.415	3.31
736.439	-3.69
736.463	1.31
736.488	-3.69
736.512	-6.69
736.536	3.31
736.561	17.31
736.585	-4.69
736.609	17.31
736.634	-9.69
736.658	-4.69
736.682	-1.69
736.707	-6.69
736.731	-10.69
736.755	-13.69
736.78	22.31
736.804	18.31
736.828	12.31
736.852	-9.69
736.877	8.31
736.901	4.31
736.925	-6.69
736.949	5.31
736.974	0.31
736.998	-5.69
737.022	5.31
737.047	0.31
737.071	-7.69
737.095	23.31
737.119	28.31
737.144	7.31
737.168	-9.69
737.192	-19.69
737.216	1.31
737.241	6.31
737.265	5.31
737.289	-3.69
737.313	-4.69
737.337	2.31
737.362	27.31
737.386	14.31
737.41	8.31
737.434	-1.69
737.459	0.31
737.483	11.31
737.507	11.31
737.531	20.31
737.555	23.31
737.58	9.31
737.604	2.31
737.628	-15.69
737.652	8.31
737.676	-2.69
737.701	7.31
737.725	6.31
737.749	6.31
737.773	7.31
737.797	-1.69
737.821	5.31
737.846	2.31
737.87	20.31
737.894	4.31
737.918	2.31
737.942	-12.69
737.966	11.31
737.99	10.31
738.015	-1.69
738.039	9.31
738.063	-4.69
738.087	12.31
738.111	5.31
738.135	18.31
738.159	-11.69
738.184	-2.69
738.208	-4.69
738.232	-3.69
738.256	3.31
738.28	9.31
738.304	9.31
738.328	-9.69
738.352	9.31
738.376	-0.69
738.4	15.31
738.425	7.31
738.449	-12.69
738.473	14.31
738.497	17.31
738.521	16.31
738.545	6.31
738.569	12.31
738.593	8.31
738.617	2.31
738.641	4.31
738.665	0.31
738.689	6.31
738.713	2.31
738.737	-3.69
738.762	14.31
738.786	14.31
738.81	-8.69
738.834	7.31
738.858	8.31
738.882	8.31
738.906	-6.69
738.93	6.31
738.954	13.31
738.978	19.31
739.002	2.31
739.026	6.31
739.05	15.31
739.074	11.31
739.098	14.31
739.122	14.31
739.146	11.31
739.17	-3.69
739.194	4.31
739.218	-5.69
739.242	3.31
739.266	4.31
739.29	12.31
739.314	18.31
739.338	5.31
739.362	-4.69
739.386	2.31
739.41	7.31
739.434	0.31
739.458	9.31
739.482	5.31
739.506	15.31
739.53	0.31
739.554	8.31
739.577	2.31
739.601	8.31
739.625	0.31
739.649	2.31
739.673	-8.69
739.697	-7.69
739.721	-9.69
739.745	9.31
739.769	9.31
739.793	8.31
739.817	15.31
739.841	-5.69
739.865	12.31
739.889	-17.69
739.912	7.31
739.936	8.31
739.96	-0.69
739.984	15.31
740.008	5.31
740.032	-7.69
740.056	-12.69
740.08	-3.69
740.104	-4.69
740.127	5.31
740.151	18.31
740.175	14.31
740.199	7.31
740.223	49.31
740.247	-3.69
740.271	-8.69
740.295	-7.69
740.318	-2.69
740.342	-7.69
740.366	10.31
740.39	0.31
740.414	2.31
740.438	-3.69
740.461	10.31
740.485	20.31
740.509	-2.69
740.533	4.31
740.557	10.31
740.581	7.31
740.604	-23.69
740.628	-15.69
740.652	1.31
740.676	-11.69
740.7	8.31
740.723	-1.69
740.747	-5.69
740.771	-0.69
740.795	-17.69
740.819	17.31
740.842	4.31
740.866	11.31
740.89	12.31
740.914	12.31
740.938	-3.69
740.961	9.31
740.985	4.31
741.009	-12.69
741.033	1.31
741.056	11.31
741.08	-7.69
741.104	-10.69
741.128	8.31
741.151	10.31
741.175	5.31
741.199	14.31
741.223	5.31
741.246	0.31
741.27	-1.69
741.294	-6.69
741.318	3.31
741.341	-1.69
741.365	-14.69
741.389	-0.69
741.413	1.31
741.436	13.31
741.46	0.31
741.484	0.31
741.507	12.31
741.531	27.31
741.555	19.31
741.579	7.31
741.602	11.31
741.626	-4.69
741.65	-9.69
741.673	6.31
741.697	19.31
741.721	4.31
741.744	-0.69
741.768	-8.69
741.792	-8.69
741.815	-8.69
741.839	30.31
741.863	22.31
741.886	20.31
741.91	12.31
741.934	11.31
741.957	-19.69
741.981	5.31
742.005	-5.69
742.028	-19.69
742.052	2.31
742.075	16.31
742.099	8.31
742.123	6.31
742.146	15.31
742.17	14.31
742.194	-11.69
742.217	-15.69
742.241	-7.69
742.264	-12.69
742.288	21.31
742.312	-1.69
742.335	8.31
742.359	1.31
742.382	4.31
742.406	18.31
742.43	-5.69
742.453	-0.69
742.477	-12.69
742.5	-6.69
742.524	-7.69
742.548	-4.69
742.571	10.31
742.595	3.31
742.618	-6.69
742.642	-6.69
742.665	15.31
742.689	-14.69
742.712	11.31
742.736	-11.69
742.76	-3.69
742.783	11.31
742.807	4.31
742.83	21.31
742.854	0.31
742.877	5.31
742.901	-4.69
742.924	-9.69
742.948	-1.69
742.971	7.31
742.995	13.31
743.018	-27.69
743.042	-2.69
743.065	-9.69
743.089	-6.69
743.112	-11.69
743.136	-0.69
743.159	2.31
743.183	-2.69
743.206	1.31
743.23	4.31
743.253	3.31
743.277	4.31
743.3	12.31
743.324	5.31
743.347	-3.69
743.371	5.31
743.394	17.31
743.418	13.31
743.441	3.31
743.465	9.31
743.488	3.31
743.512	-13.69
743.535	-6.69
743.558	-7.69
743.582	-2.69
743.605	7.31
743.629	-1.69
743.652	2.31
743.676	2.31
743.699	17.31
743.723	14.31
743.746	11.31
743.769	11.31
743.793	-4.69
743.816	6.31
743.84	20.31
743.863	4.31
743.886	12.31
743.91	7.31
743.933	4.31
743.957	-13.69
743.98	1.31
744.003	-3.69
744.027	9.31
744.05	4.31
744.074	9.31
744.097	-3.69
744.12	-11.69
744.144	-3.69
744.167	9.31
744.19	1.31
744.214	-10.69
744.237	-8.69
744.26	25.31
744.284	-0.69
744.307	-10.69
744.331	4.31
744.354	-23.69
744.377	-17.69
744.401	-7.69
744.424	-8.69
744.447	-11.69
744.471	-8.69
