Data from HighRes_mercury_15_13_11_07_2024_HR4C61891__1__15-14-23-286.txt Node

Date: Thu Nov 07 15:14:23 EST 2024
User: crc00042
Spectrometer: HR4C6189
Trigger mode: 4
Integration Time (sec): 1.000000E-1
Scans to average: 1
Electric dark correction enabled: true
Nonlinearity correction enabled: false
Boxcar width: 0
XAxis mode: Wavelengths
Number of Pixels in Spectrum: 3648
>>>>>Begin Spectral Data<<<<<
639.567	-67.62
639.602	-67.62
639.636	-67.62
639.67	-41.62
639.704	-23.62
639.738	11.38
639.773	14.38
639.807	-17.62
639.841	0.38
639.875	11.38
639.909	-0.62
639.943	-13.62
639.978	-3.62
640.012	6.38
640.046	0.38
640.08	-0.62
640.114	-0.62
640.148	-7.62
640.182	-10.62
640.217	6.38
640.251	18.38
640.285	7.38
640.319	-4.62
640.353	-17.62
640.387	-1.62
640.421	-1.62
640.455	6.38
640.49	-4.62
640.524	-10.62
640.558	-5.62
640.592	0.38
640.626	-0.62
640.66	-4.62
640.694	-4.62
640.728	1.38
640.762	11.38
640.796	13.38
640.83	11.38
640.865	-4.62
640.899	19.38
640.933	2.38
640.967	9.38
641.001	-2.62
641.035	2.38
641.069	2.38
641.103	-7.62
641.137	0.38
641.171	-6.62
641.205	-2.62
641.239	-2.62
641.273	19.38
641.307	19.38
641.341	6.38
641.375	11.38
641.409	-3.62
641.443	7.38
641.477	18.38
641.511	24.38
641.545	5.38
641.579	4.38
641.614	11.38
641.648	9.38
641.682	-16.62
641.716	3.38
641.75	2.38
641.784	5.38
641.818	4.38
641.852	12.38
641.886	0.38
641.919	20.38
641.953	5.38
641.987	-25.62
642.021	-3.62
642.055	-6.62
642.089	-3.62
642.123	-19.62
642.157	-10.62
642.191	-5.62
642.225	-2.62
642.259	-9.62
642.293	6.38
642.327	5.38
642.361	-14.62
642.395	5.38
642.429	12.38
642.463	6.38
642.497	17.38
642.531	-14.62
642.565	4.38
642.599	9.38
642.633	-18.62
642.666	1.38
642.7	15.38
642.734	2.38
642.768	-11.62
642.802	13.38
642.836	11.38
642.87	5.38
642.904	3.38
642.938	3.38
642.972	23.38
643.005	10.38
643.039	15.38
643.073	6.38
643.107	8.38
643.141	16.38
643.175	17.38
643.209	21.38
643.243	3.38
643.276	4.38
643.31	9.38
643.344	2.38
643.378	-4.62
643.412	11.38
643.446	1.38
643.48	-5.62
643.513	8.38
643.547	-1.62
643.581	-11.62
643.615	-5.62
643.649	0.38
643.683	-0.62
643.716	-1.62
643.75	4.38
643.784	0.38
643.818	20.38
643.852	1.38
643.886	2.38
643.919	14.38
643.953	0.38
643.987	-2.62
644.021	8.38
644.055	1.38
644.088	5.38
644.122	-7.62
644.156	-6.62
644.19	-2.62
644.224	-1.62
644.257	-5.62
644.291	1.38
644.325	0.38
644.359	1.38
644.392	25.38
644.426	13.38
644.46	15.38
644.494	4.38
644.527	-3.62
644.561	6.38
644.595	-10.62
644.629	-7.62
644.662	-1.62
644.696	15.38
644.73	15.38
644.764	9.38
644.797	5.38
644.831	-1.62
644.865	12.38
644.899	-2.62
644.932	20.38
644.966	-7.62
645	-13.62
645.033	19.38
645.067	4.38
645.101	1.38
645.135	7.38
645.168	-7.62
645.202	-8.62
645.236	0.38
645.269	7.38
645.303	8.38
645.337	-13.62
645.37	-20.62
645.404	9.38
645.438	-3.62
645.471	1.38
645.505	13.38
645.539	8.38
645.572	-11.62
645.606	-6.62
645.64	-2.62
645.673	2.38
645.707	23.38
645.741	2.38
645.774	-0.62
645.808	3.38
645.842	-7.62
645.875	8.38
645.909	-3.62
645.943	-3.62
645.976	6.38
646.01	12.38
646.043	-3.62
646.077	0.38
646.111	-0.62
646.144	10.38
646.178	-2.62
646.212	-27.62
646.245	-12.62
646.279	6.38
646.312	8.38
646.346	16.38
646.38	10.38
646.413	8.38
646.447	3.38
646.48	-5.62
646.514	7.38
646.547	12.38
646.581	1.38
646.615	6.38
646.648	-1.62
646.682	-6.62
646.715	-4.62
646.749	13.38
646.782	-15.62
646.816	-10.62
646.85	0.38
646.883	-10.62
646.917	-4.62
646.95	0.38
646.984	3.38
647.017	1.38
647.051	-18.62
647.084	-6.62
647.118	-3.62
647.151	-1.62
647.185	6.38
647.218	6.38
647.252	6.38
647.285	-0.62
647.319	-1.62
647.353	-6.62
647.386	25.38
647.42	0.38
647.453	19.38
647.487	4.38
647.52	5.38
647.553	13.38
647.587	-5.62
647.62	-13.62
647.654	8.38
647.687	12.38
647.721	2.38
647.754	17.38
647.788	0.38
647.821	-12.62
647.855	12.38
647.888	8.38
647.922	13.38
647.955	5.38
647.989	3.38
648.022	-6.62
648.055	11.38
648.089	6.38
648.122	25.38
648.156	-3.62
648.189	1.38
648.223	5.38
648.256	19.38
648.29	13.38
648.323	4.38
648.356	5.38
648.39	-2.62
648.423	-5.62
648.457	0.38
648.49	8.38
648.523	2.38
648.557	6.38
648.59	-2.62
648.624	10.38
648.657	0.38
648.69	13.38
648.724	11.38
648.757	16.38
648.791	21.38
648.824	8.38
648.857	17.38
648.891	10.38
648.924	3.38
648.957	11.38
648.991	5.38
649.024	14.38
649.057	-2.62
649.091	-0.62
649.124	7.38
649.158	6.38
649.191	16.38
649.224	8.38
649.258	3.38
649.291	2.38
649.324	4.38
649.358	8.38
649.391	10.38
649.424	-7.62
649.458	11.38
649.491	-1.62
649.524	-5.62
649.557	7.38
649.591	-15.62
649.624	5.38
649.657	2.38
649.691	6.38
649.724	6.38
649.757	2.38
649.791	3.38
649.824	1.38
649.857	5.38
649.89	6.38
649.924	-15.62
649.957	-6.62
649.99	-9.62
650.023	6.38
650.057	-9.62
650.09	-6.62
650.123	4.38
650.157	6.38
650.19	14.38
650.223	3.38
650.256	0.38
650.29	-2.62
650.323	5.38
650.356	5.38
650.389	-1.62
650.423	-14.62
650.456	12.38
650.489	-1.62
650.522	13.38
650.555	-1.62
650.589	-1.62
650.622	1.38
650.655	14.38
650.688	-2.62
650.721	-6.62
650.755	7.38
650.788	18.38
650.821	5.38
650.854	9.38
650.887	11.38
650.921	-6.62
650.954	9.38
650.987	2.38
651.02	-5.62
651.053	-14.62
651.087	-18.62
651.12	21.38
651.153	5.38
651.186	4.38
651.219	4.38
651.252	12.38
651.286	7.38
651.319	-5.62
651.352	15.38
651.385	-4.62
651.418	-0.62
651.451	15.38
651.484	7.38
651.518	-5.62
651.551	25.38
651.584	3.38
651.617	10.38
651.65	5.38
651.683	8.38
651.716	-3.62
651.749	-25.62
651.783	-10.62
651.816	4.38
651.849	12.38
651.882	2.38
651.915	-6.62
651.948	9.38
651.981	-8.62
652.014	-10.62
652.047	-18.62
652.08	-1.62
652.114	2.38
652.147	-5.62
652.18	-2.62
652.213	21.38
652.246	-7.62
652.279	11.38
652.312	15.38
652.345	-10.62
652.378	1.38
652.411	21.38
652.444	-1.62
652.477	4.38
652.51	0.38
652.543	-9.62
652.576	7.38
652.609	1.38
652.642	8.38
652.675	23.38
652.709	-7.62
652.742	4.38
652.775	1.38
652.808	-0.62
652.841	4.38
652.874	20.38
652.907	4.38
652.94	-1.62
652.973	-14.62
653.006	-2.62
653.039	0.38
653.072	17.38
653.105	1.38
653.138	-41.62
653.171	-9.62
653.204	-7.62
653.237	4.38
653.27	0.38
653.303	6.38
653.336	22.38
653.368	-14.62
653.401	7.38
653.434	5.38
653.467	-0.62
653.5	1.38
653.533	-5.62
653.566	5.38
653.599	5.38
653.632	-0.62
653.665	-3.62
653.698	-8.62
653.731	-9.62
653.764	2.38
653.797	9.38
653.83	3.38
653.863	0.38
653.896	2.38
653.929	4.38
653.961	-0.62
653.994	10.38
654.027	-9.62
654.06	9.38
654.093	-9.62
654.126	-8.62
654.159	-2.62
654.192	15.38
654.225	9.38
654.258	-8.62
654.29	-0.62
654.323	-2.62
654.356	-3.62
654.389	9.38
654.422	-2.62
654.455	8.38
654.488	16.38
654.521	-10.62
654.553	-21.62
654.586	-2.62
654.619	3.38
654.652	14.38
654.685	-12.62
654.718	-0.62
654.751	11.38
654.783	5.38
654.816	6.38
654.849	5.38
654.882	3.38
654.915	-4.62
654.948	1.38
654.98	-18.62
655.013	-22.62
655.046	-8.62
655.079	-6.62
655.112	1.38
655.144	-5.62
655.177	10.38
655.21	27.38
655.243	7.38
655.276	4.38
655.308	-7.62
655.341	-2.62
655.374	-1.62
655.407	-0.62
655.44	-5.62
655.472	9.38
655.505	4.38
655.538	-18.62
655.571	-7.62
655.603	-20.62
655.636	-31.62
655.669	15.38
655.702	7.38
655.734	-11.62
655.767	-24.62
655.8	10.38
655.833	14.38
655.865	11.38
655.898	4.38
655.931	-0.62
655.964	-2.62
655.996	7.38
656.029	5.38
656.062	-5.62
656.095	-4.62
656.127	-9.62
656.16	-0.62
656.193	4.38
656.225	0.38
656.258	13.38
656.291	12.38
656.324	5.38
656.356	5.38
656.389	11.38
656.422	6.38
656.454	7.38
656.487	8.38
656.52	13.38
656.552	-3.62
656.585	-4.62
656.618	-1.62
656.65	11.38
656.683	1.38
656.716	-6.62
656.748	0.38
656.781	16.38
656.814	-16.62
656.846	0.38
656.879	-10.62
656.912	-15.62
656.944	-5.62
656.977	-8.62
657.01	-18.62
657.042	2.38
657.075	-5.62
657.108	-8.62
657.14	23.38
657.173	26.38
657.205	27.38
657.238	6.38
657.271	4.38
657.303	-12.62
657.336	17.38
657.369	5.38
657.401	-8.62
657.434	0.38
657.466	15.38
657.499	11.38
657.532	-12.62
657.564	4.38
657.597	-3.62
657.629	17.38
657.662	14.38
657.694	3.38
657.727	-21.62
657.76	7.38
657.792	-5.62
657.825	-8.62
657.857	-4.62
657.89	-8.62
657.922	2.38
657.955	-1.62
657.987	-11.62
658.02	6.38
658.053	1.38
658.085	3.38
658.118	6.38
658.15	13.38
658.183	17.38
658.215	-8.62
658.248	1.38
658.28	-0.62
658.313	18.38
658.345	5.38
658.378	-2.62
658.41	-1.62
658.443	29.38
658.475	9.38
658.508	3.38
658.54	-9.62
658.573	-14.62
658.605	-1.62
658.638	-8.62
658.67	-18.62
658.703	-12.62
658.735	-26.62
658.768	8.38
658.8	-16.62
658.833	13.38
658.865	13.38
658.898	-0.62
658.93	-10.62
658.963	-12.62
658.995	-15.62
659.028	2.38
659.06	-9.62
659.092	-15.62
659.125	0.38
659.157	11.38
659.19	-0.62
659.222	12.38
659.255	-0.62
659.287	19.38
659.32	6.38
659.352	-1.62
659.384	11.38
659.417	-7.62
659.449	-14.62
659.482	-2.62
659.514	-4.62
659.546	-6.62
659.579	-5.62
659.611	-5.62
659.644	-8.62
659.676	-3.62
659.708	-7.62
659.741	-4.62
659.773	13.38
659.806	2.38
659.838	0.38
659.87	-3.62
659.903	9.38
659.935	11.38
659.967	0.38
660	9.38
660.032	-12.62
660.065	26.38
660.097	-9.62
660.129	-5.62
660.162	3.38
660.194	18.38
660.226	8.38
660.259	10.38
660.291	-3.62
660.323	0.38
660.356	2.38
660.388	-4.62
660.42	2.38
660.453	9.38
660.485	4.38
660.517	12.38
660.55	16.38
660.582	-6.62
660.614	5.38
660.647	2.38
660.679	-21.62
660.711	-0.62
660.743	-6.62
660.776	-10.62
660.808	7.38
660.84	-13.62
660.873	1.38
660.905	7.38
660.937	-0.62
660.969	3.38
661.002	-6.62
661.034	7.38
661.066	1.38
661.099	10.38
661.131	30.38
661.163	5.38
661.195	-4.62
661.228	5.38
661.26	-6.62
661.292	-10.62
661.324	-10.62
661.357	10.38
661.389	9.38
661.421	5.38
661.453	-5.62
661.485	2.38
661.518	-6.62
661.55	-23.62
661.582	-24.62
661.614	-1.62
661.647	17.38
661.679	14.38
661.711	1.38
661.743	-13.62
661.775	8.38
661.808	15.38
661.84	1.38
661.872	16.38
661.904	-9.62
661.936	-1.62
661.969	-12.62
662.001	1.38
662.033	-8.62
662.065	-4.62
662.097	12.38
662.129	25.38
662.162	6.38
662.194	6.38
662.226	0.38
662.258	-0.62
662.29	-9.62
662.322	-8.62
662.355	-21.62
662.387	10.38
662.419	5.38
662.451	5.38
662.483	18.38
662.515	-2.62
662.547	-2.62
662.58	-6.62
662.612	-4.62
662.644	-3.62
662.676	-6.62
662.708	17.38
662.74	-14.62
662.772	19.38
662.804	10.38
662.836	11.38
662.869	9.38
662.901	11.38
662.933	-10.62
662.965	12.38
662.997	16.38
663.029	-11.62
663.061	-5.62
663.093	3.38
663.125	18.38
663.157	7.38
663.189	6.38
663.221	1.38
663.254	6.38
663.286	9.38
663.318	-13.62
663.35	-9.62
663.382	-2.62
663.414	-0.62
663.446	-4.62
663.478	-1.62
663.51	21.38
663.542	-15.62
663.574	1.38
663.606	1.38
663.638	-13.62
663.67	-0.62
663.702	-3.62
663.734	-14.62
663.766	9.38
663.798	-10.62
663.83	1.38
663.862	18.38
663.894	5.38
663.926	-4.62
663.958	17.38
663.99	7.38
664.022	9.38
664.054	10.38
664.086	-10.62
664.118	-8.62
664.15	-4.62
664.182	-9.62
664.214	-2.62
664.246	18.38
664.278	-1.62
664.31	13.38
664.342	-0.62
664.374	2.38
664.406	-7.62
664.438	5.38
664.47	8.38
664.502	-8.62
664.534	7.38
664.566	-7.62
664.598	11.38
664.63	-1.62
664.662	2.38
664.693	-0.62
664.725	-13.62
664.757	-3.62
664.789	-7.62
664.821	11.38
664.853	13.38
664.885	5.38
664.917	-1.62
664.949	10.38
664.981	22.38
665.013	1.38
665.045	-0.62
665.076	3.38
665.108	8.38
665.14	0.38
665.172	20.38
665.204	-0.62
665.236	-1.62
665.268	14.38
665.3	2.38
665.331	4.38
665.363	0.38
665.395	-9.62
665.427	-1.62
665.459	-5.62
665.491	-16.62
665.523	-13.62
665.555	2.38
665.586	1.38
665.618	7.38
665.65	-22.62
665.682	-0.62
665.714	-1.62
665.746	-0.62
665.777	10.38
665.809	-13.62
665.841	-0.62
665.873	9.38
665.905	10.38
665.937	12.38
665.968	2.38
666	-10.62
666.032	-1.62
666.064	-6.62
666.096	-2.62
666.127	15.38
666.159	2.38
666.191	-5.62
666.223	-1.62
666.255	2.38
666.286	-1.62
666.318	-7.62
666.35	10.38
666.382	4.38
666.413	-0.62
666.445	3.38
666.477	-3.62
666.509	-6.62
666.54	1.38
666.572	3.38
666.604	16.38
666.636	12.38
666.667	14.38
666.699	21.38
666.731	7.38
666.763	-10.62
666.794	-9.62
666.826	17.38
666.858	-19.62
666.89	5.38
666.921	9.38
666.953	4.38
666.985	22.38
667.017	29.38
667.048	11.38
667.08	3.38
667.112	-3.62
667.143	-7.62
667.175	-11.62
667.207	1.38
667.238	8.38
667.27	6.38
667.302	-7.62
667.334	3.38
667.365	19.38
667.397	10.38
667.429	-10.62
667.46	11.38
667.492	-4.62
667.524	-6.62
667.555	-18.62
667.587	-18.62
667.619	-21.62
667.65	-3.62
667.682	15.38
667.714	4.38
667.745	10.38
667.777	21.38
667.808	5.38
667.84	5.38
667.872	-16.62
667.903	11.38
667.935	5.38
667.967	7.38
667.998	5.38
668.03	16.38
668.061	0.38
668.093	9.38
668.125	21.38
668.156	1.38
668.188	-8.62
668.22	-12.62
668.251	-1.62
668.283	-0.62
668.314	21.38
668.346	15.38
668.377	15.38
668.409	6.38
668.441	24.38
668.472	10.38
668.504	11.38
668.535	2.38
668.567	24.38
668.599	-2.62
668.63	-16.62
668.662	5.38
668.693	17.38
668.725	-10.62
668.756	2.38
668.788	-12.62
668.819	0.38
668.851	-13.62
668.882	-7.62
668.914	-6.62
668.946	-3.62
668.977	-6.62
669.009	0.38
669.04	-1.62
669.072	-7.62
669.103	3.38
669.135	-5.62
669.166	11.38
669.198	12.38
669.229	8.38
669.261	4.38
669.292	3.38
669.324	1.38
669.355	-5.62
669.387	-10.62
669.418	-5.62
669.45	7.38
669.481	-2.62
669.513	-2.62
669.544	5.38
669.576	3.38
669.607	4.38
669.639	17.38
669.67	-23.62
669.701	1.38
669.733	-6.62
669.764	0.38
669.796	-7.62
669.827	-7.62
669.859	-24.62
669.89	8.38
669.922	4.38
669.953	7.38
669.985	4.38
670.016	13.38
670.047	5.38
670.079	0.38
670.11	4.38
670.142	-6.62
670.173	-3.62
670.204	-4.62
670.236	-12.62
670.267	-2.62
670.299	5.38
670.33	1.38
670.362	-11.62
670.393	0.38
670.424	9.38
670.456	-26.62
670.487	-5.62
670.518	-10.62
670.55	1.38
670.581	2.38
670.613	6.38
670.644	0.38
670.675	-26.62
670.707	-8.62
670.738	2.38
670.769	-18.62
670.801	-9.62
670.832	-9.62
670.864	-26.62
670.895	5.38
670.926	-7.62
670.958	-3.62
670.989	-0.62
671.02	0.38
671.052	-6.62
671.083	0.38
671.114	-9.62
671.146	8.38
671.177	-8.62
671.208	-12.62
671.24	-4.62
671.271	-9.62
671.302	-2.62
671.333	-5.62
671.365	-10.62
671.396	3.38
671.427	9.38
671.459	-0.62
671.49	10.38
671.521	4.38
671.553	-2.62
671.584	-3.62
671.615	7.38
671.646	5.38
671.678	10.38
671.709	-13.62
671.74	-27.62
671.771	-6.62
671.803	-3.62
671.834	5.38
671.865	-13.62
671.896	-0.62
671.928	-11.62
671.959	-8.62
671.99	-2.62
672.021	7.38
672.053	-13.62
672.084	17.38
672.115	12.38
672.146	8.38
672.178	-11.62
672.209	-20.62
672.24	-5.62
672.271	25.38
672.303	0.38
672.334	-9.62
672.365	-18.62
672.396	-7.62
672.427	-3.62
672.459	-1.62
672.49	18.38
672.521	9.38
672.552	17.38
672.583	2.38
672.615	3.38
672.646	-2.62
672.677	-4.62
672.708	7.38
672.739	9.38
672.77	25.38
672.802	14.38
672.833	-18.62
672.864	-13.62
672.895	-4.62
672.926	-17.62
672.957	-8.62
672.989	-12.62
673.02	14.38
673.051	-8.62
673.082	3.38
673.113	11.38
673.144	16.38
673.175	1.38
673.206	-0.62
673.238	-11.62
673.269	-0.62
673.3	-1.62
673.331	17.38
673.362	2.38
673.393	9.38
673.424	7.38
673.455	-5.62
673.487	-0.62
673.518	3.38
673.549	9.38
673.58	8.38
673.611	8.38
673.642	10.38
673.673	-11.62
673.704	-10.62
673.735	-12.62
673.766	1.38
673.797	-1.62
673.828	10.38
673.86	-23.62
673.891	-6.62
673.922	-14.62
673.953	-17.62
673.984	-1.62
674.015	4.38
674.046	24.38
674.077	10.38
674.108	-12.62
674.139	-1.62
674.17	1.38
674.201	4.38
674.232	1.38
674.263	-4.62
674.294	-6.62
674.325	-6.62
674.356	25.38
674.387	12.38
674.418	12.38
674.449	1.38
674.48	-0.62
674.511	-8.62
674.542	8.38
674.573	-17.62
674.604	11.38
674.635	-0.62
674.666	-3.62
674.697	-3.62
674.728	6.38
674.759	-12.62
674.79	-7.62
674.821	6.38
674.852	0.38
674.883	-4.62
674.914	13.38
674.945	3.38
674.976	-0.62
675.007	-12.62
675.038	-16.62
675.069	-15.62
675.1	-3.62
675.131	8.38
675.162	-7.62
675.193	-13.62
675.224	1.38
675.254	17.38
675.285	6.38
675.316	21.38
675.347	-3.62
675.378	-10.62
675.409	-7.62
675.44	9.38
675.471	-3.62
675.502	-7.62
675.533	-5.62
675.564	-0.62
675.595	-7.62
675.625	22.38
675.656	-0.62
675.687	6.38
675.718	-0.62
675.749	12.38
675.78	-1.62
675.811	-3.62
675.842	-8.62
675.873	-1.62
675.903	-17.62
675.934	-0.62
675.965	1.38
675.996	-12.62
676.027	5.38
676.058	1.38
676.089	-23.62
676.119	1.38
676.15	-6.62
676.181	-3.62
676.212	2.38
676.243	28.38
676.274	9.38
676.304	13.38
676.335	-13.62
676.366	-10.62
676.397	-1.62
676.428	-15.62
676.459	6.38
676.489	20.38
676.52	1.38
676.551	9.38
676.582	7.38
676.613	-0.62
676.643	5.38
676.674	12.38
676.705	4.38
676.736	-3.62
676.767	7.38
676.797	12.38
676.828	-9.62
676.859	-12.62
676.89	-10.62
676.92	1.38
676.951	3.38
676.982	-8.62
677.013	-9.62
677.044	26.38
677.074	21.38
677.105	-3.62
677.136	-4.62
677.167	3.38
677.197	6.38
677.228	-3.62
677.259	-1.62
677.289	-7.62
677.32	-8.62
677.351	-7.62
677.382	7.38
677.412	10.38
677.443	-3.62
677.474	8.38
677.505	-9.62
677.535	11.38
677.566	11.38
677.597	-10.62
677.627	-22.62
677.658	-4.62
677.689	5.38
677.72	3.38
677.75	6.38
677.781	0.38
677.812	8.38
677.842	2.38
677.873	-12.62
677.904	6.38
677.934	0.38
677.965	9.38
677.996	-17.62
678.026	-13.62
678.057	-3.62
678.088	-1.62
678.118	-5.62
678.149	-16.62
678.18	-6.62
678.21	-0.62
678.241	2.38
678.272	-4.62
678.302	-18.62
678.333	17.38
678.363	1.38
678.394	7.38
678.425	1.38
678.455	5.38
678.486	22.38
678.517	0.38
678.547	-6.62
678.578	-5.62
678.608	-28.62
678.639	5.38
678.67	14.38
678.7	-3.62
678.731	-9.62
678.761	-1.62
678.792	15.38
678.823	21.38
678.853	3.38
678.884	0.38
678.914	17.38
678.945	6.38
678.975	-14.62
679.006	5.38
679.037	-8.62
679.067	13.38
679.098	7.38
679.128	-1.62
679.159	-7.62
679.189	13.38
679.22	-5.62
679.25	1.38
679.281	-11.62
679.312	-10.62
679.342	12.38
679.373	24.38
679.403	10.38
679.434	18.38
679.464	-0.62
679.495	4.38
679.525	20.38
679.556	4.38
679.586	-0.62
679.617	2.38
679.647	-4.62
679.678	1.38
679.708	11.38
679.739	4.38
679.769	17.38
679.8	6.38
679.83	-0.62
679.861	4.38
679.891	-14.62
679.922	-26.62
679.952	-7.62
679.983	11.38
680.013	7.38
680.044	-2.62
680.074	9.38
680.105	10.38
680.135	18.38
680.165	5.38
680.196	6.38
680.226	6.38
680.257	19.38
680.287	5.38
680.318	-9.62
680.348	-16.62
680.379	-8.62
680.409	3.38
680.439	-1.62
680.47	0.38
680.5	11.38
680.531	9.38
680.561	17.38
680.592	9.38
680.622	15.38
680.652	-8.62
680.683	11.38
680.713	7.38
680.744	-7.62
680.774	-7.62
680.804	15.38
680.835	1.38
680.865	-8.62
680.896	21.38
680.926	17.38
680.956	4.38
680.987	-11.62
681.017	-8.62
681.047	0.38
681.078	-29.62
681.108	9.38
681.139	-0.62
681.169	4.38
681.199	-0.62
681.23	9.38
681.26	14.38
681.29	19.38
681.321	3.38
681.351	-0.62
681.381	-9.62
681.412	-1.62
681.442	10.38
681.472	13.38
681.503	19.38
681.533	-2.62
681.563	10.38
681.594	1.38
681.624	5.38
681.654	-15.62
681.685	2.38
681.715	4.38
681.745	11.38
681.775	-19.62
681.806	-4.62
681.836	2.38
681.866	-7.62
681.897	5.38
681.927	-3.62
681.957	-15.62
681.987	-7.62
682.018	-3.62
682.048	9.38
682.078	-3.62
682.109	13.38
682.139	-1.62
682.169	2.38
682.199	11.38
682.23	-5.62
682.26	5.38
682.29	5.38
682.32	2.38
682.351	-10.62
682.381	4.38
682.411	1.38
682.441	1.38
682.472	0.38
682.502	-20.62
682.532	-10.62
682.562	1.38
682.592	6.38
682.623	11.38
682.653	12.38
682.683	14.38
682.713	11.38
682.743	8.38
682.774	1.38
682.804	0.38
682.834	12.38
682.864	-4.62
682.894	3.38
682.925	-7.62
682.955	12.38
682.985	3.38
683.015	-5.62
683.045	35.38
683.076	-4.62
683.106	-8.62
683.136	-1.62
683.166	-14.62
683.196	4.38
683.226	2.38
683.257	6.38
683.287	-15.62
683.317	-11.62
683.347	-5.62
683.377	-5.62
683.407	-11.62
683.437	12.38
683.468	6.38
683.498	-10.62
683.528	4.38
683.558	-5.62
683.588	-2.62
683.618	-26.62
683.648	6.38
683.678	0.38
683.708	15.38
683.739	9.38
683.769	3.38
683.799	-5.62
683.829	5.38
683.859	8.38
683.889	11.38
683.919	0.38
683.949	-4.62
683.979	-7.62
684.009	13.38
684.039	-7.62
684.07	-11.62
684.1	11.38
684.13	13.38
684.16	-6.62
684.19	5.38
684.22	3.38
684.25	18.38
684.28	-9.62
684.31	9.38
684.34	17.38
684.37	7.38
684.4	-11.62
684.43	1.38
684.46	-9.62
684.49	2.38
684.52	12.38
684.55	5.38
684.58	-4.62
684.61	-6.62
684.64	3.38
684.67	20.38
684.7	-11.62
684.73	7.38
684.76	-2.62
684.79	15.38
684.82	9.38
684.85	4.38
684.88	-0.62
684.91	-5.62
684.94	1.38
684.97	7.38
685	-6.62
685.03	-3.62
685.06	-12.62
685.09	-2.62
685.12	27.38
685.15	-2.62
685.18	4.38
685.21	5.38
685.24	12.38
685.27	2.38
685.3	0.38
685.33	1.38
685.36	7.38
685.39	4.38
685.42	-3.62
685.45	2.38
685.48	3.38
685.51	-14.62
685.54	7.38
685.569	14.38
685.599	4.38
685.629	16.38
685.659	5.38
685.689	-17.62
685.719	1.38
685.749	-2.62
685.779	3.38
685.809	21.38
685.839	-4.62
685.869	-0.62
685.898	1.38
685.928	0.38
685.958	-0.62
685.988	12.38
686.018	-0.62
686.048	18.38
686.078	7.38
686.108	1.38
686.137	2.38
686.167	8.38
686.197	-0.62
686.227	3.38
686.257	31.38
686.287	34.38
686.317	14.38
686.346	0.38
686.376	-6.62
686.406	-15.62
686.436	5.38
686.466	6.38
686.496	15.38
686.525	15.38
686.555	2.38
686.585	15.38
686.615	17.38
686.645	5.38
686.675	-3.62
686.704	-10.62
686.734	6.38
686.764	-3.62
686.794	-3.62
686.824	-6.62
686.853	5.38
686.883	16.38
686.913	-0.62
686.943	2.38
686.973	-4.62
687.002	18.38
687.032	-0.62
687.062	1.38
687.092	18.38
687.121	-5.62
687.151	24.38
687.181	8.38
687.211	4.38
687.24	6.38
687.27	7.38
687.3	-14.62
687.33	2.38
687.359	-18.62
687.389	3.38
687.419	-11.62
687.449	-7.62
687.478	-0.62
687.508	-3.62
687.538	5.38
687.568	15.38
687.597	-9.62
687.627	1.38
687.657	-2.62
687.686	-2.62
687.716	12.38
687.746	-9.62
687.776	0.38
687.805	2.38
687.835	22.38
687.865	32.38
687.894	5.38
687.924	-2.62
687.954	-3.62
687.983	13.38
688.013	10.38
688.043	5.38
688.072	15.38
688.102	28.38
688.132	6.38
688.161	-0.62
688.191	10.38
688.221	9.38
688.25	-8.62
688.28	10.38
688.31	-5.62
688.339	8.38
688.369	-17.62
688.399	-9.62
688.428	2.38
688.458	0.38
688.488	-3.62
688.517	4.38
688.547	9.38
688.576	28.38
688.606	-10.62
688.636	-12.62
688.665	5.38
688.695	-3.62
688.725	3.38
688.754	-7.62
688.784	2.38
688.813	6.38
688.843	-5.62
688.873	-2.62
688.902	-3.62
688.932	-2.62
688.961	13.38
688.991	0.38
689.02	6.38
689.05	-1.62
689.08	21.38
689.109	12.38
689.139	11.38
689.168	-6.62
689.198	0.38
689.227	-4.62
689.257	-1.62
689.287	6.38
689.316	-2.62
689.346	-15.62
689.375	-15.62
689.405	9.38
689.434	-2.62
689.464	-5.62
689.493	2.38
689.523	-8.62
689.552	-2.62
689.582	10.38
689.611	2.38
689.641	9.38
689.67	-8.62
689.7	9.38
689.73	21.38
689.759	-3.62
689.789	15.38
689.818	5.38
689.848	8.38
689.877	2.38
689.906	-6.62
689.936	-3.62
689.965	1.38
689.995	-0.62
690.024	14.38
690.054	11.38
690.083	16.38
690.113	-2.62
690.142	-4.62
690.172	0.38
690.201	-2.62
690.231	-8.62
690.26	11.38
690.29	-11.62
690.319	9.38
690.348	0.38
690.378	8.38
690.407	14.38
690.437	2.38
690.466	8.38
690.496	-8.62
690.525	5.38
690.555	-9.62
690.584	-5.62
690.613	-7.62
690.643	20.38
690.672	8.38
690.702	10.38
690.731	15.38
690.76	34.38
690.79	42.38
690.819	55.38
690.849	25.38
690.878	8.38
690.907	5.38
690.937	27.38
690.966	11.38
690.996	-5.62
691.025	2.38
691.054	-1.62
691.084	14.38
691.113	14.38
691.142	9.38
691.172	11.38
691.201	10.38
691.23	6.38
691.26	21.38
691.289	3.38
691.319	4.38
691.348	8.38
691.377	28.38
691.407	16.38
691.436	8.38
691.465	-17.62
691.495	1.38
691.524	2.38
691.553	-2.62
691.583	-8.62
691.612	8.38
691.641	0.38
691.67	-21.62
691.7	-7.62
691.729	-18.62
691.758	-3.62
691.788	9.38
691.817	-5.62
691.846	-5.62
691.876	6.38
691.905	2.38
691.934	-9.62
691.963	16.38
691.993	2.38
692.022	-15.62
692.051	-9.62
692.081	10.38
692.11	24.38
692.139	5.38
692.168	-0.62
692.198	16.38
692.227	7.38
692.256	4.38
692.285	-12.62
692.315	9.38
692.344	3.38
692.373	1.38
692.402	-16.62
692.432	-1.62
692.461	-4.62
692.49	-10.62
692.519	4.38
692.548	21.38
692.578	-1.62
692.607	-2.62
692.636	-19.62
692.665	1.38
692.694	-2.62
692.724	-9.62
692.753	-0.62
692.782	16.38
692.811	-2.62
692.84	-2.62
692.87	0.38
692.899	8.38
692.928	6.38
692.957	18.38
692.986	4.38
693.016	4.38
693.045	8.38
693.074	1.38
693.103	0.38
693.132	13.38
693.161	4.38
693.191	11.38
693.22	-7.62
693.249	8.38
693.278	-0.62
693.307	16.38
693.336	-6.62
693.365	-29.62
693.395	9.38
693.424	17.38
693.453	22.38
693.482	2.38
693.511	6.38
693.54	5.38
693.569	-0.62
693.598	-14.62
693.628	15.38
693.657	17.38
693.686	8.38
693.715	-2.62
693.744	8.38
693.773	3.38
693.802	-1.62
693.831	4.38
693.86	9.38
693.889	-5.62
693.919	3.38
693.948	0.38
693.977	3.38
694.006	-7.62
694.035	2.38
694.064	-9.62
694.093	-14.62
694.122	-20.62
694.151	-2.62
694.18	6.38
694.209	20.38
694.238	3.38
694.267	20.38
694.296	-2.62
694.325	13.38
694.354	-0.62
694.383	-0.62
694.412	2.38
694.441	6.38
694.471	-10.62
694.5	-5.62
694.529	2.38
694.558	22.38
694.587	9.38
694.616	-0.62
694.645	-10.62
694.674	16.38
694.703	26.38
694.732	-3.62
694.761	17.38
694.79	3.38
694.819	-3.62
694.848	4.38
694.877	17.38
694.906	26.38
694.935	10.38
694.963	-0.62
694.992	-3.62
695.021	8.38
695.05	10.38
695.079	11.38
695.108	-7.62
695.137	6.38
695.166	8.38
695.195	-11.62
695.224	4.38
695.253	4.38
695.282	5.38
695.311	11.38
695.34	-1.62
695.369	16.38
695.398	7.38
695.427	5.38
695.456	4.38
695.485	1.38
695.513	17.38
695.542	-1.62
695.571	9.38
695.6	16.38
695.629	12.38
695.658	6.38
695.687	-0.62
695.716	-1.62
695.745	21.38
695.774	-5.62
695.802	-3.62
695.831	15.38
695.86	18.38
695.889	6.38
695.918	6.38
695.947	-10.62
695.976	5.38
696.005	7.38
696.033	-4.62
696.062	10.38
696.091	7.38
696.12	11.38
696.149	9.38
696.178	5.38
696.207	6.38
696.235	5.38
696.264	10.38
696.293	-12.62
696.322	16.38
696.351	6.38
696.38	3.38
696.408	3.38
696.437	-3.62
696.466	6.38
696.495	19.38
696.524	18.38
696.553	1.38
696.581	8.38
696.61	2.38
696.639	7.38
696.668	-13.62
696.697	-2.62
696.725	10.38
696.754	11.38
696.783	-4.62
696.812	-10.62
696.84	5.38
696.869	8.38
696.898	3.38
696.927	-0.62
696.956	25.38
696.984	-4.62
697.013	5.38
697.042	-5.62
697.071	7.38
697.099	16.38
697.128	-14.62
697.157	-3.62
697.186	6.38
697.214	-3.62
697.243	-14.62
697.272	-4.62
697.301	12.38
697.329	9.38
697.358	-1.62
697.387	21.38
697.415	14.38
697.444	13.38
697.473	-6.62
697.502	-9.62
697.53	5.38
697.559	1.38
697.588	20.38
697.616	1.38
697.645	14.38
697.674	12.38
697.703	3.38
697.731	1.38
697.76	19.38
697.789	-10.62
697.817	5.38
697.846	22.38
697.875	-4.62
697.903	7.38
697.932	22.38
697.961	16.38
697.989	14.38
698.018	8.38
698.047	11.38
698.075	14.38
698.104	3.38
698.133	2.38
698.161	-3.62
698.19	3.38
698.218	-7.62
698.247	14.38
698.276	-0.62
698.304	8.38
698.333	10.38
698.362	10.38
698.39	16.38
698.419	7.38
698.447	1.38
698.476	-1.62
698.505	5.38
698.533	14.38
698.562	-9.62
698.591	-2.62
698.619	-2.62
698.648	22.38
698.676	21.38
698.705	5.38
698.733	-5.62
698.762	3.38
698.791	-8.62
698.819	-1.62
698.848	-7.62
698.876	23.38
698.905	0.38
698.933	1.38
698.962	7.38
698.991	1.38
699.019	17.38
699.048	11.38
699.076	9.38
699.105	9.38
699.133	11.38
699.162	1.38
699.19	24.38
699.219	12.38
699.248	5.38
699.276	-1.62
699.305	10.38
699.333	3.38
699.362	-2.62
699.39	9.38
699.419	-7.62
699.447	5.38
699.476	11.38
699.504	-6.62
699.533	-0.62
699.561	-10.62
699.59	-4.62
699.618	-11.62
699.647	4.38
699.675	13.38
699.704	7.38
699.732	4.38
699.761	12.38
699.789	0.38
699.818	21.38
699.846	-2.62
699.874	-6.62
699.903	6.38
699.931	2.38
699.96	5.38
699.988	12.38
700.017	-4.62
700.045	5.38
700.074	2.38
700.102	-0.62
700.13	-7.62
700.159	0.38
700.187	6.38
700.216	-10.62
700.244	-20.62
700.273	-27.62
700.301	-8.62
700.329	-0.62
700.358	6.38
700.386	3.38
700.415	-4.62
700.443	-4.62
700.472	12.38
700.5	-2.62
700.528	-3.62
700.557	6.38
700.585	6.38
700.614	10.38
700.642	18.38
700.67	15.38
700.699	16.38
700.727	2.38
700.755	21.38
700.784	5.38
700.812	-2.62
700.841	0.38
700.869	0.38
700.897	-3.62
700.926	-10.62
700.954	15.38
700.982	14.38
701.011	1.38
701.039	2.38
701.067	1.38
701.096	24.38
701.124	-2.62
701.152	15.38
701.181	-1.62
701.209	-10.62
701.237	4.38
701.266	-3.62
701.294	-3.62
701.322	-2.62
701.351	4.38
701.379	0.38
701.407	-15.62
701.435	5.38
701.464	5.38
701.492	8.38
701.52	9.38
701.549	8.38
701.577	-7.62
701.605	-3.62
701.634	1.38
701.662	11.38
701.69	-11.62
701.718	-13.62
701.747	-0.62
701.775	6.38
701.803	-1.62
701.831	4.38
701.86	2.38
701.888	-3.62
701.916	2.38
701.944	16.38
701.973	-2.62
702.001	-0.62
702.029	10.38
702.057	-2.62
702.086	-9.62
702.114	-14.62
702.142	-3.62
702.17	-6.62
702.199	13.38
702.227	9.38
702.255	-2.62
702.283	-5.62
702.311	20.38
702.34	2.38
702.368	-1.62
702.396	-3.62
702.424	0.38
702.452	-6.62
702.481	0.38
702.509	-18.62
702.537	-2.62
702.565	12.38
702.593	-21.62
702.621	-8.62
702.65	11.38
702.678	-5.62
702.706	-8.62
702.734	-4.62
702.762	6.38
702.79	0.38
702.819	0.38
702.847	10.38
702.875	20.38
702.903	29.38
702.931	-0.62
702.959	10.38
702.988	-9.62
703.016	-8.62
703.044	6.38
703.072	-1.62
703.1	2.38
703.128	-2.62
703.156	6.38
703.184	8.38
703.212	-10.62
703.241	-6.62
703.269	12.38
703.297	-9.62
703.325	-0.62
703.353	-9.62
703.381	-10.62
703.409	6.38
703.437	-9.62
703.465	-2.62
703.493	-7.62
703.522	-0.62
703.55	-0.62
703.578	1.38
703.606	-8.62
703.634	-3.62
703.662	-14.62
703.69	-4.62
703.718	14.38
703.746	4.38
703.774	5.38
703.802	-1.62
703.83	5.38
703.858	-5.62
703.886	-12.62
703.914	-7.62
703.942	23.38
703.97	-15.62
703.998	-9.62
704.027	6.38
704.055	2.38
704.083	10.38
704.111	3.38
704.139	3.38
704.167	-3.62
704.195	6.38
704.223	-2.62
704.251	6.38
704.279	14.38
704.307	3.38
704.335	-15.62
704.363	6.38
704.391	3.38
704.419	-3.62
704.447	-3.62
704.475	-0.62
704.503	5.38
704.531	30.38
704.558	0.38
704.586	4.38
704.614	10.38
704.642	-0.62
704.67	-8.62
704.698	0.38
704.726	-3.62
704.754	-14.62
704.782	-11.62
704.81	5.38
704.838	5.38
704.866	13.38
704.894	-18.62
704.922	3.38
704.95	-0.62
704.978	-5.62
705.006	0.38
705.034	7.38
705.061	-4.62
705.089	2.38
705.117	-14.62
705.145	-15.62
705.173	-2.62
705.201	5.38
705.229	16.38
705.257	12.38
705.285	-2.62
705.313	1.38
705.34	12.38
705.368	1.38
705.396	12.38
705.424	9.38
705.452	0.38
705.48	-0.62
705.508	4.38
705.536	0.38
705.563	-10.62
705.591	11.38
705.619	9.38
705.647	-12.62
705.675	5.38
705.703	11.38
705.731	-3.62
705.758	-4.62
705.786	7.38
705.814	28.38
705.842	5.38
705.87	15.38
705.898	0.38
705.925	-8.62
705.953	5.38
705.981	4.38
706.009	-6.62
706.037	9.38
706.065	10.38
706.092	-12.62
706.12	-3.62
706.148	-8.62
706.176	1.38
706.204	10.38
706.231	8.38
706.259	-5.62
706.287	-12.62
706.315	12.38
706.342	1.38
706.37	20.38
706.398	14.38
706.426	0.38
706.454	2.38
706.481	5.38
706.509	-1.62
706.537	3.38
706.565	-4.62
706.592	3.38
706.62	-9.62
706.648	6.38
706.676	-7.62
706.703	-14.62
706.731	-9.62
706.759	-9.62
706.787	-8.62
706.814	14.38
706.842	-0.62
706.87	-1.62
706.897	1.38
706.925	5.38
706.953	-2.62
706.981	16.38
707.008	16.38
707.036	-3.62
707.064	-8.62
707.091	-13.62
707.119	1.38
707.147	-0.62
707.174	-15.62
707.202	4.38
707.23	-19.62
707.258	18.38
707.285	-11.62
707.313	5.38
707.341	-22.62
707.368	-6.62
707.396	3.38
707.424	0.38
707.451	19.38
707.479	5.38
707.507	-1.62
707.534	0.38
707.562	12.38
707.59	-6.62
707.617	-19.62
707.645	-10.62
707.672	12.38
707.7	9.38
707.728	14.38
707.755	6.38
707.783	-7.62
707.811	-12.62
707.838	-1.62
707.866	1.38
707.893	-5.62
707.921	12.38
707.949	-3.62
707.976	2.38
708.004	-9.62
708.031	-6.62
708.059	-8.62
708.087	-7.62
708.114	-12.62
708.142	0.38
708.169	-6.62
708.197	-7.62
708.225	0.38
708.252	-2.62
708.28	15.38
708.307	5.38
708.335	-5.62
708.362	-5.62
708.39	-2.62
708.418	-11.62
708.445	-15.62
708.473	-11.62
708.5	-3.62
708.528	9.38
708.555	1.38
708.583	5.38
708.61	-5.62
708.638	8.38
708.665	-15.62
708.693	5.38
708.72	-4.62
708.748	-5.62
708.776	0.38
708.803	19.38
708.831	0.38
708.858	8.38
708.886	8.38
708.913	-3.62
708.941	-6.62
708.968	21.38
708.996	-10.62
709.023	13.38
709.051	11.38
709.078	4.38
709.105	-2.62
709.133	12.38
709.16	5.38
709.188	6.38
709.215	22.38
709.243	16.38
709.27	-19.62
709.298	-3.62
709.325	-4.62
709.353	3.38
709.38	-1.62
709.408	10.38
709.435	4.38
709.462	-0.62
709.49	-3.62
709.517	-13.62
709.545	-5.62
709.572	1.38
709.6	-15.62
709.627	1.38
709.655	-7.62
709.682	-3.62
709.709	13.38
709.737	9.38
709.764	-7.62
709.792	11.38
709.819	0.38
709.846	-5.62
709.874	3.38
709.901	8.38
709.929	19.38
709.956	0.38
709.983	-25.62
710.011	-10.62
710.038	-4.62
710.066	-4.62
710.093	9.38
710.12	-0.62
710.148	2.38
710.175	-20.62
710.202	-6.62
710.23	-1.62
710.257	-9.62
710.284	-5.62
710.312	0.38
710.339	-3.62
710.366	1.38
710.394	-10.62
710.421	-9.62
710.448	-0.62
710.476	-12.62
710.503	8.38
710.53	12.38
710.558	3.38
710.585	8.38
710.612	-1.62
710.64	-3.62
710.667	-1.62
710.694	-3.62
710.722	-14.62
710.749	-4.62
710.776	3.38
710.804	20.38
710.831	13.38
710.858	0.38
710.885	-4.62
710.913	-6.62
710.94	10.38
710.967	1.38
710.995	-6.62
711.022	2.38
711.049	11.38
711.076	-2.62
711.104	3.38
711.131	-4.62
711.158	8.38
711.185	4.38
711.213	-12.62
711.24	-6.62
711.267	-6.62
711.294	-7.62
711.322	22.38
711.349	-4.62
711.376	-6.62
711.403	1.38
711.431	17.38
711.458	-3.62
711.485	8.38
711.512	2.38
711.54	4.38
711.567	5.38
711.594	-11.62
711.621	-6.62
711.648	16.38
711.676	21.38
711.703	14.38
711.73	-22.62
711.757	-6.62
711.784	3.38
711.812	12.38
711.839	5.38
711.866	-7.62
711.893	-10.62
711.92	-1.62
711.947	5.38
711.975	21.38
712.002	-6.62
712.029	15.38
712.056	-5.62
712.083	1.38
712.11	-3.62
712.138	-1.62
712.165	5.38
712.192	-1.62
712.219	-10.62
712.246	0.38
712.273	-1.62
712.3	-4.62
712.328	-2.62
712.355	-5.62
712.382	-10.62
712.409	24.38
712.436	-1.62
712.463	11.38
712.49	8.38
712.517	-2.62
712.544	-7.62
712.572	-7.62
712.599	-2.62
712.626	9.38
712.653	-5.62
712.68	-9.62
712.707	-1.62
712.734	8.38
712.761	8.38
712.788	7.38
712.815	0.38
712.842	11.38
712.87	-9.62
712.897	-12.62
712.924	1.38
712.951	-2.62
712.978	16.38
713.005	9.38
713.032	7.38
713.059	4.38
713.086	10.38
713.113	4.38
713.14	-8.62
713.167	4.38
713.194	6.38
713.221	-0.62
713.248	8.38
713.275	-2.62
713.302	1.38
713.329	5.38
713.356	21.38
713.383	0.38
713.41	20.38
713.437	-18.62
713.464	-16.62
713.491	4.38
713.518	5.38
713.545	-1.62
713.572	-4.62
713.599	21.38
713.626	6.38
713.653	7.38
713.68	1.38
713.707	-0.62
713.734	1.38
713.761	0.38
713.788	-1.62
713.815	17.38
713.842	-3.62
713.869	1.38
713.896	0.38
713.923	6.38
713.95	-0.62
713.977	-11.62
714.004	2.38
714.031	-6.62
714.058	0.38
714.085	4.38
714.112	12.38
714.139	13.38
714.165	-6.62
714.192	-14.62
714.219	6.38
714.246	5.38
714.273	3.38
714.3	-3.62
714.327	1.38
714.354	3.38
714.381	0.38
714.408	10.38
714.435	7.38
714.461	8.38
714.488	9.38
714.515	10.38
714.542	-6.62
714.569	-7.62
714.596	-9.62
714.623	18.38
714.65	9.38
714.677	7.38
714.703	2.38
714.73	4.38
714.757	-2.62
714.784	11.38
714.811	-9.62
714.838	-7.62
714.865	4.38
714.891	9.38
714.918	19.38
714.945	-13.62
714.972	1.38
714.999	1.38
715.026	-12.62
715.052	-4.62
715.079	-3.62
715.106	17.38
715.133	6.38
715.16	1.38
715.187	-5.62
715.213	8.38
715.24	-2.62
715.267	0.38
715.294	4.38
715.321	1.38
715.347	2.38
715.374	1.38
715.401	-10.62
715.428	-6.62
715.455	-0.62
715.481	-15.62
715.508	10.38
715.535	-3.62
715.562	30.38
715.588	4.38
715.615	7.38
715.642	2.38
715.669	20.38
715.695	-2.62
715.722	-3.62
715.749	4.38
715.776	11.38
715.802	5.38
715.829	0.38
715.856	-2.62
715.883	15.38
715.909	-1.62
715.936	4.38
715.963	0.38
715.99	-1.62
716.016	-0.62
716.043	0.38
716.07	-14.62
716.096	-25.62
716.123	1.38
716.15	-2.62
716.177	17.38
716.203	12.38
716.23	8.38
716.257	4.38
716.283	6.38
716.31	2.38
716.337	5.38
716.363	1.38
716.39	14.38
716.417	16.38
716.443	2.38
716.47	17.38
716.497	1.38
716.523	16.38
716.55	9.38
716.577	2.38
716.603	-2.62
716.63	-9.62
716.657	9.38
716.683	-6.62
716.71	15.38
716.737	-9.62
716.763	5.38
716.79	11.38
716.817	12.38
716.843	1.38
716.87	-6.62
716.897	-5.62
716.923	16.38
716.95	-9.62
716.976	-16.62
717.003	-1.62
717.03	-1.62
717.056	8.38
717.083	-12.62
717.109	5.38
717.136	-0.62
717.163	-3.62
717.189	5.38
717.216	-6.62
717.242	-13.62
717.269	4.38
717.296	3.38
717.322	16.38
717.349	3.38
717.375	8.38
717.402	4.38
717.428	9.38
717.455	9.38
717.481	-2.62
717.508	-1.62
717.535	-0.62
717.561	2.38
717.588	2.38
717.614	-2.62
717.641	0.38
717.667	5.38
717.694	-3.62
717.72	-0.62
717.747	6.38
717.773	-9.62
717.8	23.38
717.826	14.38
717.853	6.38
717.88	12.38
717.906	2.38
717.933	-3.62
717.959	3.38
717.986	10.38
718.012	14.38
718.039	12.38
718.065	11.38
718.092	9.38
718.118	-9.62
718.144	-7.62
718.171	25.38
718.197	10.38
718.224	-7.62
718.25	1.38
718.277	5.38
718.303	6.38
718.33	4.38
718.356	-3.62
718.383	-9.62
718.409	-6.62
718.436	-12.62
718.462	2.38
718.489	-8.62
718.515	10.38
718.541	18.38
718.568	13.38
718.594	13.38
718.621	9.38
718.647	-0.62
718.674	11.38
718.7	8.38
718.726	4.38
718.753	6.38
718.779	13.38
718.806	0.38
718.832	3.38
718.858	-6.62
718.885	-6.62
718.911	0.38
718.938	18.38
718.964	-4.62
718.99	0.38
719.017	23.38
719.043	10.38
719.07	29.38
719.096	-5.62
719.122	4.38
719.149	-1.62
719.175	8.38
719.201	2.38
719.228	-3.62
719.254	-0.62
719.281	-2.62
719.307	2.38
719.333	-14.62
719.36	16.38
719.386	-2.62
719.412	-7.62
719.439	-14.62
719.465	2.38
719.491	-9.62
719.518	-3.62
719.544	3.38
719.57	5.38
719.597	-6.62
719.623	-5.62
719.649	-5.62
719.675	3.38
719.702	20.38
719.728	7.38
719.754	-9.62
719.781	-3.62
719.807	-4.62
719.833	-3.62
719.86	-7.62
719.886	4.38
719.912	0.38
719.938	-6.62
719.965	-3.62
719.991	11.38
720.017	7.38
720.044	0.38
720.07	-13.62
720.096	-1.62
720.122	-5.62
720.149	21.38
720.175	22.38
720.201	16.38
720.227	-1.62
720.254	0.38
720.28	-2.62
720.306	-4.62
720.332	6.38
720.359	7.38
720.385	-7.62
720.411	-1.62
720.437	5.38
720.463	-9.62
720.49	1.38
720.516	-0.62
720.542	-5.62
720.568	-6.62
720.595	1.38
720.621	-4.62
720.647	-3.62
720.673	-4.62
720.699	-11.62
720.725	4.38
720.752	3.38
720.778	-1.62
720.804	3.38
720.83	5.38
720.856	-15.62
720.883	-14.62
720.909	-3.62
720.935	-0.62
720.961	8.38
720.987	11.38
721.013	9.38
721.04	-6.62
721.066	-3.62
721.092	-1.62
721.118	2.38
721.144	-1.62
721.17	0.38
721.196	0.38
721.223	-1.62
721.249	-2.62
721.275	15.38
721.301	2.38
721.327	5.38
721.353	9.38
721.379	9.38
721.405	12.38
721.432	12.38
721.458	0.38
721.484	8.38
721.51	-6.62
721.536	7.38
721.562	4.38
721.588	10.38
721.614	-5.62
721.64	-4.62
721.666	-0.62
721.693	-9.62
721.719	-5.62
721.745	-3.62
721.771	2.38
721.797	6.38
721.823	15.38
721.849	7.38
721.875	7.38
721.901	12.38
721.927	-14.62
721.953	0.38
721.979	14.38
722.005	11.38
722.031	8.38
722.057	5.38
722.083	-11.62
722.109	-3.62
722.135	-3.62
722.161	0.38
722.187	-0.62
722.214	-8.62
722.24	-6.62
722.266	-5.62
722.292	0.38
722.318	18.38
722.344	10.38
722.37	12.38
722.396	7.38
722.422	9.38
722.448	-0.62
722.474	-1.62
722.5	19.38
722.526	4.38
722.552	-6.62
722.578	-2.62
722.603	16.38
722.629	-11.62
722.655	4.38
722.681	-8.62
722.707	-0.62
722.733	-8.62
722.759	-5.62
722.785	-8.62
722.811	-9.62
722.837	7.38
722.863	20.38
722.889	18.38
722.915	9.38
722.941	-0.62
722.967	-0.62
722.993	8.38
723.019	0.38
723.045	13.38
723.071	2.38
723.097	6.38
723.122	6.38
723.148	-12.62
723.174	-8.62
723.2	15.38
723.226	6.38
723.252	-14.62
723.278	0.38
723.304	-12.62
723.33	6.38
723.356	1.38
723.381	1.38
723.407	-1.62
723.433	16.38
723.459	-7.62
723.485	9.38
723.511	4.38
723.537	-12.62
723.563	-21.62
723.588	-1.62
723.614	9.38
723.64	6.38
723.666	-9.62
723.692	4.38
723.718	16.38
723.744	0.38
723.769	2.38
723.795	5.38
723.821	-0.62
723.847	-5.62
723.873	1.38
723.899	6.38
723.924	7.38
723.95	4.38
723.976	-10.62
724.002	16.38
724.028	4.38
724.053	-4.62
724.079	-3.62
724.105	17.38
724.131	9.38
724.157	-0.62
724.182	-2.62
724.208	-4.62
724.234	9.38
724.26	-2.62
724.286	18.38
724.311	8.38
724.337	5.38
724.363	-3.62
724.389	0.38
724.415	-11.62
724.44	13.38
724.466	6.38
724.492	-10.62
724.518	1.38
724.543	-0.62
724.569	6.38
724.595	-1.62
724.621	10.38
724.646	12.38
724.672	-1.62
724.698	4.38
724.723	-2.62
724.749	8.38
724.775	4.38
724.801	8.38
724.826	-5.62
724.852	3.38
724.878	-1.62
724.904	-22.62
724.929	3.38
724.955	-6.62
724.981	12.38
725.006	0.38
725.032	4.38
725.058	14.38
725.083	-3.62
725.109	4.38
725.135	10.38
725.161	14.38
725.186	-4.62
725.212	-3.62
725.238	4.38
725.263	-6.62
725.289	-2.62
725.315	-12.62
725.34	-6.62
725.366	0.38
725.392	1.38
725.417	-7.62
725.443	-0.62
725.468	13.38
725.494	-9.62
725.52	4.38
725.545	-6.62
725.571	18.38
725.597	-7.62
725.622	-9.62
725.648	-11.62
725.674	16.38
725.699	14.38
725.725	-11.62
725.75	20.38
725.776	15.38
725.802	12.38
725.827	13.38
725.853	10.38
725.878	3.38
725.904	-7.62
725.93	19.38
725.955	-12.62
725.981	-5.62
726.006	4.38
726.032	4.38
726.057	-3.62
726.083	2.38
726.109	8.38
726.134	8.38
726.16	-2.62
726.185	-5.62
726.211	-4.62
726.236	6.38
726.262	15.38
726.288	18.38
726.313	26.38
726.339	8.38
726.364	16.38
726.39	-3.62
726.415	-9.62
726.441	-4.62
726.466	-0.62
726.492	1.38
726.517	6.38
726.543	-2.62
726.568	-11.62
726.594	-0.62
726.619	16.38
726.645	16.38
726.67	12.38
726.696	10.38
726.721	3.38
726.747	-7.62
726.772	4.38
726.798	11.38
726.823	-3.62
726.849	2.38
726.874	11.38
726.9	31.38
726.925	8.38
726.951	-13.62
726.976	-4.62
727.002	-11.62
727.027	-3.62
727.053	18.38
727.078	-1.62
727.104	-3.62
727.129	-6.62
727.155	-6.62
727.18	-10.62
727.205	2.38
727.231	-8.62
727.256	16.38
727.282	12.38
727.307	3.38
727.333	4.38
727.358	-6.62
727.383	-11.62
727.409	-14.62
727.434	18.38
727.46	-17.62
727.485	4.38
727.511	1.38
727.536	-11.62
727.561	-12.62
727.587	-12.62
727.612	-7.62
727.637	-6.62
727.663	-1.62
727.688	24.38
727.714	-13.62
727.739	-8.62
727.764	-12.62
727.79	8.38
727.815	0.38
727.841	-5.62
727.866	16.38
727.891	-8.62
727.917	-0.62
727.942	-6.62
727.967	11.38
727.993	4.38
728.018	-2.62
728.043	3.38
728.069	13.38
728.094	26.38
728.119	8.38
728.145	19.38
728.17	6.38
728.195	10.38
728.221	19.38
728.246	2.38
728.271	-9.62
728.297	-7.62
728.322	-3.62
728.347	6.38
728.373	-5.62
728.398	12.38
728.423	-11.62
728.448	-1.62
728.474	15.38
728.499	11.38
728.524	-6.62
728.55	-8.62
728.575	8.38
728.6	4.38
728.625	-7.62
728.651	8.38
728.676	-3.62
728.701	-14.62
728.727	7.38
728.752	5.38
728.777	-2.62
728.802	3.38
728.828	5.38
728.853	3.38
728.878	7.38
728.903	-6.62
728.929	-3.62
728.954	2.38
728.979	5.38
729.004	4.38
729.03	0.38
729.055	15.38
729.08	-0.62
729.105	-15.62
729.13	-0.62
729.156	5.38
729.181	0.38
729.206	-11.62
729.231	-7.62
729.256	7.38
729.282	0.38
729.307	-9.62
729.332	-9.62
729.357	-2.62
729.382	1.38
729.408	14.38
729.433	0.38
729.458	10.38
729.483	0.38
729.508	23.38
729.533	14.38
729.559	10.38
729.584	-4.62
729.609	-7.62
729.634	2.38
729.659	-10.62
729.684	-6.62
729.71	11.38
729.735	15.38
729.76	-3.62
729.785	7.38
729.81	17.38
729.835	-1.62
729.86	4.38
729.886	9.38
729.911	11.38
729.936	11.38
729.961	9.38
729.986	13.38
730.011	76.38
730.036	237.38
730.061	1041.38
730.086	2757.38
730.112	3453.38
730.137	2913.38
730.162	2210.38
730.187	1720.38
730.212	1306.38
730.237	834.38
730.262	467.38
730.287	262.38
730.312	162.38
730.337	67.38
730.362	53.38
730.387	50.38
730.413	17.38
730.438	24.38
730.463	25.38
730.488	16.38
730.513	5.38
730.538	18.38
730.563	31.38
730.588	21.38
730.613	13.38
730.638	8.38
730.663	-3.62
730.688	14.38
730.713	26.38
730.738	8.38
730.763	-2.62
730.788	-14.62
730.813	3.38
730.838	10.38
730.863	-5.62
730.888	-5.62
730.913	-5.62
730.938	-5.62
730.963	30.38
730.988	115.38
731.013	408.38
731.038	632.38
731.063	599.38
731.088	471.38
731.113	365.38
731.138	288.38
731.163	194.38
731.188	137.38
731.213	72.38
731.238	41.38
731.263	10.38
731.288	8.38
731.313	17.38
731.338	4.38
731.363	-2.62
731.388	3.38
731.413	-0.62
731.438	15.38
731.463	5.38
731.487	5.38
731.512	-8.62
731.537	-0.62
731.562	18.38
731.587	2.38
731.612	3.38
731.637	-0.62
731.662	20.38
731.687	-9.62
731.712	-7.62
731.737	-3.62
731.762	-0.62
731.786	-2.62
731.811	7.38
731.836	-5.62
731.861	7.38
731.886	1.38
731.911	-5.62
731.936	11.38
731.961	-0.62
731.986	2.38
732.01	8.38
732.035	1.38
732.06	-2.62
732.085	1.38
732.11	2.38
732.135	-10.62
732.16	-7.62
732.184	-13.62
732.209	-0.62
732.234	8.38
732.259	-4.62
732.284	12.38
732.309	2.38
732.334	-1.62
732.358	-9.62
732.383	-12.62
732.408	1.38
732.433	-1.62
732.458	9.38
732.482	-4.62
732.507	-0.62
732.532	12.38
732.557	14.38
732.582	5.38
732.607	22.38
732.631	52.38
732.656	71.38
732.681	162.38
732.706	348.38
732.73	458.38
732.755	417.38
732.78	303.38
732.805	231.38
732.83	172.38
732.854	137.38
732.879	91.38
732.904	44.38
732.929	18.38
732.953	8.38
732.978	6.38
733.003	-3.62
733.028	-3.62
733.052	4.38
733.077	2.38
733.102	17.38
733.127	-22.62
733.151	-3.62
733.176	-4.62
733.201	4.38
733.226	-9.62
733.25	5.38
733.275	-5.62
733.3	-2.62
733.324	6.38
733.349	-2.62
733.374	4.38
733.399	-0.62
733.423	-12.62
733.448	1.38
733.473	-7.62
733.497	-0.62
733.522	-2.62
733.547	5.38
733.571	2.38
733.596	-8.62
733.621	11.38
733.646	-8.62
733.67	16.38
733.695	-2.62
733.72	20.38
733.744	12.38
733.769	21.38
733.794	2.38
733.818	16.38
733.843	7.38
733.867	-7.62
733.892	9.38
733.917	1.38
733.941	-11.62
733.966	3.38
733.991	-5.62
734.015	20.38
734.04	5.38
734.065	6.38
734.089	20.38
734.114	-7.62
734.138	17.38
734.163	-2.62
734.188	3.38
734.212	-6.62
734.237	6.38
734.261	5.38
734.286	-2.62
734.311	-3.62
734.335	-4.62
734.36	-3.62
734.384	-1.62
734.409	5.38
734.434	-25.62
734.458	12.38
734.483	4.38
734.507	-6.62
734.532	10.38
734.556	4.38
734.581	13.38
734.606	2.38
734.63	-22.62
734.655	-2.62
734.679	2.38
734.704	13.38
734.728	1.38
734.753	2.38
734.777	4.38
734.802	3.38
734.826	0.38
734.851	-3.62
734.876	16.38
734.9	17.38
734.925	-7.62
734.949	0.38
734.974	-7.62
734.998	-7.62
735.023	-7.62
735.047	-2.62
735.072	14.38
735.096	13.38
735.121	-7.62
735.145	-9.62
735.17	-10.62
735.194	4.38
735.219	-1.62
735.243	-1.62
735.268	2.38
735.292	10.38
735.317	3.38
735.341	8.38
735.365	-12.62
735.39	2.38
735.414	1.38
735.439	10.38
735.463	5.38
735.488	-9.62
735.512	-3.62
735.537	-11.62
735.561	12.38
735.586	-5.62
735.61	4.38
735.634	-7.62
735.659	8.38
735.683	7.38
735.708	-5.62
735.732	-8.62
735.757	-11.62
735.781	8.38
735.805	8.38
735.83	-15.62
735.854	-8.62
735.879	3.38
735.903	12.38
735.927	5.38
735.952	-0.62
735.976	3.38
736.001	7.38
736.025	-11.62
736.049	-7.62
736.074	-16.62
736.098	-11.62
736.123	14.38
736.147	-5.62
736.171	-5.62
736.196	0.38
736.22	2.38
736.244	8.38
736.269	-8.62
736.293	-7.62
736.317	12.38
736.342	13.38
736.366	11.38
736.39	14.38
736.415	8.38
736.439	1.38
736.463	5.38
736.488	2.38
736.512	-0.62
736.536	4.38
736.561	15.38
736.585	-6.62
736.609	7.38
736.634	-7.62
736.658	10.38
736.682	-5.62
736.707	0.38
736.731	-12.62
736.755	6.38
736.78	17.38
736.804	4.38
736.828	16.38
736.852	14.38
736.877	12.38
736.901	10.38
736.925	10.38
736.949	20.38
736.974	-13.62
736.998	13.38
737.022	4.38
737.047	0.38
737.071	2.38
737.095	14.38
737.119	23.38
737.144	-2.62
737.168	-5.62
737.192	8.38
737.216	26.38
737.241	-1.62
737.265	-5.62
737.289	-7.62
737.313	-5.62
737.337	6.38
737.362	-7.62
737.386	-1.62
737.41	-1.62
737.434	2.38
737.459	-5.62
737.483	8.38
737.507	16.38
737.531	23.38
737.555	-5.62
737.58	4.38
737.604	12.38
737.628	-0.62
737.652	-12.62
737.676	-5.62
737.701	3.38
737.725	-18.62
737.749	12.38
737.773	-5.62
737.797	-14.62
737.821	6.38
737.846	3.38
737.87	32.38
737.894	8.38
737.918	-1.62
737.942	0.38
737.966	10.38
737.99	7.38
738.015	4.38
738.039	5.38
738.063	1.38
738.087	0.38
738.111	-0.62
738.135	6.38
738.159	12.38
738.184	5.38
738.208	10.38
738.232	6.38
738.256	17.38
738.28	12.38
738.304	13.38
738.328	1.38
738.352	-12.62
738.376	-22.62
738.4	0.38
738.425	4.38
738.449	-3.62
738.473	16.38
738.497	15.38
738.521	15.38
738.545	19.38
738.569	22.38
738.593	-1.62
738.617	22.38
738.641	10.38
738.665	1.38
738.689	5.38
738.713	-1.62
738.737	7.38
738.762	23.38
738.786	5.38
738.81	-8.62
738.834	6.38
738.858	-14.62
738.882	2.38
738.906	-5.62
738.93	4.38
738.954	6.38
738.978	13.38
739.002	2.38
739.026	14.38
739.05	8.38
739.074	-0.62
739.098	5.38
739.122	20.38
739.146	-9.62
739.17	8.38
739.194	3.38
739.218	-4.62
739.242	-9.62
739.266	-15.62
739.29	2.38
739.314	17.38
739.338	16.38
739.362	7.38
739.386	23.38
739.41	3.38
739.434	-5.62
739.458	6.38
739.482	2.38
739.506	-5.62
739.53	12.38
739.554	9.38
739.577	0.38
739.601	5.38
739.625	-2.62
739.649	2.38
739.673	4.38
739.697	4.38
739.721	4.38
739.745	18.38
739.769	1.38
739.793	4.38
739.817	13.38
739.841	-21.62
739.865	-2.62
739.889	-9.62
739.912	4.38
739.936	-12.62
739.96	6.38
739.984	3.38
740.008	3.38
740.032	-8.62
740.056	-3.62
740.08	12.38
740.104	-3.62
740.127	8.38
740.151	13.38
740.175	5.38
740.199	6.38
740.223	56.38
740.247	1.38
740.271	0.38
740.295	-13.62
740.318	-12.62
740.342	-10.62
740.366	-6.62
740.39	7.38
740.414	9.38
740.438	-11.62
740.461	19.38
740.485	1.38
740.509	-11.62
740.533	22.38
740.557	-5.62
740.581	-7.62
740.604	-6.62
740.628	6.38
740.652	19.38
740.676	17.38
740.7	16.38
740.723	12.38
740.747	8.38
740.771	-0.62
740.795	-1.62
740.819	16.38
740.842	3.38
740.866	2.38
740.89	-7.62
740.914	-17.62
740.938	-17.62
740.961	13.38
740.985	1.38
741.009	-6.62
741.033	12.38
741.056	4.38
741.08	8.38
741.104	3.38
741.128	-2.62
741.151	17.38
741.175	2.38
741.199	1.38
741.223	16.38
741.246	-23.62
741.27	9.38
741.294	16.38
741.318	-5.62
741.341	3.38
741.365	10.38
741.389	-2.62
741.413	8.38
741.436	10.38
741.46	10.38
741.484	23.38
741.507	0.38
741.531	19.38
741.555	3.38
741.579	6.38
741.602	-1.62
741.626	12.38
741.65	-6.62
741.673	-3.62
741.697	1.38
741.721	-2.62
741.744	-9.62
741.768	-1.62
741.792	-7.62
741.815	0.38
741.839	17.38
741.863	5.38
741.886	21.38
741.91	14.38
741.934	20.38
741.957	-11.62
741.981	9.38
742.005	-1.62
742.028	-7.62
742.052	-4.62
742.075	4.38
742.099	12.38
742.123	-3.62
742.146	-5.62
742.17	9.38
742.194	-27.62
742.217	-21.62
742.241	-8.62
742.264	14.38
742.288	17.38
742.312	5.38
742.335	-5.62
742.359	3.38
742.382	17.38
742.406	19.38
742.43	-7.62
742.453	-7.62
742.477	0.38
742.5	1.38
742.524	-15.62
742.548	-3.62
742.571	21.38
742.595	4.38
742.618	-2.62
742.642	-11.62
742.665	11.38
742.689	-2.62
742.712	13.38
742.736	16.38
742.76	0.38
742.783	-19.62
742.807	-1.62
742.83	0.38
742.854	-14.62
742.877	11.38
742.901	-2.62
742.924	-5.62
742.948	9.38
742.971	11.38
742.995	6.38
743.018	-11.62
743.042	-5.62
743.065	-11.62
743.089	-9.62
743.112	-3.62
743.136	-11.62
743.159	-16.62
743.183	-7.62
743.206	9.38
743.23	-5.62
743.253	4.38
743.277	13.38
743.3	-12.62
743.324	-7.62
743.347	-6.62
743.371	9.38
743.394	8.38
743.418	30.38
743.441	10.38
743.465	13.38
743.488	4.38
743.512	-7.62
743.535	7.38
743.558	4.38
743.582	-8.62
743.605	-7.62
743.629	5.38
743.652	8.38
743.676	1.38
743.699	2.38
743.723	9.38
743.746	20.38
743.769	-7.62
743.793	-1.62
743.816	-1.62
743.84	15.38
743.863	-3.62
743.886	-7.62
743.91	15.38
743.933	18.38
743.957	-11.62
743.98	-5.62
744.003	-9.62
744.027	-8.62
744.05	-5.62
744.074	6.38
744.097	-13.62
744.12	-2.62
744.144	-10.62
744.167	1.38
744.19	-3.62
744.214	-0.62
744.237	-2.62
744.26	24.38
744.284	5.38
744.307	6.38
744.331	12.38
744.354	2.38
744.377	-9.62
744.401	0.38
744.424	-3.62
744.447	-7.62
744.471	-8.62
