Data from HighRes_mercury_15_13_11_07_2024_HR4C61891__20__15-14-25-186.txt Node

Date: Thu Nov 07 15:14:25 EST 2024
User: crc00042
Spectrometer: HR4C6189
Trigger mode: 4
Integration Time (sec): 1.000000E-1
Scans to average: 1
Electric dark correction enabled: true
Nonlinearity correction enabled: false
Boxcar width: 0
XAxis mode: Wavelengths
Number of Pixels in Spectrum: 3648
>>>>>Begin Spectral Data<<<<<
639.567	-29.85
639.602	-29.85
639.636	-29.85
639.67	-32.85
639.704	-5.85
639.738	-5.85
639.773	6.15
639.807	-14.85
639.841	-2.85
639.875	15.15
639.909	-5.85
639.943	-13.85
639.978	6.15
640.012	13.15
640.046	1.15
640.08	4.15
640.114	5.15
640.148	-7.85
640.182	0.15
640.217	18.15
640.251	30.15
640.285	8.15
640.319	-14.85
640.353	7.15
640.387	19.15
640.421	2.15
640.455	-22.85
640.49	-0.85
640.524	12.15
640.558	23.15
640.592	5.15
640.626	3.15
640.66	8.15
640.694	5.15
640.728	16.15
640.762	13.15
640.796	23.15
640.83	14.15
640.865	-6.85
640.899	9.15
640.933	9.15
640.967	12.15
641.001	14.15
641.035	6.15
641.069	16.15
641.103	-2.85
641.137	-3.85
641.171	-13.85
641.205	16.15
641.239	22.15
641.273	-8.85
641.307	19.15
641.341	22.15
641.375	0.15
641.409	17.15
641.443	3.15
641.477	5.15
641.511	12.15
641.545	13.15
641.579	5.15
641.614	21.15
641.648	21.15
641.682	-0.85
641.716	7.15
641.75	8.15
641.784	-2.85
641.818	-6.85
641.852	-0.85
641.886	0.15
641.919	31.15
641.953	0.15
641.987	4.15
642.021	7.15
642.055	-3.85
642.089	-6.85
642.123	-5.85
642.157	-9.85
642.191	-12.85
642.225	24.15
642.259	10.15
642.293	20.15
642.327	7.15
642.361	-3.85
642.395	17.15
642.429	20.15
642.463	23.15
642.497	35.15
642.531	6.15
642.565	-4.85
642.599	12.15
642.633	-9.85
642.666	19.15
642.7	16.15
642.734	13.15
642.768	-7.85
642.802	9.15
642.836	7.15
642.87	3.15
642.904	9.15
642.938	21.15
642.972	7.15
643.005	2.15
643.039	11.15
643.073	7.15
643.107	13.15
643.141	5.15
643.175	1.15
643.209	7.15
643.243	16.15
643.276	2.15
643.31	-8.85
643.344	9.15
643.378	13.15
643.412	13.15
643.446	10.15
643.48	-2.85
643.513	9.15
643.547	24.15
643.581	0.15
643.615	4.15
643.649	-1.85
643.683	5.15
643.716	-4.85
643.75	2.15
643.784	-19.85
643.818	6.15
643.852	9.15
643.886	-6.85
643.919	18.15
643.953	3.15
643.987	-2.85
644.021	-4.85
644.055	16.15
644.088	11.15
644.122	-10.85
644.156	-3.85
644.19	11.15
644.224	3.15
644.257	-2.85
644.291	8.15
644.325	6.15
644.359	18.15
644.392	36.15
644.426	28.15
644.46	5.15
644.494	8.15
644.527	-16.85
644.561	5.15
644.595	-2.85
644.629	-11.85
644.662	5.15
644.696	26.15
644.73	15.15
644.764	18.15
644.797	15.15
644.831	-2.85
644.865	1.15
644.899	19.15
644.932	23.15
644.966	5.15
645	12.15
645.033	21.15
645.067	1.15
645.101	10.15
645.135	22.15
645.168	-5.85
645.202	-1.85
645.236	11.15
645.269	16.15
645.303	5.15
645.337	10.15
645.37	18.15
645.404	25.15
645.438	14.15
645.471	9.15
645.505	9.15
645.539	4.15
645.572	-11.85
645.606	5.15
645.64	2.15
645.673	7.15
645.707	25.15
645.741	3.15
645.774	-11.85
645.808	6.15
645.842	-9.85
645.875	15.15
645.909	-1.85
645.943	-6.85
645.976	13.15
646.01	22.15
646.043	29.15
646.077	7.15
646.111	12.15
646.144	20.15
646.178	22.15
646.212	5.15
646.245	0.15
646.279	15.15
646.312	6.15
646.346	25.15
646.38	4.15
646.413	15.15
646.447	9.15
646.48	3.15
646.514	7.15
646.547	10.15
646.581	2.15
646.615	5.15
646.648	1.15
646.682	1.15
646.715	-1.85
646.749	10.15
646.782	4.15
646.816	-0.85
646.85	11.15
646.883	-6.85
646.917	13.15
646.95	5.15
646.984	20.15
647.017	19.15
647.051	11.15
647.084	0.15
647.118	-8.85
647.151	5.15
647.185	10.15
647.218	-1.85
647.252	15.15
647.285	4.15
647.319	-6.85
647.353	13.15
647.386	18.15
647.42	17.15
647.453	11.15
647.487	6.15
647.52	8.15
647.553	14.15
647.587	18.15
647.62	7.15
647.654	10.15
647.687	7.15
647.721	-2.85
647.754	10.15
647.788	2.15
647.821	15.15
647.855	12.15
647.888	18.15
647.922	12.15
647.955	10.15
647.989	2.15
648.022	6.15
648.055	10.15
648.089	-7.85
648.122	14.15
648.156	-4.85
648.189	10.15
648.223	12.15
648.256	12.15
648.29	18.15
648.323	-2.85
648.356	6.15
648.39	11.15
648.423	2.15
648.457	-0.85
648.49	14.15
648.523	12.15
648.557	6.15
648.59	1.15
648.624	2.15
648.657	12.15
648.69	23.15
648.724	21.15
648.757	13.15
648.791	6.15
648.824	8.15
648.857	24.15
648.891	4.15
648.924	8.15
648.957	22.15
648.991	-6.85
649.024	7.15
649.057	11.15
649.091	-5.85
649.124	11.15
649.158	-3.85
649.191	25.15
649.224	10.15
649.258	13.15
649.291	7.15
649.324	-0.85
649.358	1.15
649.391	6.15
649.424	1.15
649.458	9.15
649.491	-5.85
649.524	4.15
649.557	-5.85
649.591	-5.85
649.624	38.15
649.657	-7.85
649.691	-1.85
649.724	12.15
649.757	6.15
649.791	-2.85
649.824	11.15
649.857	5.15
649.89	19.15
649.924	3.15
649.957	-4.85
649.99	1.15
650.023	12.15
650.057	-11.85
650.09	6.15
650.123	13.15
650.157	19.15
650.19	32.15
650.223	4.15
650.256	2.15
650.29	10.15
650.323	3.15
650.356	4.15
650.389	-1.85
650.423	-7.85
650.456	4.15
650.489	5.15
650.522	7.15
650.555	6.15
650.589	14.15
650.622	15.15
650.655	23.15
650.688	13.15
650.721	2.15
650.755	11.15
650.788	14.15
650.821	4.15
650.854	-0.85
650.887	-7.85
650.921	5.15
650.954	17.15
650.987	10.15
651.02	2.15
651.053	-11.85
651.087	-0.85
651.12	23.15
651.153	5.15
651.186	6.15
651.219	-8.85
651.252	1.15
651.286	9.15
651.319	-5.85
651.352	-4.85
651.385	12.15
651.418	5.15
651.451	39.15
651.484	15.15
651.518	12.15
651.551	24.15
651.584	2.15
651.617	18.15
651.65	1.15
651.683	26.15
651.716	15.15
651.749	-13.85
651.783	3.15
651.816	3.15
651.849	6.15
651.882	1.15
651.915	2.15
651.948	8.15
651.981	1.15
652.014	-17.85
652.047	-5.85
652.08	-2.85
652.114	19.15
652.147	-1.85
652.18	5.15
652.213	36.15
652.246	14.15
652.279	-2.85
652.312	21.15
652.345	-4.85
652.378	13.15
652.411	32.15
652.444	23.15
652.477	3.15
652.51	-9.85
652.543	2.15
652.576	-0.85
652.609	-16.85
652.642	5.15
652.675	13.15
652.709	11.15
652.742	17.15
652.775	3.15
652.808	18.15
652.841	13.15
652.874	0.15
652.907	7.15
652.94	4.15
652.973	-12.85
653.006	1.15
653.039	-1.85
653.072	14.15
653.105	-6.85
653.138	-8.85
653.171	-13.85
653.204	-4.85
653.237	29.15
653.27	3.15
653.303	15.15
653.336	17.15
653.368	13.15
653.401	3.15
653.434	-0.85
653.467	14.15
653.5	8.15
653.533	-6.85
653.566	7.15
653.599	16.15
653.632	-2.85
653.665	8.15
653.698	0.15
653.731	-10.85
653.764	17.15
653.797	3.15
653.83	28.15
653.863	16.15
653.896	10.15
653.929	8.15
653.961	10.15
653.994	-5.85
654.027	-7.85
654.06	16.15
654.093	15.15
654.126	-7.85
654.159	-9.85
654.192	8.15
654.225	4.15
654.258	7.15
654.29	7.15
654.323	11.15
654.356	-5.85
654.389	16.15
654.422	12.15
654.455	22.15
654.488	10.15
654.521	-2.85
654.553	-8.85
654.586	8.15
654.619	11.15
654.652	10.15
654.685	-4.85
654.718	20.15
654.751	16.15
654.783	9.15
654.816	8.15
654.849	-0.85
654.882	-14.85
654.915	2.15
654.948	7.15
654.98	2.15
655.013	-1.85
655.046	3.15
655.079	-6.85
655.112	6.15
655.144	4.15
655.177	15.15
655.21	8.15
655.243	0.15
655.276	5.15
655.308	5.15
655.341	2.15
655.374	3.15
655.407	-23.85
655.44	0.15
655.472	3.15
655.505	5.15
655.538	7.15
655.571	-0.85
655.603	-1.85
655.636	4.15
655.669	11.15
655.702	-4.85
655.734	-9.85
655.767	-9.85
655.8	10.15
655.833	14.15
655.865	11.15
655.898	0.15
655.931	2.15
655.964	2.15
655.996	13.15
656.029	17.15
656.062	-2.85
656.095	12.15
656.127	-9.85
656.16	9.15
656.193	9.15
656.225	8.15
656.258	28.15
656.291	0.15
656.324	41.15
656.356	6.15
656.389	7.15
656.422	0.15
656.454	-10.85
656.487	-0.85
656.52	3.15
656.552	-11.85
656.585	2.15
656.618	14.15
656.65	5.15
656.683	-23.85
656.716	1.15
656.748	4.15
656.781	10.15
656.814	-7.85
656.846	-3.85
656.879	-6.85
656.912	1.15
656.944	-6.85
656.977	-3.85
657.01	3.15
657.042	16.15
657.075	23.15
657.108	2.15
657.14	3.15
657.173	12.15
657.205	24.15
657.238	18.15
657.271	2.15
657.303	-2.85
657.336	0.15
657.369	5.15
657.401	16.15
657.434	1.15
657.466	17.15
657.499	13.15
657.532	-0.85
657.564	14.15
657.597	15.15
657.629	17.15
657.662	4.15
657.694	5.15
657.727	5.15
657.76	12.15
657.792	2.15
657.825	4.15
657.857	-5.85
657.89	3.15
657.922	15.15
657.955	6.15
657.987	2.15
658.02	15.15
658.053	15.15
658.085	27.15
658.118	1.15
658.15	14.15
658.183	26.15
658.215	9.15
658.248	1.15
658.28	-5.85
658.313	10.15
658.345	18.15
658.378	5.15
658.41	-2.85
658.443	8.15
658.475	-8.85
658.508	15.15
658.54	9.15
658.573	3.15
658.605	8.15
658.638	2.15
658.67	12.15
658.703	4.15
658.735	-13.85
658.768	-6.85
658.8	-6.85
658.833	28.15
658.865	7.15
658.898	1.15
658.93	0.15
658.963	2.15
658.995	-2.85
659.028	1.15
659.06	14.15
659.092	5.15
659.125	-6.85
659.157	0.15
659.19	4.15
659.222	5.15
659.255	14.15
659.287	6.15
659.32	-2.85
659.352	11.15
659.384	24.15
659.417	-0.85
659.449	0.15
659.482	21.15
659.514	0.15
659.546	-2.85
659.579	-6.85
659.611	-6.85
659.644	2.15
659.676	-8.85
659.708	-10.85
659.741	-1.85
659.773	27.15
659.806	18.15
659.838	15.15
659.87	9.15
659.903	-5.85
659.935	12.15
659.967	9.15
660	5.15
660.032	-16.85
660.065	14.15
660.097	2.15
660.129	-5.85
660.162	-17.85
660.194	-3.85
660.226	15.15
660.259	15.15
660.291	-4.85
660.323	-7.85
660.356	-9.85
660.388	-6.85
660.42	-6.85
660.453	15.15
660.485	16.15
660.517	21.15
660.55	13.15
660.582	10.15
660.614	15.15
660.647	13.15
660.679	-25.85
660.711	6.15
660.743	-13.85
660.776	-6.85
660.808	3.15
660.84	0.15
660.873	-7.85
660.905	4.15
660.937	2.15
660.969	-4.85
661.002	-1.85
661.034	24.15
661.066	0.15
661.099	12.15
661.131	17.15
661.163	9.15
661.195	-3.85
661.228	17.15
661.26	7.15
661.292	5.15
661.324	17.15
661.357	15.15
661.389	10.15
661.421	18.15
661.453	9.15
661.485	14.15
661.518	0.15
661.55	-10.85
661.582	-19.85
661.614	4.15
661.647	13.15
661.679	10.15
661.711	6.15
661.743	-1.85
661.775	6.15
661.808	18.15
661.84	-9.85
661.872	12.15
661.904	-5.85
661.936	12.15
661.969	-6.85
662.001	-5.85
662.033	6.15
662.065	-2.85
662.097	23.15
662.129	10.15
662.162	-7.85
662.194	5.15
662.226	-0.85
662.258	5.15
662.29	-1.85
662.322	-11.85
662.355	-17.85
662.387	25.15
662.419	10.15
662.451	10.15
662.483	7.15
662.515	-5.85
662.547	-11.85
662.58	-15.85
662.612	0.15
662.644	-8.85
662.676	3.15
662.708	19.15
662.74	10.15
662.772	10.15
662.804	8.15
662.836	5.15
662.869	1.15
662.901	13.15
662.933	16.15
662.965	16.15
662.997	5.15
663.029	10.15
663.061	2.15
663.093	-0.85
663.125	-7.85
663.157	-5.85
663.189	6.15
663.221	17.15
663.254	0.15
663.286	20.15
663.318	-8.85
663.35	-11.85
663.382	14.15
663.414	-2.85
663.446	3.15
663.478	-9.85
663.51	8.15
663.542	-0.85
663.574	0.15
663.606	10.15
663.638	-14.85
663.67	11.15
663.702	12.15
663.734	-4.85
663.766	0.15
663.798	4.15
663.83	12.15
663.862	17.15
663.894	9.15
663.926	0.15
663.958	18.15
663.99	-0.85
664.022	-2.85
664.054	18.15
664.086	-2.85
664.118	1.15
664.15	-2.85
664.182	4.15
664.214	10.15
664.246	26.15
664.278	-5.85
664.31	7.15
664.342	7.15
664.374	-5.85
664.406	1.15
664.438	-3.85
664.47	13.15
664.502	-4.85
664.534	-15.85
664.566	-2.85
664.598	9.15
664.63	4.15
664.662	15.15
664.693	1.15
664.725	-0.85
664.757	4.15
664.789	7.15
664.821	10.15
664.853	19.15
664.885	-7.85
664.917	-1.85
664.949	24.15
664.981	14.15
665.013	5.15
665.045	-6.85
665.076	2.15
665.108	7.15
665.14	11.15
665.172	4.15
665.204	-10.85
665.236	-10.85
665.268	5.15
665.3	-5.85
665.331	-0.85
665.363	7.15
665.395	-12.85
665.427	-6.85
665.459	3.15
665.491	13.15
665.523	-0.85
665.555	1.15
665.586	9.15
665.618	14.15
665.65	-16.85
665.682	19.15
665.714	9.15
665.746	-20.85
665.777	0.15
665.809	0.15
665.841	5.15
665.873	-0.85
665.905	11.15
665.937	15.15
665.968	18.15
666	4.15
666.032	-8.85
666.064	0.15
666.096	-5.85
666.127	-2.85
666.159	14.15
666.191	22.15
666.223	4.15
666.255	-1.85
666.286	15.15
666.318	4.15
666.35	27.15
666.382	4.15
666.413	-7.85
666.445	-2.85
666.477	-7.85
666.509	11.15
666.54	13.15
666.572	-0.85
666.604	4.15
666.636	8.15
666.667	13.15
666.699	23.15
666.731	10.15
666.763	-1.85
666.794	-1.85
666.826	6.15
666.858	-8.85
666.89	9.15
666.921	-1.85
666.953	9.15
666.985	15.15
667.017	26.15
667.048	0.15
667.08	1.15
667.112	1.15
667.143	-5.85
667.175	8.15
667.207	3.15
667.238	8.15
667.27	11.15
667.302	3.15
667.334	2.15
667.365	14.15
667.397	21.15
667.429	-4.85
667.46	11.15
667.492	5.15
667.524	6.15
667.555	4.15
667.587	10.15
667.619	4.15
667.65	3.15
667.682	4.15
667.714	7.15
667.745	18.15
667.777	19.15
667.808	25.15
667.84	-1.85
667.872	8.15
667.903	31.15
667.935	-5.85
667.967	4.15
667.998	-0.85
668.03	6.15
668.061	-0.85
668.093	-3.85
668.125	10.15
668.156	-0.85
668.188	-2.85
668.22	7.15
668.251	25.15
668.283	24.15
668.314	23.15
668.346	12.15
668.377	17.15
668.409	12.15
668.441	25.15
668.472	23.15
668.504	18.15
668.535	3.15
668.567	16.15
668.599	10.15
668.63	3.15
668.662	9.15
668.693	25.15
668.725	9.15
668.756	3.15
668.788	17.15
668.819	6.15
668.851	5.15
668.882	7.15
668.914	7.15
668.946	-9.85
668.977	4.15
669.009	6.15
669.04	-13.85
669.072	9.15
669.103	0.15
669.135	11.15
669.166	-9.85
669.198	-2.85
669.229	20.15
669.261	1.15
669.292	4.15
669.324	22.15
669.355	5.15
669.387	-18.85
669.418	1.15
669.45	3.15
669.481	6.15
669.513	2.15
669.544	0.15
669.576	14.15
669.607	12.15
669.639	12.15
669.67	0.15
669.701	23.15
669.733	-11.85
669.764	-11.85
669.796	-4.85
669.827	-0.85
669.859	-1.85
669.89	16.15
669.922	7.15
669.953	5.15
669.985	17.15
670.016	20.15
670.047	10.15
670.079	18.15
670.11	-3.85
670.142	1.15
670.173	11.15
670.204	3.15
670.236	21.15
670.267	-7.85
670.299	2.15
670.33	0.15
670.362	-1.85
670.393	8.15
670.424	10.15
670.456	-3.85
670.487	-4.85
670.518	13.15
670.55	1.15
670.581	18.15
670.613	-5.85
670.644	-3.85
670.675	-12.85
670.707	-1.85
670.738	-1.85
670.769	0.15
670.801	-2.85
670.832	12.15
670.864	-3.85
670.895	18.15
670.926	5.15
670.958	9.15
670.989	-1.85
671.02	5.15
671.052	15.15
671.083	8.15
671.114	-0.85
671.146	9.15
671.177	4.15
671.208	-11.85
671.24	-10.85
671.271	3.15
671.302	3.15
671.333	-13.85
671.365	-9.85
671.396	0.15
671.427	10.15
671.459	9.15
671.49	10.15
671.521	11.15
671.553	8.15
671.584	12.15
671.615	-13.85
671.646	4.15
671.678	21.15
671.709	-3.85
671.74	-14.85
671.771	-2.85
671.803	13.15
671.834	7.15
671.865	12.15
671.896	14.15
671.928	6.15
671.959	-9.85
671.99	-4.85
672.021	0.15
672.053	-0.85
672.084	21.15
672.115	8.15
672.146	-0.85
672.178	-11.85
672.209	1.15
672.24	9.15
672.271	23.15
672.303	3.15
672.334	-8.85
672.365	-1.85
672.396	3.15
672.427	16.15
672.459	8.15
672.49	12.15
672.521	35.15
672.552	-2.85
672.583	11.15
672.615	2.15
672.646	8.15
672.677	-6.85
672.708	-13.85
672.739	-1.85
672.77	33.15
672.802	12.15
672.833	7.15
672.864	25.15
672.895	10.15
672.926	9.15
672.957	4.15
672.989	8.15
673.02	18.15
673.051	4.15
673.082	23.15
673.113	5.15
673.144	16.15
673.175	0.15
673.206	5.15
673.238	-8.85
673.269	17.15
673.3	4.15
673.331	27.15
673.362	12.15
673.393	-5.85
673.424	17.15
673.455	20.15
673.487	-2.85
673.518	13.15
673.549	11.15
673.58	-10.85
673.611	5.15
673.642	2.15
673.673	-8.85
673.704	4.15
673.735	-2.85
673.766	4.15
673.797	-3.85
673.828	-1.85
673.86	-10.85
673.891	-5.85
673.922	-4.85
673.953	2.15
673.984	7.15
674.015	11.15
674.046	-3.85
674.077	1.15
674.108	-11.85
674.139	8.15
674.17	-7.85
674.201	-2.85
674.232	2.15
674.263	-20.85
674.294	-8.85
674.325	-15.85
674.356	-7.85
674.387	22.15
674.418	-14.85
674.449	9.15
674.48	6.15
674.511	0.15
674.542	2.15
674.573	-0.85
674.604	20.15
674.635	-6.85
674.666	14.15
674.697	5.15
674.728	4.15
674.759	-1.85
674.79	-1.85
674.821	7.15
674.852	3.15
674.883	-7.85
674.914	-6.85
674.945	-2.85
674.976	-1.85
675.007	-6.85
675.038	6.15
675.069	3.15
675.1	-8.85
675.131	-2.85
675.162	-6.85
675.193	-17.85
675.224	-5.85
675.254	4.15
675.285	4.15
675.316	16.15
675.347	-7.85
675.378	-7.85
675.409	0.15
675.44	-7.85
675.471	9.15
675.502	1.15
675.533	-1.85
675.564	8.15
675.595	7.15
675.625	17.15
675.656	26.15
675.687	5.15
675.718	-5.85
675.749	15.15
675.78	7.15
675.811	0.15
675.842	5.15
675.873	14.15
675.903	3.15
675.934	3.15
675.965	-3.85
675.996	-6.85
676.027	0.15
676.058	10.15
676.089	-6.85
676.119	10.15
676.15	-1.85
676.181	3.15
676.212	2.15
676.243	20.15
676.274	5.15
676.304	17.15
676.335	-6.85
676.366	8.15
676.397	11.15
676.428	6.15
676.459	4.15
676.489	6.15
676.52	15.15
676.551	18.15
676.582	-8.85
676.613	6.15
676.643	4.15
676.674	12.15
676.705	0.15
676.736	14.15
676.767	15.15
676.797	17.15
676.828	25.15
676.859	10.15
676.89	5.15
676.92	11.15
676.951	8.15
676.982	2.15
677.013	-6.85
677.044	18.15
677.074	11.15
677.105	9.15
677.136	6.15
677.167	9.15
677.197	25.15
677.228	3.15
677.259	-9.85
677.289	1.15
677.32	4.15
677.351	-0.85
677.382	2.15
677.412	-10.85
677.443	-0.85
677.474	1.15
677.505	10.15
677.535	11.15
677.566	-5.85
677.597	-7.85
677.627	-17.85
677.658	-2.85
677.689	10.15
677.72	-1.85
677.75	1.15
677.781	17.15
677.812	5.15
677.842	7.15
677.873	1.15
677.904	4.15
677.934	-10.85
677.965	5.15
677.996	-14.85
678.026	-15.85
678.057	14.15
678.088	3.15
678.118	12.15
678.149	-13.85
678.18	-2.85
678.21	11.15
678.241	1.15
678.272	4.15
678.302	-12.85
678.333	7.15
678.363	8.15
678.394	7.15
678.425	13.15
678.455	7.15
678.486	25.15
678.517	-9.85
678.547	16.15
678.578	18.15
678.608	-13.85
678.639	-5.85
678.67	9.15
678.7	-13.85
678.731	2.15
678.761	2.15
678.792	4.15
678.823	7.15
678.853	7.15
678.884	3.15
678.914	10.15
678.945	7.15
678.975	2.15
679.006	12.15
679.037	6.15
679.067	21.15
679.098	-1.85
679.128	-8.85
679.159	10.15
679.189	9.15
679.22	-1.85
679.25	2.15
679.281	10.15
679.312	11.15
679.342	-6.85
679.373	23.15
679.403	6.15
679.434	29.15
679.464	5.15
679.495	18.15
679.525	13.15
679.556	1.15
679.586	9.15
679.617	8.15
679.647	-3.85
679.678	7.15
679.708	4.15
679.739	8.15
679.769	-5.85
679.8	3.15
679.83	1.15
679.861	6.15
679.891	-7.85
679.922	-18.85
679.952	4.15
679.983	-6.85
680.013	17.15
680.044	-4.85
680.074	5.15
680.105	-2.85
680.135	2.15
680.165	13.15
680.196	17.15
680.226	10.15
680.257	16.15
680.287	4.15
680.318	0.15
680.348	-17.85
680.379	17.15
680.409	-2.85
680.439	14.15
680.47	2.15
680.5	10.15
680.531	2.15
680.561	17.15
680.592	17.15
680.622	12.15
680.652	-5.85
680.683	27.15
680.713	13.15
680.744	-10.85
680.774	-0.85
680.804	22.15
680.835	-16.85
680.865	-9.85
680.896	17.15
680.926	10.15
680.956	12.15
680.987	2.15
681.017	-9.85
681.047	-2.85
681.078	-5.85
681.108	3.15
681.139	3.15
681.169	-0.85
681.199	10.15
681.23	19.15
681.26	3.15
681.29	0.15
681.321	-5.85
681.351	-4.85
681.381	5.15
681.412	6.15
681.442	7.15
681.472	25.15
681.503	-1.85
681.533	7.15
681.563	15.15
681.594	6.15
681.624	26.15
681.654	-2.85
681.685	12.15
681.715	5.15
681.745	4.15
681.775	-1.85
681.806	-0.85
681.836	4.15
681.866	6.15
681.897	17.15
681.927	3.15
681.957	-23.85
681.987	7.15
682.018	2.15
682.048	7.15
682.078	6.15
682.109	16.15
682.139	18.15
682.169	16.15
682.199	-8.85
682.23	2.15
682.26	11.15
682.29	6.15
682.32	-6.85
682.351	8.15
682.381	9.15
682.411	8.15
682.441	0.15
682.472	-1.85
682.502	-14.85
682.532	-5.85
682.562	7.15
682.592	0.15
682.623	20.15
682.653	9.15
682.683	1.15
682.713	4.15
682.743	-2.85
682.774	-7.85
682.804	4.15
682.834	22.15
682.864	14.15
682.894	6.15
682.925	-3.85
682.955	14.15
682.985	1.15
683.015	-0.85
683.045	15.15
683.076	5.15
683.106	5.15
683.136	13.15
683.166	5.15
683.196	16.15
683.226	-13.85
683.257	-2.85
683.287	-11.85
683.317	9.15
683.347	-3.85
683.377	-3.85
683.407	11.15
683.437	14.15
683.468	11.15
683.498	5.15
683.528	12.15
683.558	9.15
683.588	-12.85
683.618	6.15
683.648	-9.85
683.678	2.15
683.708	9.15
683.739	8.15
683.769	-2.85
683.799	-4.85
683.829	6.15
683.859	1.15
683.889	16.15
683.919	-4.85
683.949	7.15
683.979	0.15
684.009	-12.85
684.039	14.15
684.07	1.15
684.1	5.15
684.13	2.15
684.16	3.15
684.19	-10.85
684.22	-17.85
684.25	2.15
684.28	-5.85
684.31	7.15
684.34	13.15
684.37	6.15
684.4	11.15
684.43	7.15
684.46	17.15
684.49	25.15
684.52	19.15
684.55	15.15
684.58	-2.85
684.61	0.15
684.64	14.15
684.67	9.15
684.7	1.15
684.73	6.15
684.76	4.15
684.79	18.15
684.82	-0.85
684.85	5.15
684.88	16.15
684.91	4.15
684.94	-1.85
684.97	-8.85
685	0.15
685.03	-1.85
685.06	-13.85
685.09	-2.85
685.12	8.15
685.15	-3.85
685.18	6.15
685.21	16.15
685.24	14.15
685.27	19.15
685.3	2.15
685.33	-9.85
685.36	-8.85
685.39	7.15
685.42	-8.85
685.45	2.15
685.48	1.15
685.51	7.15
685.54	9.15
685.569	13.15
685.599	8.15
685.629	7.15
685.659	9.15
685.689	10.15
685.719	24.15
685.749	4.15
685.779	6.15
685.809	9.15
685.839	1.15
685.869	20.15
685.898	-1.85
685.928	-2.85
685.958	0.15
685.988	17.15
686.018	0.15
686.048	0.15
686.078	-9.85
686.108	25.15
686.137	21.15
686.167	22.15
686.197	4.15
686.227	1.15
686.257	17.15
686.287	9.15
686.317	-3.85
686.346	2.15
686.376	-21.85
686.406	-10.85
686.436	17.15
686.466	6.15
686.496	12.15
686.525	22.15
686.555	4.15
686.585	29.15
686.615	32.15
686.645	20.15
686.675	11.15
686.704	8.15
686.734	0.15
686.764	-3.85
686.794	2.15
686.824	20.15
686.853	19.15
686.883	1.15
686.913	28.15
686.943	15.15
686.973	2.15
687.002	10.15
687.032	21.15
687.062	-8.85
687.092	25.15
687.121	-7.85
687.151	5.15
687.181	8.15
687.211	24.15
687.24	8.15
687.27	9.15
687.3	4.15
687.33	5.15
687.359	-17.85
687.389	11.15
687.419	1.15
687.449	1.15
687.478	12.15
687.508	4.15
687.538	24.15
687.568	12.15
687.597	-2.85
687.627	-2.85
687.657	9.15
687.686	14.15
687.716	26.15
687.746	-1.85
687.776	1.15
687.805	3.15
687.835	5.15
687.865	5.15
687.894	0.15
687.924	-6.85
687.954	4.15
687.983	6.15
688.013	12.15
688.043	14.15
688.072	8.15
688.102	-0.85
688.132	6.15
688.161	-5.85
688.191	-2.85
688.221	18.15
688.25	-6.85
688.28	7.15
688.31	-6.85
688.339	-3.85
688.369	-10.85
688.399	-13.85
688.428	-3.85
688.458	5.15
688.488	-1.85
688.517	5.15
688.547	11.15
688.576	30.15
688.606	15.15
688.636	1.15
688.665	3.15
688.695	4.15
688.725	22.15
688.754	11.15
688.784	0.15
688.813	20.15
688.843	6.15
688.873	-6.85
688.902	-11.85
688.932	-8.85
688.961	-2.85
688.991	26.15
689.02	19.15
689.05	13.15
689.08	21.15
689.109	18.15
689.139	17.15
689.168	13.15
689.198	15.15
689.227	6.15
689.257	19.15
689.287	22.15
689.316	0.15
689.346	5.15
689.375	-12.85
689.405	-2.85
689.434	-2.85
689.464	8.15
689.493	10.15
689.523	1.15
689.552	3.15
689.582	13.15
689.611	6.15
689.641	19.15
689.67	-6.85
689.7	6.15
689.73	15.15
689.759	8.15
689.789	14.15
689.818	5.15
689.848	-4.85
689.877	17.15
689.906	1.15
689.936	-7.85
689.965	5.15
689.995	30.15
690.024	10.15
690.054	-0.85
690.083	9.15
690.113	6.15
690.142	4.15
690.172	18.15
690.201	3.15
690.231	-5.85
690.26	34.15
690.29	3.15
690.319	8.15
690.348	4.15
690.378	10.15
690.407	15.15
690.437	19.15
690.466	8.15
690.496	4.15
690.525	17.15
690.555	13.15
690.584	16.15
690.613	11.15
690.643	1.15
690.672	15.15
690.702	8.15
690.731	9.15
690.76	28.15
690.79	53.15
690.819	53.15
690.849	44.15
690.878	56.15
690.907	27.15
690.937	21.15
690.966	18.15
690.996	-3.85
691.025	0.15
691.054	11.15
691.084	14.15
691.113	-9.85
691.142	6.15
691.172	10.15
691.201	33.15
691.23	-4.85
691.26	21.15
691.289	2.15
691.319	-2.85
691.348	9.15
691.377	23.15
691.407	5.15
691.436	4.15
691.465	17.15
691.495	6.15
691.524	2.15
691.553	5.15
691.583	-7.85
691.612	-2.85
691.641	6.15
691.67	14.15
691.7	11.15
691.729	-4.85
691.758	1.15
691.788	3.15
691.817	-3.85
691.846	1.15
691.876	-8.85
691.905	4.15
691.934	9.15
691.963	35.15
691.993	9.15
692.022	8.15
692.051	-6.85
692.081	10.15
692.11	32.15
692.139	18.15
692.168	17.15
692.198	21.15
692.227	16.15
692.256	14.15
692.285	1.15
692.315	3.15
692.344	-0.85
692.373	-2.85
692.402	-2.85
692.432	-12.85
692.461	-3.85
692.49	10.15
692.519	9.15
692.548	35.15
692.578	21.15
692.607	7.15
692.636	-1.85
692.665	3.15
692.694	-3.85
692.724	1.15
692.753	11.15
692.782	26.15
692.811	3.15
692.84	8.15
692.87	8.15
692.899	-1.85
692.928	1.15
692.957	17.15
692.986	22.15
693.016	-2.85
693.045	21.15
693.074	2.15
693.103	4.15
693.132	18.15
693.161	11.15
693.191	12.15
693.22	-29.85
693.249	4.15
693.278	11.15
693.307	25.15
693.336	3.15
693.365	-1.85
693.395	3.15
693.424	19.15
693.453	20.15
693.482	7.15
693.511	14.15
693.54	9.15
693.569	17.15
693.598	8.15
693.628	14.15
693.657	3.15
693.686	16.15
693.715	11.15
693.744	15.15
693.773	13.15
693.802	13.15
693.831	13.15
693.86	40.15
693.889	11.15
693.919	7.15
693.948	10.15
693.977	9.15
694.006	0.15
694.035	5.15
694.064	-1.85
694.093	-4.85
694.122	15.15
694.151	13.15
694.18	25.15
694.209	15.15
694.238	4.15
694.267	17.15
694.296	16.15
694.325	7.15
694.354	5.15
694.383	6.15
694.412	6.15
694.441	-5.85
694.471	6.15
694.5	-17.85
694.529	7.15
694.558	22.15
694.587	2.15
694.616	6.15
694.645	-1.85
694.674	26.15
694.703	12.15
694.732	11.15
694.761	30.15
694.79	8.15
694.819	4.15
694.848	8.15
694.877	26.15
694.906	41.15
694.935	26.15
694.963	24.15
694.992	4.15
695.021	22.15
695.05	25.15
695.079	-1.85
695.108	0.15
695.137	13.15
695.166	8.15
695.195	2.15
695.224	17.15
695.253	1.15
695.282	15.15
695.311	15.15
695.34	5.15
695.369	18.15
695.398	17.15
695.427	29.15
695.456	6.15
695.485	8.15
695.513	15.15
695.542	25.15
695.571	8.15
695.6	28.15
695.629	13.15
695.658	24.15
695.687	9.15
695.716	8.15
695.745	32.15
695.774	15.15
695.802	-6.85
695.831	7.15
695.86	25.15
695.889	40.15
695.918	2.15
695.947	4.15
695.976	1.15
696.005	1.15
696.033	5.15
696.062	22.15
696.091	0.15
696.12	1.15
696.149	28.15
696.178	17.15
696.207	11.15
696.235	-2.85
696.264	13.15
696.293	5.15
696.322	3.15
696.351	25.15
696.38	0.15
696.408	16.15
696.437	0.15
696.466	16.15
696.495	16.15
696.524	23.15
696.553	9.15
696.581	41.15
696.61	21.15
696.639	7.15
696.668	7.15
696.697	10.15
696.725	15.15
696.754	6.15
696.783	0.15
696.812	-1.85
696.84	4.15
696.869	10.15
696.898	10.15
696.927	-9.85
696.956	15.15
696.984	6.15
697.013	2.15
697.042	14.15
697.071	10.15
697.099	9.15
697.128	13.15
697.157	16.15
697.186	-2.85
697.214	7.15
697.243	9.15
697.272	4.15
697.301	5.15
697.329	6.15
697.358	12.15
697.387	23.15
697.415	4.15
697.444	-6.85
697.473	8.15
697.502	-9.85
697.53	7.15
697.559	13.15
697.588	8.15
697.616	5.15
697.645	-1.85
697.674	8.15
697.703	7.15
697.731	25.15
697.76	7.15
697.789	-1.85
697.817	1.15
697.846	14.15
697.875	0.15
697.903	22.15
697.932	2.15
697.961	9.15
697.989	22.15
698.018	21.15
698.047	7.15
698.075	18.15
698.104	-7.85
698.133	9.15
698.161	4.15
698.19	-6.85
698.218	10.15
698.247	16.15
698.276	14.15
698.304	23.15
698.333	3.15
698.362	1.15
698.39	8.15
698.419	4.15
698.447	3.15
698.476	5.15
698.505	18.15
698.533	25.15
698.562	10.15
698.591	15.15
698.619	2.15
698.648	26.15
698.676	17.15
698.705	14.15
698.733	-9.85
698.762	29.15
698.791	19.15
698.819	9.15
698.848	10.15
698.876	21.15
698.905	4.15
698.933	12.15
698.962	11.15
698.991	4.15
699.019	20.15
699.048	1.15
699.076	9.15
699.105	-1.85
699.133	-0.85
699.162	9.15
699.19	21.15
699.219	24.15
699.248	7.15
699.276	17.15
699.305	13.15
699.333	21.15
699.362	2.15
699.39	0.15
699.419	-14.85
699.447	2.15
699.476	20.15
699.504	5.15
699.533	20.15
699.561	-7.85
699.59	-0.85
699.618	1.15
699.647	15.15
699.675	7.15
699.704	29.15
699.732	1.15
699.761	4.15
699.789	8.15
699.818	16.15
699.846	19.15
699.874	7.15
699.903	4.15
699.931	1.15
699.96	18.15
699.988	10.15
700.017	6.15
700.045	4.15
700.074	2.15
700.102	12.15
700.13	0.15
700.159	18.15
700.187	11.15
700.216	-0.85
700.244	-10.85
700.273	0.15
700.301	-0.85
700.329	9.15
700.358	14.15
700.386	4.15
700.415	6.15
700.443	7.15
700.472	7.15
700.5	4.15
700.528	9.15
700.557	13.15
700.585	-1.85
700.614	20.15
700.642	13.15
700.67	25.15
700.699	10.15
700.727	24.15
700.755	0.15
700.784	8.15
700.812	12.15
700.841	9.15
700.869	5.15
700.897	-0.85
700.926	7.15
700.954	10.15
700.982	-3.85
701.011	15.15
701.039	8.15
701.067	0.15
701.096	19.15
701.124	2.15
701.152	4.15
701.181	1.15
701.209	-3.85
701.237	9.15
701.266	0.15
701.294	6.15
701.322	12.15
701.351	20.15
701.379	-14.85
701.407	-5.85
701.435	11.15
701.464	13.15
701.492	19.15
701.52	4.15
701.549	11.15
701.577	-13.85
701.605	-3.85
701.634	9.15
701.662	21.15
701.69	-10.85
701.718	3.15
701.747	7.15
701.775	22.15
701.803	9.15
701.831	12.15
701.86	1.15
701.888	3.15
701.916	6.15
701.944	4.15
701.973	1.15
702.001	-2.85
702.029	-10.85
702.057	-1.85
702.086	-11.85
702.114	-3.85
702.142	6.15
702.17	-1.85
702.199	14.15
702.227	6.15
702.255	29.15
702.283	11.15
702.311	18.15
702.34	2.15
702.368	5.15
702.396	12.15
702.424	13.15
702.452	-2.85
702.481	9.15
702.509	1.15
702.537	0.15
702.565	11.15
702.593	-9.85
702.621	-2.85
702.65	9.15
702.678	13.15
702.706	3.15
702.734	-2.85
702.762	6.15
702.79	3.15
702.819	1.15
702.847	8.15
702.875	11.15
702.903	3.15
702.931	6.15
702.959	24.15
702.988	10.15
703.016	9.15
703.044	9.15
703.072	0.15
703.1	5.15
703.128	5.15
703.156	5.15
703.184	-4.85
703.212	30.15
703.241	17.15
703.269	4.15
703.297	3.15
703.325	7.15
703.353	-7.85
703.381	7.15
703.409	3.15
703.437	-7.85
703.465	6.15
703.493	8.15
703.522	21.15
703.55	2.15
703.578	3.15
703.606	-8.85
703.634	4.15
703.662	12.15
703.69	1.15
703.718	2.15
703.746	26.15
703.774	12.15
703.802	36.15
703.83	-2.85
703.858	-5.85
703.886	-6.85
703.914	-5.85
703.942	16.15
703.97	-8.85
703.998	5.15
704.027	22.15
704.055	11.15
704.083	19.15
704.111	-4.85
704.139	-11.85
704.167	-6.85
704.195	7.15
704.223	4.15
704.251	9.15
704.279	4.15
704.307	1.15
704.335	-17.85
704.363	-4.85
704.391	-3.85
704.419	0.15
704.447	-3.85
704.475	-7.85
704.503	0.15
704.531	24.15
704.558	22.15
704.586	21.15
704.614	-11.85
704.642	-5.85
704.67	-1.85
704.698	-0.85
704.726	14.15
704.754	-2.85
704.782	4.15
704.81	8.15
704.838	21.15
704.866	16.15
704.894	-1.85
704.922	7.15
704.95	15.15
704.978	10.15
705.006	4.15
705.034	15.15
705.061	-13.85
705.089	0.15
705.117	-4.85
705.145	12.15
705.173	2.15
705.201	12.15
705.229	10.15
705.257	6.15
705.285	4.15
705.313	22.15
705.34	14.15
705.368	-0.85
705.396	1.15
705.424	0.15
705.452	2.15
705.48	9.15
705.508	1.15
705.536	-3.85
705.563	-2.85
705.591	-15.85
705.619	0.15
705.647	2.15
705.675	4.15
705.703	3.15
705.731	5.15
705.758	20.15
705.786	21.15
705.814	29.15
705.842	10.15
705.87	7.15
705.898	10.15
705.925	-6.85
705.953	13.15
705.981	-4.85
706.009	-8.85
706.037	15.15
706.065	0.15
706.092	10.15
706.12	-2.85
706.148	-14.85
706.176	-9.85
706.204	18.15
706.231	14.15
706.259	-9.85
706.287	1.15
706.315	5.15
706.342	1.15
706.37	13.15
706.398	10.15
706.426	8.15
706.454	14.15
706.481	0.15
706.509	14.15
706.537	-2.85
706.565	-25.85
706.592	20.15
706.62	0.15
706.648	17.15
706.676	-9.85
706.703	-3.85
706.731	5.15
706.759	-0.85
706.787	13.15
706.814	11.15
706.842	3.15
706.87	0.15
706.897	8.15
706.925	-2.85
706.953	5.15
706.981	15.15
707.008	3.15
707.036	8.15
707.064	6.15
707.091	-18.85
707.119	-4.85
707.147	13.15
707.174	0.15
707.202	2.15
707.23	-3.85
707.258	17.15
707.285	-9.85
707.313	4.15
707.341	-9.85
707.368	-10.85
707.396	1.15
707.424	5.15
707.451	2.15
707.479	9.15
707.507	12.15
707.534	5.15
707.562	13.15
707.59	-3.85
707.617	3.15
707.645	2.15
707.672	5.15
707.7	10.15
707.728	7.15
707.755	2.15
707.783	-2.85
707.811	7.15
707.838	15.15
707.866	16.15
707.893	1.15
707.921	-3.85
707.949	-15.85
707.976	4.15
708.004	5.15
708.031	-17.85
708.059	0.15
708.087	-0.85
708.114	1.15
708.142	5.15
708.169	-1.85
708.197	-3.85
708.225	17.15
708.252	10.15
708.28	30.15
708.307	22.15
708.335	3.15
708.362	-3.85
708.39	-10.85
708.418	3.15
708.445	-12.85
708.473	-1.85
708.5	9.15
708.528	24.15
708.555	-2.85
708.583	-1.85
708.61	0.15
708.638	15.15
708.665	-10.85
708.693	-2.85
708.72	-17.85
708.748	-0.85
708.776	-2.85
708.803	21.15
708.831	-1.85
708.858	20.15
708.886	-2.85
708.913	23.15
708.941	1.15
708.968	4.15
708.996	-3.85
709.023	29.15
709.051	3.15
709.078	6.15
709.105	-8.85
709.133	-11.85
709.16	-1.85
709.188	2.15
709.215	-6.85
709.243	-3.85
709.27	-4.85
709.298	-5.85
709.325	5.15
709.353	12.15
709.38	7.15
709.408	-3.85
709.435	-7.85
709.462	3.15
709.49	-7.85
709.517	-11.85
709.545	-10.85
709.572	6.15
709.6	4.15
709.627	7.15
709.655	-5.85
709.682	8.15
709.709	-2.85
709.737	2.15
709.764	-0.85
709.792	2.15
709.819	0.15
709.846	1.15
709.874	17.15
709.901	24.15
709.929	6.15
709.956	13.15
709.983	5.15
710.011	3.15
710.038	-12.85
710.066	2.15
710.093	20.15
710.12	19.15
710.148	0.15
710.175	-0.85
710.202	0.15
710.23	9.15
710.257	-9.85
710.284	6.15
710.312	-3.85
710.339	15.15
710.366	20.15
710.394	2.15
710.421	1.15
710.448	2.15
710.476	-13.85
710.503	7.15
710.53	5.15
710.558	7.15
710.585	-1.85
710.612	-14.85
710.64	-7.85
710.667	-1.85
710.694	-11.85
710.722	-4.85
710.749	-4.85
710.776	-3.85
710.804	20.15
710.831	-2.85
710.858	12.15
710.885	1.15
710.913	-10.85
710.94	19.15
710.967	0.15
710.995	7.15
711.022	-14.85
711.049	12.15
711.076	6.15
711.104	0.15
711.131	-20.85
711.158	9.15
711.185	14.15
711.213	-11.85
711.24	-4.85
711.267	9.15
711.294	-2.85
711.322	23.15
711.349	4.15
711.376	6.15
711.403	28.15
711.431	4.15
711.458	4.15
711.485	4.15
711.512	2.15
711.54	9.15
711.567	0.15
711.594	-12.85
711.621	-2.85
711.648	-7.85
711.676	-3.85
711.703	-8.85
711.73	-12.85
711.757	5.15
711.784	5.15
711.812	-1.85
711.839	-3.85
711.866	-3.85
711.893	-5.85
711.92	5.15
711.947	9.15
711.975	18.15
712.002	3.15
712.029	6.15
712.056	15.15
712.083	5.15
712.11	-11.85
712.138	-6.85
712.165	6.15
712.192	6.15
712.219	2.15
712.246	-0.85
712.273	-6.85
712.3	-8.85
712.328	3.15
712.355	8.15
712.382	7.15
712.409	21.15
712.436	-3.85
712.463	14.15
712.49	20.15
712.517	6.15
712.544	1.15
712.572	13.15
712.599	2.15
712.626	4.15
712.653	1.15
712.68	-0.85
712.707	7.15
712.734	3.15
712.761	5.15
712.788	5.15
712.815	7.15
712.842	32.15
712.87	11.15
712.897	-13.85
712.924	-2.85
712.951	9.15
712.978	5.15
713.005	10.15
713.032	13.15
713.059	5.15
713.086	3.15
713.113	-17.85
713.14	-8.85
713.167	12.15
713.194	7.15
713.221	4.15
713.248	-1.85
713.275	6.15
713.302	-7.85
713.329	7.15
713.356	14.15
713.383	30.15
713.41	30.15
713.437	10.15
713.464	1.15
713.491	10.15
713.518	1.15
713.545	-3.85
713.572	8.15
713.599	11.15
713.626	5.15
713.653	10.15
713.68	0.15
713.707	-4.85
713.734	3.15
713.761	-2.85
713.788	13.15
713.815	27.15
713.842	7.15
713.869	17.15
713.896	5.15
713.923	8.15
713.95	4.15
713.977	-5.85
714.004	-4.85
714.031	6.15
714.058	3.15
714.085	-3.85
714.112	12.15
714.139	12.15
714.165	-1.85
714.192	-7.85
714.219	-1.85
714.246	9.15
714.273	3.15
714.3	3.15
714.327	4.15
714.354	1.15
714.381	12.15
714.408	15.15
714.435	2.15
714.461	5.15
714.488	16.15
714.515	-6.85
714.542	1.15
714.569	-2.85
714.596	-4.85
714.623	-6.85
714.65	0.15
714.677	-0.85
714.703	2.15
714.73	3.15
714.757	18.15
714.784	20.15
714.811	1.15
714.838	10.15
714.865	1.15
714.891	26.15
714.918	5.15
714.945	-7.85
714.972	-10.85
714.999	-1.85
715.026	-17.85
715.052	11.15
715.079	1.15
715.106	2.15
715.133	3.15
715.16	-22.85
715.187	1.15
715.213	13.15
715.24	-3.85
715.267	5.15
715.294	-5.85
715.321	-0.85
715.347	6.15
715.374	1.15
715.401	11.15
715.428	10.15
715.455	21.15
715.481	-5.85
715.508	28.15
715.535	-13.85
715.562	20.15
715.588	9.15
715.615	-15.85
715.642	-5.85
715.669	-2.85
715.695	-10.85
715.722	-8.85
715.749	5.15
715.776	7.15
715.802	12.15
715.829	9.15
715.856	4.15
715.883	8.15
715.909	-11.85
715.936	4.15
715.963	-0.85
715.99	-3.85
716.016	-2.85
716.043	0.15
716.07	1.15
716.096	-2.85
716.123	-4.85
716.15	3.15
716.177	5.15
716.203	11.15
716.23	13.15
716.257	12.15
716.283	13.15
716.31	22.15
716.337	-2.85
716.363	14.15
716.39	11.15
716.417	6.15
716.443	-15.85
716.47	3.15
716.497	24.15
716.523	19.15
716.55	14.15
716.577	17.15
716.603	-0.85
716.63	-2.85
716.657	27.15
716.683	-5.85
716.71	-7.85
716.737	1.15
716.763	11.15
716.79	1.15
716.817	13.15
716.843	7.15
716.87	-2.85
716.897	5.15
716.923	29.15
716.95	5.15
716.976	-11.85
717.003	-5.85
717.03	-0.85
717.056	8.15
717.083	0.15
717.109	0.15
717.136	16.15
717.163	9.15
717.189	0.15
717.216	9.15
717.242	5.15
717.269	1.15
717.296	-2.85
717.322	15.15
717.349	1.15
717.375	7.15
717.402	15.15
717.428	14.15
717.455	15.15
717.481	6.15
717.508	21.15
717.535	18.15
717.561	3.15
717.588	16.15
717.614	22.15
717.641	18.15
717.667	4.15
717.694	-1.85
717.72	-8.85
717.747	15.15
717.773	6.15
717.8	14.15
717.826	2.15
717.853	4.15
717.88	-6.85
717.906	0.15
717.933	2.15
717.959	1.15
717.986	12.15
718.012	-4.85
718.039	12.15
718.065	22.15
718.092	34.15
718.118	12.15
718.144	-2.85
718.171	16.15
718.197	11.15
718.224	17.15
718.25	5.15
718.277	8.15
718.303	17.15
718.33	3.15
718.356	-3.85
718.383	-7.85
718.409	-1.85
718.436	-2.85
718.462	-5.85
718.489	5.15
718.515	8.15
718.541	28.15
718.568	23.15
718.594	1.15
718.621	14.15
718.647	27.15
718.674	11.15
718.7	12.15
718.726	3.15
718.753	-1.85
718.779	21.15
718.806	-7.85
718.832	-3.85
718.858	-1.85
718.885	-6.85
718.911	9.15
718.938	7.15
718.964	-6.85
718.99	-2.85
719.017	10.15
719.043	-7.85
719.07	7.15
719.096	-3.85
719.122	12.15
719.149	7.15
719.175	-5.85
719.201	12.15
719.228	-2.85
719.254	9.15
719.281	-11.85
719.307	14.15
719.333	-3.85
719.36	23.15
719.386	6.15
719.412	0.15
719.439	-4.85
719.465	5.15
719.491	-7.85
719.518	10.15
719.544	24.15
719.57	28.15
719.597	18.15
719.623	12.15
719.649	22.15
719.675	1.15
719.702	9.15
719.728	21.15
719.754	-4.85
719.781	5.15
719.807	8.15
719.833	16.15
719.86	8.15
719.886	0.15
719.912	8.15
719.938	-7.85
719.965	3.15
719.991	5.15
720.017	-5.85
720.044	5.15
720.07	8.15
720.096	6.15
720.122	1.15
720.149	20.15
720.175	26.15
720.201	1.15
720.227	-1.85
720.254	2.15
720.28	3.15
720.306	5.15
720.332	1.15
720.359	18.15
720.385	3.15
720.411	5.15
720.437	13.15
720.463	4.15
720.49	19.15
720.516	1.15
720.542	-7.85
720.568	8.15
720.595	19.15
720.621	20.15
720.647	11.15
720.673	18.15
720.699	2.15
720.725	5.15
720.752	9.15
720.778	19.15
720.804	14.15
720.83	9.15
720.856	-7.85
720.883	-13.85
720.909	8.15
720.935	27.15
720.961	12.15
720.987	5.15
721.013	12.15
721.04	8.15
721.066	3.15
721.092	8.15
721.118	11.15
721.144	14.15
721.17	10.15
721.196	8.15
721.223	3.15
721.249	4.15
721.275	29.15
721.301	23.15
721.327	4.15
721.353	8.15
721.379	9.15
721.405	20.15
721.432	24.15
721.458	-0.85
721.484	21.15
721.51	-15.85
721.536	3.15
721.562	19.15
721.588	24.15
721.614	-6.85
721.64	-1.85
721.666	0.15
721.693	-4.85
721.719	8.15
721.745	-13.85
721.771	-7.85
721.797	5.15
721.823	15.15
721.849	13.15
721.875	1.15
721.901	19.15
721.927	-8.85
721.953	5.15
721.979	9.15
722.005	5.15
722.031	2.15
722.057	8.15
722.083	15.15
722.109	18.15
722.135	18.15
722.161	8.15
722.187	6.15
722.214	7.15
722.24	-6.85
722.266	1.15
722.292	11.15
722.318	16.15
722.344	10.15
722.37	6.15
722.396	6.15
722.422	9.15
722.448	2.15
722.474	-0.85
722.5	6.15
722.526	10.15
722.552	3.15
722.578	10.15
722.603	13.15
722.629	3.15
722.655	4.15
722.681	3.15
722.707	5.15
722.733	5.15
722.759	-4.85
722.785	7.15
722.811	-3.85
722.837	8.15
722.863	11.15
722.889	13.15
722.915	9.15
722.941	-7.85
722.967	12.15
722.993	15.15
723.019	7.15
723.045	19.15
723.071	12.15
723.097	15.15
723.122	8.15
723.148	-9.85
723.174	5.15
723.2	12.15
723.226	7.15
723.252	2.15
723.278	-2.85
723.304	-0.85
723.33	22.15
723.356	1.15
723.381	-2.85
723.407	-3.85
723.433	6.15
723.459	14.15
723.485	20.15
723.511	16.15
723.537	13.15
723.563	1.15
723.588	23.15
723.614	0.15
723.64	-2.85
723.666	7.15
723.692	10.15
723.718	6.15
723.744	9.15
723.769	-4.85
723.795	-3.85
723.821	4.15
723.847	-0.85
723.873	9.15
723.899	9.15
723.924	7.15
723.95	3.15
723.976	-8.85
724.002	7.15
724.028	14.15
724.053	-10.85
724.079	-10.85
724.105	6.15
724.131	3.15
724.157	8.15
724.182	19.15
724.208	3.15
724.234	19.15
724.26	6.15
724.286	12.15
724.311	-0.85
724.337	-6.85
724.363	8.15
724.389	2.15
724.415	-1.85
724.44	25.15
724.466	-5.85
724.492	-0.85
724.518	2.15
724.543	5.15
724.569	2.15
724.595	7.15
724.621	-4.85
724.646	-6.85
724.672	-5.85
724.698	3.15
724.723	13.15
724.749	0.15
724.775	14.15
724.801	-3.85
724.826	-13.85
724.852	-3.85
724.878	-3.85
724.904	-2.85
724.929	13.15
724.955	-2.85
724.981	-2.85
725.006	2.15
725.032	11.15
725.058	16.15
725.083	-2.85
725.109	-6.85
725.135	1.15
725.161	9.15
725.186	6.15
725.212	6.15
725.238	8.15
725.263	5.15
725.289	13.15
725.315	1.15
725.34	4.15
725.366	5.15
725.392	0.15
725.417	10.15
725.443	12.15
725.468	11.15
725.494	13.15
725.52	0.15
725.545	1.15
725.571	4.15
725.597	13.15
725.622	2.15
725.648	11.15
725.674	11.15
725.699	3.15
725.725	11.15
725.75	39.15
725.776	-5.85
725.802	10.15
725.827	7.15
725.853	0.15
725.878	11.15
725.904	-8.85
725.93	4.15
725.955	-9.85
725.981	-8.85
726.006	10.15
726.032	3.15
726.057	7.15
726.083	-3.85
726.109	-5.85
726.134	-6.85
726.16	5.15
726.185	2.15
726.211	-1.85
726.236	8.15
726.262	7.15
726.288	12.15
726.313	17.15
726.339	34.15
726.364	14.15
726.39	14.15
726.415	5.15
726.441	4.15
726.466	-5.85
726.492	-5.85
726.517	2.15
726.543	14.15
726.568	0.15
726.594	4.15
726.619	9.15
726.645	4.15
726.67	-2.85
726.696	25.15
726.721	-1.85
726.747	-10.85
726.772	5.15
726.798	3.15
726.823	12.15
726.849	-4.85
726.874	31.15
726.9	34.15
726.925	16.15
726.951	-3.85
726.976	16.15
727.002	0.15
727.027	17.15
727.053	14.15
727.078	7.15
727.104	13.15
727.129	1.15
727.155	-4.85
727.18	15.15
727.205	-5.85
727.231	-8.85
727.256	-4.85
727.282	13.15
727.307	18.15
727.333	14.15
727.358	4.15
727.383	-5.85
727.409	-0.85
727.434	0.15
727.46	0.15
727.485	-0.85
727.511	7.15
727.536	-10.85
727.561	1.15
727.587	-5.85
727.612	11.15
727.637	-3.85
727.663	-3.85
727.688	25.15
727.714	6.15
727.739	1.15
727.764	-9.85
727.79	8.15
727.815	7.15
727.841	17.15
727.866	14.15
727.891	12.15
727.917	3.15
727.942	-4.85
727.967	1.15
727.993	6.15
728.018	5.15
728.043	-8.85
728.069	12.15
728.094	17.15
728.119	-5.85
728.145	22.15
728.17	13.15
728.195	0.15
728.221	4.15
728.246	8.15
728.271	-19.85
728.297	11.15
728.322	7.15
728.347	8.15
728.373	-2.85
728.398	4.15
728.423	5.15
728.448	14.15
728.474	12.15
728.499	9.15
728.524	-10.85
728.55	-3.85
728.575	2.15
728.6	-0.85
728.625	-4.85
728.651	-1.85
728.676	4.15
728.701	0.15
728.727	-4.85
728.752	-3.85
728.777	11.15
728.802	4.15
728.828	8.15
728.853	13.15
728.878	2.15
728.903	-13.85
728.929	-1.85
728.954	3.15
728.979	17.15
729.004	-5.85
729.03	1.15
729.055	-3.85
729.08	-1.85
729.105	-20.85
729.13	24.15
729.156	14.15
729.181	-6.85
729.206	-8.85
729.231	10.15
729.256	22.15
729.282	8.15
729.307	-22.85
729.332	5.15
729.357	-3.85
729.382	13.15
729.408	1.15
729.433	6.15
729.458	3.15
729.483	7.15
729.508	17.15
729.533	-3.85
729.559	11.15
729.584	-1.85
729.609	-2.85
729.634	9.15
729.659	-11.85
729.684	5.15
729.71	27.15
729.735	12.15
729.76	5.15
729.785	4.15
729.81	22.15
729.835	10.15
729.86	-5.85
729.886	20.15
729.911	9.15
729.936	-1.85
729.961	13.15
729.986	8.15
730.011	71.15
730.036	230.15
730.061	1026.15
730.086	2745.15
730.112	3480.15
730.137	2888.15
730.162	2157.15
730.187	1678.15
730.212	1273.15
730.237	811.15
730.262	480.15
730.287	241.15
730.312	140.15
730.337	64.15
730.362	61.15
730.387	57.15
730.413	28.15
730.438	8.15
730.463	34.15
730.488	21.15
730.513	9.15
730.538	9.15
730.563	33.15
730.588	23.15
730.613	24.15
730.638	15.15
730.663	9.15
730.688	19.15
730.713	19.15
730.738	6.15
730.763	13.15
730.788	-7.85
730.813	17.15
730.838	0.15
730.863	6.15
730.888	8.15
730.913	8.15
730.938	5.15
730.963	43.15
730.988	124.15
731.013	433.15
731.038	642.15
731.063	609.15
731.088	489.15
731.113	358.15
731.138	275.15
731.163	188.15
731.188	109.15
731.213	80.15
731.238	54.15
731.263	28.15
731.288	7.15
731.313	11.15
731.338	25.15
731.363	6.15
731.388	12.15
731.413	8.15
731.438	22.15
731.463	20.15
731.487	18.15
731.512	-4.85
731.537	-10.85
731.562	4.15
731.587	2.15
731.612	-5.85
731.637	8.15
731.662	2.15
731.687	-3.85
731.712	-10.85
731.737	5.15
731.762	3.15
731.786	2.15
731.811	20.15
731.836	19.15
731.861	7.15
731.886	4.15
731.911	14.15
731.936	20.15
731.961	-14.85
731.986	-5.85
732.01	17.15
732.035	8.15
732.06	33.15
732.085	7.15
732.11	8.15
732.135	-3.85
732.16	4.15
732.184	-1.85
732.209	-2.85
732.234	-3.85
732.259	-9.85
732.284	8.15
732.309	-3.85
732.334	2.15
732.358	-8.85
732.383	-15.85
732.408	-4.85
732.433	3.15
732.458	11.15
732.482	7.15
732.507	0.15
732.532	11.15
732.557	12.15
732.582	15.15
732.607	28.15
732.631	43.15
732.656	79.15
732.681	134.15
732.706	335.15
732.73	465.15
732.755	413.15
732.78	329.15
732.805	241.15
732.83	196.15
732.854	122.15
732.879	74.15
732.904	47.15
732.929	14.15
732.953	3.15
732.978	7.15
733.003	2.15
733.028	6.15
733.052	-1.85
733.077	13.15
733.102	20.15
733.127	1.15
733.151	0.15
733.176	27.15
733.201	6.15
733.226	-6.85
733.25	6.15
733.275	8.15
733.3	-1.85
733.324	22.15
733.349	-4.85
733.374	13.15
733.399	12.15
733.423	9.15
733.448	-7.85
733.473	13.15
733.497	14.15
733.522	-3.85
733.547	11.15
733.571	10.15
733.596	4.15
733.621	10.15
733.646	0.15
733.67	15.15
733.695	9.15
733.72	2.15
733.744	25.15
733.769	7.15
733.794	16.15
733.818	9.15
733.843	4.15
733.867	-2.85
733.892	1.15
733.917	-6.85
733.941	8.15
733.966	-12.85
733.991	-9.85
734.015	6.15
734.04	-2.85
734.065	5.15
734.089	13.15
734.114	23.15
734.138	15.15
734.163	1.15
734.188	9.15
734.212	4.15
734.237	9.15
734.261	-1.85
734.286	1.15
734.311	-0.85
734.335	-2.85
734.36	0.15
734.384	10.15
734.409	10.15
734.434	1.15
734.458	14.15
734.483	5.15
734.507	-8.85
734.532	1.15
734.556	2.15
734.581	-2.85
734.606	-2.85
734.63	-6.85
734.655	1.15
734.679	1.15
734.704	7.15
734.728	4.15
734.753	-21.85
734.777	-10.85
734.802	-2.85
734.826	3.15
734.851	5.15
734.876	21.15
734.9	17.15
734.925	12.15
734.949	5.15
734.974	-0.85
734.998	-1.85
735.023	-6.85
735.047	-11.85
735.072	3.15
735.096	6.15
735.121	9.15
735.145	-4.85
735.17	2.15
735.194	10.15
735.219	2.15
735.243	0.15
735.268	16.15
735.292	2.15
735.317	0.15
735.341	17.15
735.365	7.15
735.39	12.15
735.414	17.15
735.439	12.15
735.463	4.15
735.488	2.15
735.512	3.15
735.537	0.15
735.561	8.15
735.586	-5.85
735.61	1.15
735.634	1.15
735.659	12.15
735.683	28.15
735.708	-7.85
735.732	-19.85
735.757	-2.85
735.781	11.15
735.805	7.15
735.83	-15.85
735.854	-4.85
735.879	-1.85
735.903	17.15
735.927	1.15
735.952	-4.85
735.976	-10.85
736.001	-13.85
736.025	-5.85
736.049	4.15
736.074	19.15
736.098	-1.85
736.123	2.15
736.147	-2.85
736.171	7.15
736.196	-2.85
736.22	-9.85
736.244	5.15
736.269	2.15
736.293	-4.85
736.317	14.15
736.342	22.15
736.366	21.15
736.39	13.15
736.415	6.15
736.439	12.15
736.463	11.15
736.488	12.15
736.512	16.15
736.536	7.15
736.561	18.15
736.585	12.15
736.609	8.15
736.634	-1.85
736.658	-2.85
736.682	-11.85
736.707	-6.85
736.731	-8.85
736.755	-8.85
736.78	9.15
736.804	8.15
736.828	12.15
736.852	1.15
736.877	4.15
736.901	21.15
736.925	14.15
736.949	5.15
736.974	0.15
736.998	-18.85
737.022	3.15
737.047	7.15
737.071	-5.85
737.095	19.15
737.119	20.15
737.144	13.15
737.168	1.15
737.192	9.15
737.216	12.15
737.241	-7.85
737.265	9.15
737.289	-4.85
737.313	-4.85
737.337	9.15
737.362	2.15
737.386	-2.85
737.41	-11.85
737.434	10.15
737.459	5.15
737.483	9.15
737.507	10.15
737.531	16.15
737.555	13.15
737.58	24.15
737.604	13.15
737.628	-12.85
737.652	1.15
737.676	1.15
737.701	21.15
737.725	5.15
737.749	4.15
737.773	-4.85
737.797	5.15
737.821	9.15
737.846	4.15
737.87	15.15
737.894	1.15
737.918	-4.85
737.942	10.15
737.966	11.15
737.99	17.15
738.015	22.15
738.039	5.15
738.063	4.15
738.087	26.15
738.111	15.15
738.135	10.15
738.159	-0.85
738.184	0.15
738.208	11.15
738.232	15.15
738.256	24.15
738.28	11.15
738.304	22.15
738.328	-2.85
738.352	8.15
738.376	12.15
738.4	7.15
738.425	26.15
738.449	23.15
738.473	29.15
738.497	6.15
738.521	11.15
738.545	13.15
738.569	15.15
738.593	18.15
738.617	1.15
738.641	4.15
738.665	8.15
738.689	17.15
738.713	4.15
738.737	-9.85
738.762	11.15
738.786	1.15
738.81	-7.85
738.834	21.15
738.858	-5.85
738.882	16.15
738.906	18.15
738.93	23.15
738.954	9.15
738.978	12.15
739.002	17.15
739.026	8.15
739.05	20.15
739.074	5.15
739.098	14.15
739.122	9.15
739.146	24.15
739.17	13.15
739.194	5.15
739.218	9.15
739.242	2.15
739.266	8.15
739.29	14.15
739.314	10.15
739.338	3.15
739.362	9.15
739.386	1.15
739.41	-1.85
739.434	0.15
739.458	27.15
739.482	19.15
739.506	10.15
739.53	0.15
739.554	10.15
739.577	5.15
739.601	7.15
739.625	18.15
739.649	12.15
739.673	5.15
739.697	12.15
739.721	5.15
739.745	22.15
739.769	11.15
739.793	14.15
739.817	18.15
739.841	-0.85
739.865	1.15
739.889	5.15
739.912	1.15
739.936	5.15
739.96	0.15
739.984	25.15
740.008	24.15
740.032	6.15
740.056	4.15
740.08	-5.85
740.104	-17.85
740.127	-7.85
740.151	9.15
740.175	19.15
740.199	17.15
740.223	55.15
740.247	12.15
740.271	14.15
740.295	5.15
740.318	-6.85
740.342	-9.85
740.366	8.15
740.39	18.15
740.414	8.15
740.438	-9.85
740.461	7.15
740.485	18.15
740.509	5.15
740.533	13.15
740.557	4.15
740.581	-2.85
740.604	-17.85
740.628	1.15
740.652	20.15
740.676	-6.85
740.7	16.15
740.723	-2.85
740.747	-5.85
740.771	15.15
740.795	-5.85
740.819	-1.85
740.842	2.15
740.866	11.15
740.89	13.15
740.914	9.15
740.938	-5.85
740.961	7.15
740.985	9.15
741.009	-1.85
741.033	21.15
741.056	8.15
741.08	-9.85
741.104	-11.85
741.128	-2.85
741.151	18.15
741.175	3.15
741.199	6.15
741.223	14.15
741.246	8.15
741.27	4.15
741.294	9.15
741.318	5.15
741.341	2.15
741.365	17.15
741.389	8.15
741.413	25.15
741.436	24.15
741.46	19.15
741.484	31.15
741.507	14.15
741.531	34.15
741.555	26.15
741.579	19.15
741.602	14.15
741.626	14.15
741.65	24.15
741.673	7.15
741.697	23.15
741.721	11.15
741.744	-5.85
741.768	9.15
741.792	15.15
741.815	-2.85
741.839	22.15
741.863	18.15
741.886	3.15
741.91	9.15
741.934	16.15
741.957	0.15
741.981	21.15
742.005	5.15
742.028	-4.85
742.052	-0.85
742.075	23.15
742.099	18.15
742.123	15.15
742.146	9.15
742.17	13.15
742.194	-15.85
742.217	0.15
742.241	10.15
742.264	9.15
742.288	7.15
742.312	14.15
742.335	6.15
742.359	21.15
742.382	37.15
742.406	22.15
742.43	11.15
742.453	33.15
742.477	2.15
742.5	12.15
742.524	-1.85
742.548	-2.85
742.571	-4.85
742.595	4.15
742.618	2.15
742.642	9.15
742.665	27.15
742.689	13.15
742.712	12.15
742.736	5.15
742.76	17.15
742.783	1.15
742.807	8.15
742.83	20.15
742.854	-14.85
742.877	0.15
742.901	14.15
742.924	5.15
742.948	1.15
742.971	3.15
742.995	4.15
743.018	-9.85
743.042	-18.85
743.065	-6.85
743.089	17.15
743.112	12.15
743.136	-7.85
743.159	8.15
743.183	-7.85
743.206	1.15
743.23	-0.85
743.253	0.15
743.277	-5.85
743.3	2.15
743.324	9.15
743.347	1.15
743.371	19.15
743.394	21.15
743.418	25.15
743.441	18.15
743.465	0.15
743.488	6.15
743.512	-3.85
743.535	5.15
743.558	9.15
743.582	8.15
743.605	-1.85
743.629	12.15
743.652	8.15
743.676	3.15
743.699	3.15
743.723	12.15
743.746	19.15
743.769	1.15
743.793	15.15
743.816	-2.85
743.84	12.15
743.863	9.15
743.886	20.15
743.91	11.15
743.933	8.15
743.957	8.15
743.98	2.15
744.003	1.15
744.027	4.15
744.05	2.15
744.074	17.15
744.097	-25.85
744.12	6.15
744.144	9.15
744.167	7.15
744.19	5.15
744.214	8.15
744.237	-4.85
744.26	22.15
744.284	10.15
744.307	-24.85
744.331	7.15
744.354	-9.85
744.377	-6.85
744.401	-14.85
744.424	0.15
744.447	3.15
744.471	2.15
