Data from HighRes_mercury_15_13_11_07_2024_HR4C61891__67__15-14-29-886.txt Node

Date: Thu Nov 07 15:14:29 EST 2024
User: crc00042
Spectrometer: HR4C6189
Trigger mode: 4
Integration Time (sec): 1.000000E-1
Scans to average: 1
Electric dark correction enabled: true
Nonlinearity correction enabled: false
Boxcar width: 0
XAxis mode: Wavelengths
Number of Pixels in Spectrum: 3648
>>>>>Begin Spectral Data<<<<<
639.567	-52.92
639.602	-52.92
639.636	-52.92
639.67	-44.92
639.704	-22.92
639.738	-4.92
639.773	22.08
639.807	7.08
639.841	8.08
639.875	5.08
639.909	-17.92
639.943	-12.92
639.978	-3.92
640.012	7.08
640.046	0.08
640.08	-5.92
640.114	6.08
640.148	-9.92
640.182	8.08
640.217	-11.92
640.251	6.08
640.285	9.08
640.319	-6.92
640.353	10.08
640.387	-0.92
640.421	-9.92
640.455	-7.92
640.49	-1.92
640.524	-2.92
640.558	-2.92
640.592	-6.92
640.626	2.08
640.66	21.08
640.694	-12.92
640.728	16.08
640.762	-0.92
640.796	14.08
640.83	5.08
640.865	11.08
640.899	-8.92
640.933	-9.92
640.967	-9.92
641.001	-2.92
641.035	-7.92
641.069	-5.92
641.103	-20.92
641.137	1.08
641.171	-4.92
641.205	-13.92
641.239	-7.92
641.273	19.08
641.307	-3.92
641.341	6.08
641.375	-5.92
641.409	-4.92
641.443	13.08
641.477	2.08
641.511	0.08
641.545	1.08
641.579	7.08
641.614	9.08
641.648	16.08
641.682	-2.92
641.716	7.08
641.75	-0.92
641.784	-2.92
641.818	0.08
641.852	3.08
641.886	-15.92
641.919	16.08
641.953	-5.92
641.987	-13.92
642.021	-11.92
642.055	6.08
642.089	21.08
642.123	-4.92
642.157	-1.92
642.191	-2.92
642.225	15.08
642.259	-18.92
642.293	14.08
642.327	6.08
642.361	-0.92
642.395	2.08
642.429	3.08
642.463	15.08
642.497	17.08
642.531	0.08
642.565	-16.92
642.599	3.08
642.633	-8.92
642.666	-2.92
642.7	9.08
642.734	7.08
642.768	-10.92
642.802	-10.92
642.836	-0.92
642.87	-4.92
642.904	11.08
642.938	-0.92
642.972	9.08
643.005	4.08
643.039	10.08
643.073	1.08
643.107	9.08
643.141	-1.92
643.175	12.08
643.209	-4.92
643.243	7.08
643.276	-1.92
643.31	-11.92
643.344	-9.92
643.378	-13.92
643.412	-10.92
643.446	1.08
643.48	-21.92
643.513	-9.92
643.547	9.08
643.581	0.08
643.615	21.08
643.649	5.08
643.683	-5.92
643.716	-7.92
643.75	-0.92
643.784	-25.92
643.818	14.08
643.852	-9.92
643.886	-17.92
643.919	-0.92
643.953	-13.92
643.987	4.08
644.021	-0.92
644.055	2.08
644.088	12.08
644.122	-11.92
644.156	-1.92
644.19	-16.92
644.224	-4.92
644.257	3.08
644.291	7.08
644.325	4.08
644.359	-11.92
644.392	22.08
644.426	13.08
644.46	-4.92
644.494	-7.92
644.527	7.08
644.561	3.08
644.595	-12.92
644.629	-10.92
644.662	-13.92
644.696	14.08
644.73	-8.92
644.764	13.08
644.797	-8.92
644.831	-13.92
644.865	18.08
644.899	-4.92
644.932	15.08
644.966	2.08
645	-1.92
645.033	10.08
645.067	-1.92
645.101	11.08
645.135	-1.92
645.168	-1.92
645.202	-2.92
645.236	-6.92
645.269	11.08
645.303	-0.92
645.337	-15.92
645.37	11.08
645.404	-1.92
645.438	-6.92
645.471	-15.92
645.505	6.08
645.539	2.08
645.572	-5.92
645.606	-21.92
645.64	-2.92
645.673	2.08
645.707	20.08
645.741	2.08
645.774	1.08
645.808	14.08
645.842	-5.92
645.875	3.08
645.909	-6.92
645.943	-13.92
645.976	-3.92
646.01	2.08
646.043	24.08
646.077	-0.92
646.111	0.08
646.144	9.08
646.178	2.08
646.212	-4.92
646.245	-9.92
646.279	6.08
646.312	0.08
646.346	-16.92
646.38	3.08
646.413	14.08
646.447	6.08
646.48	3.08
646.514	6.08
646.547	-11.92
646.581	-8.92
646.615	-1.92
646.648	-2.92
646.682	-8.92
646.715	-8.92
646.749	12.08
646.782	-13.92
646.816	3.08
646.85	0.08
646.883	-11.92
646.917	13.08
646.95	-6.92
646.984	9.08
647.017	0.08
647.051	22.08
647.084	9.08
647.118	-16.92
647.151	-5.92
647.185	-5.92
647.218	1.08
647.252	2.08
647.285	-8.92
647.319	-14.92
647.353	-1.92
647.386	13.08
647.42	13.08
647.453	3.08
647.487	2.08
647.52	1.08
647.553	4.08
647.587	6.08
647.62	-0.92
647.654	-11.92
647.687	2.08
647.721	-12.92
647.754	-5.92
647.788	-7.92
647.821	-26.92
647.855	-5.92
647.888	-14.92
647.922	6.08
647.955	18.08
647.989	1.08
648.022	0.08
648.055	18.08
648.089	-0.92
648.122	0.08
648.156	7.08
648.189	-11.92
648.223	6.08
648.256	8.08
648.29	19.08
648.323	-1.92
648.356	12.08
648.39	1.08
648.423	15.08
648.457	-6.92
648.49	4.08
648.523	6.08
648.557	9.08
648.59	-6.92
648.624	-3.92
648.657	5.08
648.69	17.08
648.724	14.08
648.757	17.08
648.791	13.08
648.824	-4.92
648.857	9.08
648.891	-4.92
648.924	3.08
648.957	9.08
648.991	-25.92
649.024	16.08
649.057	-1.92
649.091	-17.92
649.124	12.08
649.158	9.08
649.191	15.08
649.224	-5.92
649.258	-1.92
649.291	10.08
649.324	0.08
649.358	-1.92
649.391	11.08
649.424	10.08
649.458	-14.92
649.491	-15.92
649.524	-7.92
649.557	-17.92
649.591	-16.92
649.624	4.08
649.657	-13.92
649.691	-10.92
649.724	-16.92
649.757	4.08
649.791	-7.92
649.824	3.08
649.857	23.08
649.89	2.08
649.924	-16.92
649.957	-21.92
649.99	-14.92
650.023	5.08
650.057	-5.92
650.09	-9.92
650.123	-11.92
650.157	13.08
650.19	22.08
650.223	3.08
650.256	-1.92
650.29	-5.92
650.323	1.08
650.356	7.08
650.389	-16.92
650.423	-8.92
650.456	-6.92
650.489	-1.92
650.522	-5.92
650.555	12.08
650.589	0.08
650.622	6.08
650.655	-2.92
650.688	-2.92
650.721	-4.92
650.755	-6.92
650.788	25.08
650.821	-1.92
650.854	3.08
650.887	-4.92
650.921	-12.92
650.954	-16.92
650.987	-2.92
651.02	-22.92
651.053	-8.92
651.087	-22.92
651.12	12.08
651.153	0.08
651.186	-6.92
651.219	-11.92
651.252	8.08
651.286	10.08
651.319	-2.92
651.352	-4.92
651.385	2.08
651.418	-0.92
651.451	6.08
651.484	2.08
651.518	-18.92
651.551	19.08
651.584	-14.92
651.617	14.08
651.65	8.08
651.683	19.08
651.716	9.08
651.749	5.08
651.783	-6.92
651.816	7.08
651.849	-0.92
651.882	-16.92
651.915	-13.92
651.948	3.08
651.981	-4.92
652.014	-20.92
652.047	14.08
652.08	-8.92
652.114	2.08
652.147	-4.92
652.18	-5.92
652.213	36.08
652.246	-12.92
652.279	-8.92
652.312	-4.92
652.345	15.08
652.378	-3.92
652.411	16.08
652.444	-4.92
652.477	9.08
652.51	-4.92
652.543	-21.92
652.576	5.08
652.609	-0.92
652.642	-2.92
652.675	14.08
652.709	-5.92
652.742	-3.92
652.775	4.08
652.808	-0.92
652.841	3.08
652.874	6.08
652.907	1.08
652.94	-12.92
652.973	-12.92
653.006	7.08
653.039	2.08
653.072	5.08
653.105	9.08
653.138	-9.92
653.171	-5.92
653.204	4.08
653.237	-0.92
653.27	-4.92
653.303	-5.92
653.336	-5.92
653.368	-9.92
653.401	-26.92
653.434	-29.92
653.467	4.08
653.5	-8.92
653.533	-6.92
653.566	0.08
653.599	5.08
653.632	-0.92
653.665	17.08
653.698	-18.92
653.731	-15.92
653.764	4.08
653.797	-5.92
653.83	4.08
653.863	-3.92
653.896	-6.92
653.929	-6.92
653.961	4.08
653.994	-5.92
654.027	-21.92
654.06	7.08
654.093	-12.92
654.126	-4.92
654.159	-7.92
654.192	-0.92
654.225	-17.92
654.258	-20.92
654.29	-8.92
654.323	3.08
654.356	4.08
654.389	1.08
654.422	0.08
654.455	5.08
654.488	-10.92
654.521	-19.92
654.553	-21.92
654.586	-2.92
654.619	-3.92
654.652	-2.92
654.685	5.08
654.718	9.08
654.751	6.08
654.783	-8.92
654.816	-4.92
654.849	0.08
654.882	-15.92
654.915	-16.92
654.948	-4.92
654.98	-4.92
655.013	-9.92
655.046	-5.92
655.079	0.08
655.112	10.08
655.144	-15.92
655.177	-8.92
655.21	2.08
655.243	5.08
655.276	2.08
655.308	8.08
655.341	9.08
655.374	-4.92
655.407	-1.92
655.44	2.08
655.472	10.08
655.505	-25.92
655.538	-4.92
655.571	-8.92
655.603	18.08
655.636	2.08
655.669	-0.92
655.702	3.08
655.734	-37.92
655.767	-8.92
655.8	-4.92
655.833	-3.92
655.865	-9.92
655.898	1.08
655.931	-2.92
655.964	-7.92
655.996	5.08
656.029	-3.92
656.062	-10.92
656.095	-8.92
656.127	-18.92
656.16	-10.92
656.193	-8.92
656.225	-4.92
656.258	3.08
656.291	7.08
656.324	17.08
656.356	30.08
656.389	14.08
656.422	15.08
656.454	-9.92
656.487	-7.92
656.52	-3.92
656.552	-11.92
656.585	-5.92
656.618	12.08
656.65	7.08
656.683	-8.92
656.716	5.08
656.748	0.08
656.781	-15.92
656.814	-14.92
656.846	1.08
656.879	-10.92
656.912	-2.92
656.944	-11.92
656.977	-1.92
657.01	-6.92
657.042	4.08
657.075	2.08
657.108	0.08
657.14	11.08
657.173	11.08
657.205	18.08
657.238	6.08
657.271	-6.92
657.303	-4.92
657.336	-6.92
657.369	-15.92
657.401	-7.92
657.434	-13.92
657.466	0.08
657.499	2.08
657.532	-5.92
657.564	10.08
657.597	-2.92
657.629	5.08
657.662	14.08
657.694	-4.92
657.727	-18.92
657.76	-3.92
657.792	-17.92
657.825	-5.92
657.857	2.08
657.89	10.08
657.922	2.08
657.955	3.08
657.987	-1.92
658.02	10.08
658.053	6.08
658.085	-2.92
658.118	-5.92
658.15	2.08
658.183	10.08
658.215	-4.92
658.248	-15.92
658.28	-0.92
658.313	7.08
658.345	-5.92
658.378	4.08
658.41	0.08
658.443	-8.92
658.475	-8.92
658.508	-15.92
658.54	-7.92
658.573	-21.92
658.605	7.08
658.638	-1.92
658.67	-1.92
658.703	0.08
658.735	-11.92
658.768	-0.92
658.8	-11.92
658.833	16.08
658.865	-2.92
658.898	-7.92
658.93	-19.92
658.963	2.08
658.995	-13.92
659.028	-1.92
659.06	0.08
659.092	-6.92
659.125	-11.92
659.157	3.08
659.19	-5.92
659.222	-18.92
659.255	15.08
659.287	-2.92
659.32	-8.92
659.352	-5.92
659.384	13.08
659.417	-9.92
659.449	7.08
659.482	1.08
659.514	-11.92
659.546	-11.92
659.579	-5.92
659.611	-15.92
659.644	2.08
659.676	-25.92
659.708	-5.92
659.741	6.08
659.773	6.08
659.806	-9.92
659.838	-19.92
659.87	4.08
659.903	-8.92
659.935	2.08
659.967	4.08
660	2.08
660.032	-26.92
660.065	14.08
660.097	6.08
660.129	1.08
660.162	-16.92
660.194	0.08
660.226	4.08
660.259	13.08
660.291	1.08
660.323	1.08
660.356	2.08
660.388	-1.92
660.42	9.08
660.453	9.08
660.485	6.08
660.517	1.08
660.55	6.08
660.582	-3.92
660.614	6.08
660.647	-14.92
660.679	-12.92
660.711	9.08
660.743	-13.92
660.776	-12.92
660.808	1.08
660.84	-1.92
660.873	8.08
660.905	2.08
660.937	-5.92
660.969	7.08
661.002	3.08
661.034	4.08
661.066	1.08
661.099	-0.92
661.131	7.08
661.163	13.08
661.195	8.08
661.228	11.08
661.26	-8.92
661.292	1.08
661.324	-5.92
661.357	9.08
661.389	-10.92
661.421	-9.92
661.453	-6.92
661.485	-4.92
661.518	0.08
661.55	-26.92
661.582	-27.92
661.614	-4.92
661.647	0.08
661.679	-14.92
661.711	-16.92
661.743	-20.92
661.775	-4.92
661.808	-0.92
661.84	-15.92
661.872	-0.92
661.904	-7.92
661.936	-4.92
661.969	-17.92
662.001	-2.92
662.033	-0.92
662.065	-5.92
662.097	0.08
662.129	4.08
662.162	-7.92
662.194	-1.92
662.226	2.08
662.258	-8.92
662.29	-11.92
662.322	-26.92
662.355	-21.92
662.387	16.08
662.419	10.08
662.451	5.08
662.483	16.08
662.515	3.08
662.547	-0.92
662.58	-10.92
662.612	-10.92
662.644	-28.92
662.676	-2.92
662.708	17.08
662.74	4.08
662.772	-7.92
662.804	7.08
662.836	6.08
662.869	-9.92
662.901	8.08
662.933	-5.92
662.965	4.08
662.997	4.08
663.029	-12.92
663.061	-5.92
663.093	-6.92
663.125	10.08
663.157	7.08
663.189	-6.92
663.221	0.08
663.254	3.08
663.286	-1.92
663.318	-9.92
663.35	-13.92
663.382	-5.92
663.414	-8.92
663.446	2.08
663.478	-11.92
663.51	10.08
663.542	1.08
663.574	-10.92
663.606	13.08
663.638	2.08
663.67	3.08
663.702	-6.92
663.734	-11.92
663.766	2.08
663.798	-9.92
663.83	-11.92
663.862	11.08
663.894	2.08
663.926	-9.92
663.958	-0.92
663.99	11.08
664.022	-20.92
664.054	17.08
664.086	-10.92
664.118	-10.92
664.15	-21.92
664.182	4.08
664.214	-20.92
664.246	-2.92
664.278	-16.92
664.31	26.08
664.342	3.08
664.374	14.08
664.406	-4.92
664.438	-4.92
664.47	15.08
664.502	-15.92
664.534	-2.92
664.566	-1.92
664.598	7.08
664.63	-0.92
664.662	-5.92
664.693	-3.92
664.725	-14.92
664.757	-2.92
664.789	-11.92
664.821	-4.92
664.853	1.08
664.885	0.08
664.917	-18.92
664.949	12.08
664.981	16.08
665.013	1.08
665.045	-17.92
665.076	-1.92
665.108	-6.92
665.14	-2.92
665.172	-4.92
665.204	-6.92
665.236	-12.92
665.268	-3.92
665.3	-14.92
665.331	-19.92
665.363	1.08
665.395	-13.92
665.427	-0.92
665.459	-2.92
665.491	-13.92
665.523	-9.92
665.555	-2.92
665.586	-8.92
665.618	-0.92
665.65	-18.92
665.682	-5.92
665.714	0.08
665.746	-15.92
665.777	-1.92
665.809	-9.92
665.841	-7.92
665.873	0.08
665.905	9.08
665.937	11.08
665.968	-2.92
666	-5.92
666.032	-6.92
666.064	0.08
666.096	-3.92
666.127	3.08
666.159	-2.92
666.191	-0.92
666.223	-14.92
666.255	-1.92
666.286	4.08
666.318	-7.92
666.35	30.08
666.382	-13.92
666.413	-9.92
666.445	-25.92
666.477	-22.92
666.509	-3.92
666.54	-13.92
666.572	-16.92
666.604	-2.92
666.636	-1.92
666.667	11.08
666.699	21.08
666.731	-6.92
666.763	-24.92
666.794	-4.92
666.826	11.08
666.858	-3.92
666.89	14.08
666.921	3.08
666.953	5.08
666.985	13.08
667.017	16.08
667.048	2.08
667.08	-5.92
667.112	-7.92
667.143	-16.92
667.175	-17.92
667.207	-7.92
667.238	-1.92
667.27	-3.92
667.302	19.08
667.334	7.08
667.365	17.08
667.397	-2.92
667.429	-29.92
667.46	18.08
667.492	12.08
667.524	-5.92
667.555	-13.92
667.587	-9.92
667.619	-20.92
667.65	-19.92
667.682	-9.92
667.714	-1.92
667.745	5.08
667.777	4.08
667.808	-6.92
667.84	-1.92
667.872	2.08
667.903	14.08
667.935	-2.92
667.967	-3.92
667.998	-3.92
668.03	-15.92
668.061	0.08
668.093	-5.92
668.125	0.08
668.156	11.08
668.188	-19.92
668.22	-7.92
668.251	2.08
668.283	2.08
668.314	10.08
668.346	2.08
668.377	11.08
668.409	16.08
668.441	34.08
668.472	14.08
668.504	2.08
668.535	14.08
668.567	7.08
668.599	-0.92
668.63	2.08
668.662	-8.92
668.693	3.08
668.725	-5.92
668.756	-2.92
668.788	2.08
668.819	1.08
668.851	-10.92
668.882	-3.92
668.914	-5.92
668.946	-7.92
668.977	0.08
669.009	-0.92
669.04	-15.92
669.072	-5.92
669.103	-12.92
669.135	2.08
669.166	-3.92
669.198	0.08
669.229	6.08
669.261	-15.92
669.292	-4.92
669.324	1.08
669.355	-3.92
669.387	-18.92
669.418	6.08
669.45	-0.92
669.481	-2.92
669.513	-4.92
669.544	8.08
669.576	-7.92
669.607	14.08
669.639	2.08
669.67	-9.92
669.701	9.08
669.733	-25.92
669.764	-10.92
669.796	2.08
669.827	2.08
669.859	1.08
669.89	-1.92
669.922	16.08
669.953	1.08
669.985	1.08
670.016	-0.92
670.047	1.08
670.079	5.08
670.11	-11.92
670.142	-1.92
670.173	-1.92
670.204	-4.92
670.236	2.08
670.267	-1.92
670.299	-9.92
670.33	-0.92
670.362	-3.92
670.393	-5.92
670.424	4.08
670.456	-9.92
670.487	-3.92
670.518	3.08
670.55	10.08
670.581	0.08
670.613	9.08
670.644	-10.92
670.675	-10.92
670.707	-8.92
670.738	-4.92
670.769	-10.92
670.801	-18.92
670.832	-0.92
670.864	-2.92
670.895	-4.92
670.926	-19.92
670.958	-5.92
670.989	11.08
671.02	-3.92
671.052	-1.92
671.083	3.08
671.114	-7.92
671.146	-0.92
671.177	-0.92
671.208	-18.92
671.24	-8.92
671.271	-0.92
671.302	0.08
671.333	-7.92
671.365	-2.92
671.396	-17.92
671.427	0.08
671.459	13.08
671.49	-0.92
671.521	0.08
671.553	16.08
671.584	20.08
671.615	-11.92
671.646	2.08
671.678	-17.92
671.709	-19.92
671.74	-12.92
671.771	-12.92
671.803	-1.92
671.834	5.08
671.865	-11.92
671.896	5.08
671.928	-6.92
671.959	-18.92
671.99	-4.92
672.021	0.08
672.053	-9.92
672.084	-2.92
672.115	-7.92
672.146	0.08
672.178	-26.92
672.209	-6.92
672.24	-5.92
672.271	-0.92
672.303	10.08
672.334	-5.92
672.365	-4.92
672.396	-2.92
672.427	-2.92
672.459	-9.92
672.49	9.08
672.521	6.08
672.552	10.08
672.583	8.08
672.615	-6.92
672.646	13.08
672.677	2.08
672.708	-0.92
672.739	-10.92
672.77	10.08
672.802	1.08
672.833	-10.92
672.864	-7.92
672.895	-1.92
672.926	-4.92
672.957	-0.92
672.989	-4.92
673.02	0.08
673.051	-8.92
673.082	11.08
673.113	-1.92
673.144	1.08
673.175	-15.92
673.206	-22.92
673.238	-18.92
673.269	-3.92
673.3	-17.92
673.331	1.08
673.362	-2.92
673.393	0.08
673.424	-3.92
673.455	10.08
673.487	-10.92
673.518	8.08
673.549	-22.92
673.58	-8.92
673.611	1.08
673.642	-10.92
673.673	-31.92
673.704	7.08
673.735	-11.92
673.766	-10.92
673.797	-5.92
673.828	3.08
673.86	-8.92
673.891	-10.92
673.922	-4.92
673.953	-0.92
673.984	-1.92
674.015	2.08
674.046	6.08
674.077	6.08
674.108	-24.92
674.139	-8.92
674.17	-12.92
674.201	-8.92
674.232	-12.92
674.263	3.08
674.294	-5.92
674.325	-1.92
674.356	9.08
674.387	6.08
674.418	-8.92
674.449	5.08
674.48	-0.92
674.511	-0.92
674.542	8.08
674.573	-12.92
674.604	-1.92
674.635	-14.92
674.666	-6.92
674.697	-11.92
674.728	-2.92
674.759	0.08
674.79	-8.92
674.821	-20.92
674.852	-13.92
674.883	-10.92
674.914	-3.92
674.945	-8.92
674.976	-2.92
675.007	-16.92
675.038	-20.92
675.069	-14.92
675.1	-5.92
675.131	3.08
675.162	-14.92
675.193	-11.92
675.224	-0.92
675.254	6.08
675.285	4.08
675.316	7.08
675.347	-4.92
675.378	-11.92
675.409	-9.92
675.44	-4.92
675.471	3.08
675.502	1.08
675.533	-6.92
675.564	-11.92
675.595	-11.92
675.625	15.08
675.656	-5.92
675.687	-10.92
675.718	-14.92
675.749	-7.92
675.78	-4.92
675.811	11.08
675.842	10.08
675.873	-10.92
675.903	-3.92
675.934	11.08
675.965	-5.92
675.996	-3.92
676.027	-0.92
676.058	-4.92
676.089	-30.92
676.119	-4.92
676.15	-15.92
676.181	-6.92
676.212	-1.92
676.243	-7.92
676.274	-23.92
676.304	-0.92
676.335	-18.92
676.366	-13.92
676.397	5.08
676.428	0.08
676.459	-10.92
676.489	14.08
676.52	19.08
676.551	-13.92
676.582	-18.92
676.613	-5.92
676.643	-8.92
676.674	-1.92
676.705	-2.92
676.736	15.08
676.767	12.08
676.797	12.08
676.828	-18.92
676.859	3.08
676.89	2.08
676.92	7.08
676.951	8.08
676.982	20.08
677.013	-12.92
677.044	12.08
677.074	2.08
677.105	-2.92
677.136	-2.92
677.167	-11.92
677.197	16.08
677.228	-9.92
677.259	-16.92
677.289	-12.92
677.32	-0.92
677.351	-4.92
677.382	0.08
677.412	-3.92
677.443	8.08
677.474	-0.92
677.505	-28.92
677.535	-9.92
677.566	-22.92
677.597	-1.92
677.627	-17.92
677.658	-28.92
677.689	-15.92
677.72	-1.92
677.75	1.08
677.781	-6.92
677.812	-1.92
677.842	3.08
677.873	21.08
677.904	-8.92
677.934	1.08
677.965	-11.92
677.996	-17.92
678.026	-6.92
678.057	-9.92
678.088	-17.92
678.118	2.08
678.149	-25.92
678.18	-4.92
678.21	-5.92
678.241	9.08
678.272	-10.92
678.302	-17.92
678.333	16.08
678.363	-0.92
678.394	-12.92
678.425	-2.92
678.455	2.08
678.486	10.08
678.517	-0.92
678.547	3.08
678.578	8.08
678.608	-21.92
678.639	10.08
678.67	-5.92
678.7	-2.92
678.731	-9.92
678.761	-1.92
678.792	-0.92
678.823	0.08
678.853	2.08
678.884	-24.92
678.914	-9.92
678.945	6.08
678.975	-10.92
679.006	-5.92
679.037	-5.92
679.067	18.08
679.098	1.08
679.128	-14.92
679.159	11.08
679.189	26.08
679.22	-0.92
679.25	6.08
679.281	-3.92
679.312	8.08
679.342	-9.92
679.373	28.08
679.403	-12.92
679.434	4.08
679.464	0.08
679.495	-5.92
679.525	1.08
679.556	-15.92
679.586	4.08
679.617	6.08
679.647	5.08
679.678	-1.92
679.708	-0.92
679.739	0.08
679.769	-8.92
679.8	-2.92
679.83	14.08
679.861	7.08
679.891	8.08
679.922	-12.92
679.952	-4.92
679.983	12.08
680.013	2.08
680.044	-0.92
680.074	8.08
680.105	10.08
680.135	-0.92
680.165	4.08
680.196	4.08
680.226	4.08
680.257	15.08
680.287	0.08
680.318	-10.92
680.348	-9.92
680.379	2.08
680.409	5.08
680.439	-21.92
680.47	-3.92
680.5	-11.92
680.531	-15.92
680.561	7.08
680.592	9.08
680.622	-4.92
680.652	6.08
680.683	13.08
680.713	3.08
680.744	-1.92
680.774	-12.92
680.804	18.08
680.835	-8.92
680.865	-12.92
680.896	7.08
680.926	9.08
680.956	2.08
680.987	-12.92
681.017	-18.92
681.047	6.08
681.078	-17.92
681.108	-5.92
681.139	-3.92
681.169	-0.92
681.199	-14.92
681.23	8.08
681.26	9.08
681.29	14.08
681.321	-22.92
681.351	9.08
681.381	-3.92
681.412	1.08
681.442	-2.92
681.472	10.08
681.503	-7.92
681.533	2.08
681.563	-5.92
681.594	5.08
681.624	-2.92
681.654	-21.92
681.685	-3.92
681.715	-4.92
681.745	-7.92
681.775	-0.92
681.806	5.08
681.836	-4.92
681.866	-2.92
681.897	11.08
681.927	-4.92
681.957	-21.92
681.987	-5.92
682.018	-6.92
682.048	-10.92
682.078	1.08
682.109	11.08
682.139	15.08
682.169	5.08
682.199	-1.92
682.23	-5.92
682.26	-11.92
682.29	-11.92
682.32	-9.92
682.351	-9.92
682.381	12.08
682.411	-15.92
682.441	-13.92
682.472	-5.92
682.502	-4.92
682.532	-14.92
682.562	-6.92
682.592	0.08
682.623	7.08
682.653	-2.92
682.683	0.08
682.713	0.08
682.743	5.08
682.774	-6.92
682.804	5.08
682.834	14.08
682.864	-1.92
682.894	2.08
682.925	-26.92
682.955	-15.92
682.985	-0.92
683.015	-2.92
683.045	10.08
683.076	-24.92
683.106	-19.92
683.136	-3.92
683.166	-11.92
683.196	-7.92
683.226	-0.92
683.257	-13.92
683.287	0.08
683.317	-4.92
683.347	4.08
683.377	-8.92
683.407	1.08
683.437	-7.92
683.468	-2.92
683.498	-0.92
683.528	-6.92
683.558	5.08
683.588	-2.92
683.618	-14.92
683.648	-4.92
683.678	-8.92
683.708	1.08
683.739	10.08
683.769	-1.92
683.799	-0.92
683.829	1.08
683.859	-0.92
683.889	17.08
683.919	-3.92
683.949	-4.92
683.979	-13.92
684.009	-3.92
684.039	9.08
684.07	-6.92
684.1	8.08
684.13	2.08
684.16	4.08
684.19	-18.92
684.22	-7.92
684.25	-1.92
684.28	-11.92
684.31	17.08
684.34	11.08
684.37	-6.92
684.4	-14.92
684.43	-13.92
684.46	-0.92
684.49	13.08
684.52	5.08
684.55	12.08
684.58	8.08
684.61	6.08
684.64	5.08
684.67	18.08
684.7	9.08
684.73	-6.92
684.76	-22.92
684.79	14.08
684.82	1.08
684.85	-16.92
684.88	4.08
684.91	2.08
684.94	-9.92
684.97	-13.92
685	-7.92
685.03	-13.92
685.06	11.08
685.09	-7.92
685.12	10.08
685.15	-15.92
685.18	2.08
685.21	-6.92
685.24	19.08
685.27	18.08
685.3	-0.92
685.33	-3.92
685.36	-12.92
685.39	-0.92
685.42	-4.92
685.45	7.08
685.48	11.08
685.51	-1.92
685.54	14.08
685.569	-3.92
685.599	3.08
685.629	1.08
685.659	-6.92
685.689	-12.92
685.719	1.08
685.749	-2.92
685.779	15.08
685.809	20.08
685.839	6.08
685.869	11.08
685.898	7.08
685.928	3.08
685.958	-6.92
685.988	-12.92
686.018	-2.92
686.048	2.08
686.078	2.08
686.108	17.08
686.137	-5.92
686.167	19.08
686.197	-2.92
686.227	13.08
686.257	20.08
686.287	4.08
686.317	1.08
686.346	-6.92
686.376	-13.92
686.406	7.08
686.436	6.08
686.466	5.08
686.496	10.08
686.525	7.08
686.555	1.08
686.585	18.08
686.615	14.08
686.645	4.08
686.675	2.08
686.704	9.08
686.734	4.08
686.764	-8.92
686.794	-5.92
686.824	-5.92
686.853	7.08
686.883	7.08
686.913	3.08
686.943	-9.92
686.973	-19.92
687.002	-0.92
687.032	-5.92
687.062	-15.92
687.092	13.08
687.121	-6.92
687.151	-0.92
687.181	2.08
687.211	5.08
687.24	-8.92
687.27	-24.92
687.3	3.08
687.33	-1.92
687.359	-6.92
687.389	3.08
687.419	-12.92
687.449	-11.92
687.478	11.08
687.508	-0.92
687.538	-4.92
687.568	-13.92
687.597	-9.92
687.627	4.08
687.657	8.08
687.686	8.08
687.716	13.08
687.746	-8.92
687.776	-3.92
687.805	6.08
687.835	3.08
687.865	8.08
687.894	-4.92
687.924	-4.92
687.954	2.08
687.983	0.08
688.013	-5.92
688.043	11.08
688.072	8.08
688.102	21.08
688.132	-13.92
688.161	-10.92
688.191	1.08
688.221	25.08
688.25	-8.92
688.28	-0.92
688.31	1.08
688.339	-8.92
688.369	-9.92
688.399	1.08
688.428	-16.92
688.458	-6.92
688.488	0.08
688.517	16.08
688.547	11.08
688.576	17.08
688.606	-1.92
688.636	-17.92
688.665	-0.92
688.695	14.08
688.725	2.08
688.754	-1.92
688.784	-10.92
688.813	9.08
688.843	2.08
688.873	9.08
688.902	-22.92
688.932	-14.92
688.961	-10.92
688.991	4.08
689.02	-0.92
689.05	-6.92
689.08	22.08
689.109	9.08
689.139	8.08
689.168	18.08
689.198	2.08
689.227	-9.92
689.257	9.08
689.287	5.08
689.316	-3.92
689.346	-6.92
689.375	-9.92
689.405	3.08
689.434	-14.92
689.464	8.08
689.493	-2.92
689.523	-16.92
689.552	1.08
689.582	2.08
689.611	-7.92
689.641	-0.92
689.67	-1.92
689.7	7.08
689.73	12.08
689.759	0.08
689.789	22.08
689.818	2.08
689.848	-8.92
689.877	14.08
689.906	-14.92
689.936	-5.92
689.965	21.08
689.995	-1.92
690.024	5.08
690.054	-9.92
690.083	1.08
690.113	-4.92
690.142	-1.92
690.172	11.08
690.201	-4.92
690.231	2.08
690.26	16.08
690.29	3.08
690.319	10.08
690.348	-2.92
690.378	6.08
690.407	2.08
690.437	-5.92
690.466	-0.92
690.496	-15.92
690.525	-4.92
690.555	-3.92
690.584	-4.92
690.613	2.08
690.643	-4.92
690.672	17.08
690.702	7.08
690.731	6.08
690.76	15.08
690.79	47.08
690.819	36.08
690.849	33.08
690.878	20.08
690.907	15.08
690.937	24.08
690.966	23.08
690.996	-11.92
691.025	11.08
691.054	6.08
691.084	-0.92
691.113	6.08
691.142	3.08
691.172	17.08
691.201	19.08
691.23	-3.92
691.26	23.08
691.289	-2.92
691.319	-15.92
691.348	-5.92
691.377	13.08
691.407	-0.92
691.436	5.08
691.465	4.08
691.495	-1.92
691.524	-13.92
691.553	-3.92
691.583	-1.92
691.612	19.08
691.641	-3.92
691.67	-3.92
691.7	4.08
691.729	-12.92
691.758	-5.92
691.788	4.08
691.817	-10.92
691.846	-2.92
691.876	3.08
691.905	7.08
691.934	2.08
691.963	19.08
691.993	-4.92
692.022	-14.92
692.051	-18.92
692.081	12.08
692.11	26.08
692.139	12.08
692.168	-1.92
692.198	16.08
692.227	11.08
692.256	-2.92
692.285	0.08
692.315	3.08
692.344	-6.92
692.373	-9.92
692.402	-19.92
692.432	-6.92
692.461	11.08
692.49	7.08
692.519	0.08
692.548	13.08
692.578	-11.92
692.607	-18.92
692.636	-17.92
692.665	3.08
692.694	-6.92
692.724	6.08
692.753	3.08
692.782	19.08
692.811	-5.92
692.84	6.08
692.87	-2.92
692.899	5.08
692.928	-11.92
692.957	13.08
692.986	6.08
693.016	4.08
693.045	13.08
693.074	20.08
693.103	2.08
693.132	10.08
693.161	-0.92
693.191	-4.92
693.22	-9.92
693.249	-0.92
693.278	-5.92
693.307	5.08
693.336	-10.92
693.365	-9.92
693.395	-4.92
693.424	12.08
693.453	15.08
693.482	-3.92
693.511	6.08
693.54	-0.92
693.569	1.08
693.598	-10.92
693.628	-1.92
693.657	10.08
693.686	11.08
693.715	21.08
693.744	21.08
693.773	15.08
693.802	8.08
693.831	-19.92
693.86	1.08
693.889	-13.92
693.919	1.08
693.948	-6.92
693.977	-2.92
694.006	-0.92
694.035	-2.92
694.064	-7.92
694.093	-7.92
694.122	-12.92
694.151	-16.92
694.18	2.08
694.209	26.08
694.238	6.08
694.267	24.08
694.296	17.08
694.325	3.08
694.354	12.08
694.383	4.08
694.412	-3.92
694.441	-9.92
694.471	-5.92
694.5	-27.92
694.529	5.08
694.558	6.08
694.587	4.08
694.616	-2.92
694.645	-2.92
694.674	-1.92
694.703	1.08
694.732	7.08
694.761	5.08
694.79	10.08
694.819	-18.92
694.848	7.08
694.877	14.08
694.906	16.08
694.935	-1.92
694.963	11.08
694.992	-5.92
695.021	2.08
695.05	7.08
695.079	9.08
695.108	-7.92
695.137	13.08
695.166	8.08
695.195	-9.92
695.224	1.08
695.253	-9.92
695.282	-9.92
695.311	8.08
695.34	-5.92
695.369	0.08
695.398	-4.92
695.427	14.08
695.456	-8.92
695.485	-11.92
695.513	2.08
695.542	11.08
695.571	-10.92
695.6	10.08
695.629	5.08
695.658	17.08
695.687	7.08
695.716	6.08
695.745	17.08
695.774	-0.92
695.802	-6.92
695.831	11.08
695.86	7.08
695.889	12.08
695.918	0.08
695.947	-9.92
695.976	-1.92
696.005	-20.92
696.033	5.08
696.062	10.08
696.091	-9.92
696.12	-1.92
696.149	24.08
696.178	4.08
696.207	-2.92
696.235	-17.92
696.264	-2.92
696.293	4.08
696.322	-0.92
696.351	13.08
696.38	-1.92
696.408	6.08
696.437	-5.92
696.466	3.08
696.495	-0.92
696.524	16.08
696.553	-7.92
696.581	12.08
696.61	-6.92
696.639	-13.92
696.668	11.08
696.697	-3.92
696.725	8.08
696.754	8.08
696.783	-10.92
696.812	-10.92
696.84	6.08
696.869	-8.92
696.898	-5.92
696.927	3.08
696.956	19.08
696.984	-2.92
697.013	7.08
697.042	-1.92
697.071	1.08
697.099	4.08
697.128	3.08
697.157	-1.92
697.186	-5.92
697.214	13.08
697.243	-0.92
697.272	-3.92
697.301	-0.92
697.329	-6.92
697.358	-12.92
697.387	14.08
697.415	6.08
697.444	-5.92
697.473	-4.92
697.502	-0.92
697.53	2.08
697.559	3.08
697.588	-10.92
697.616	-2.92
697.645	5.08
697.674	5.08
697.703	3.08
697.731	-0.92
697.76	7.08
697.789	-8.92
697.817	0.08
697.846	19.08
697.875	11.08
697.903	20.08
697.932	11.08
697.961	14.08
697.989	6.08
698.018	15.08
698.047	0.08
698.075	3.08
698.104	4.08
698.133	-0.92
698.161	-18.92
698.19	5.08
698.218	0.08
698.247	10.08
698.276	1.08
698.304	16.08
698.333	1.08
698.362	5.08
698.39	2.08
698.419	5.08
698.447	-0.92
698.476	-10.92
698.505	1.08
698.533	14.08
698.562	12.08
698.591	-9.92
698.619	-13.92
698.648	-2.92
698.676	16.08
698.705	0.08
698.733	-14.92
698.762	7.08
698.791	7.08
698.819	-1.92
698.848	-0.92
698.876	0.08
698.905	-7.92
698.933	4.08
698.962	2.08
698.991	9.08
699.019	6.08
699.048	-7.92
699.076	-0.92
699.105	-17.92
699.133	4.08
699.162	7.08
699.19	15.08
699.219	1.08
699.248	-3.92
699.276	-4.92
699.305	-1.92
699.333	14.08
699.362	4.08
699.39	6.08
699.419	2.08
699.447	7.08
699.476	3.08
699.504	6.08
699.533	9.08
699.561	-1.92
699.59	-7.92
699.618	0.08
699.647	1.08
699.675	-9.92
699.704	19.08
699.732	15.08
699.761	8.08
699.789	-2.92
699.818	-12.92
699.846	14.08
699.874	-6.92
699.903	-5.92
699.931	-11.92
699.96	-5.92
699.988	3.08
700.017	10.08
700.045	5.08
700.074	-1.92
700.102	3.08
700.13	-7.92
700.159	11.08
700.187	-3.92
700.216	-18.92
700.244	-14.92
700.273	-26.92
700.301	5.08
700.329	12.08
700.358	20.08
700.386	-8.92
700.415	7.08
700.443	-3.92
700.472	0.08
700.5	3.08
700.528	6.08
700.557	8.08
700.585	-4.92
700.614	8.08
700.642	7.08
700.67	23.08
700.699	7.08
700.727	1.08
700.755	0.08
700.784	1.08
700.812	-5.92
700.841	14.08
700.869	12.08
700.897	-10.92
700.926	-12.92
700.954	9.08
700.982	12.08
701.011	19.08
701.039	8.08
701.067	0.08
701.096	-10.92
701.124	-2.92
701.152	2.08
701.181	-1.92
701.209	-5.92
701.237	-1.92
701.266	-7.92
701.294	7.08
701.322	1.08
701.351	19.08
701.379	-2.92
701.407	-9.92
701.435	-4.92
701.464	15.08
701.492	27.08
701.52	-11.92
701.549	13.08
701.577	-11.92
701.605	-8.92
701.634	-8.92
701.662	21.08
701.69	-6.92
701.718	-12.92
701.747	16.08
701.775	-3.92
701.803	-3.92
701.831	0.08
701.86	-22.92
701.888	18.08
701.916	-2.92
701.944	-3.92
701.973	0.08
702.001	-22.92
702.029	-7.92
702.057	-8.92
702.086	-19.92
702.114	-6.92
702.142	-1.92
702.17	-6.92
702.199	-2.92
702.227	8.08
702.255	-10.92
702.283	-5.92
702.311	3.08
702.34	-5.92
702.368	-19.92
702.396	-8.92
702.424	-1.92
702.452	-2.92
702.481	7.08
702.509	5.08
702.537	11.08
702.565	6.08
702.593	-13.92
702.621	-26.92
702.65	1.08
702.678	-2.92
702.706	11.08
702.734	-6.92
702.762	9.08
702.79	-5.92
702.819	-5.92
702.847	1.08
702.875	-3.92
702.903	9.08
702.931	-8.92
702.959	-4.92
702.988	-3.92
703.016	-13.92
703.044	1.08
703.072	2.08
703.1	-14.92
703.128	-10.92
703.156	-1.92
703.184	-11.92
703.212	6.08
703.241	-2.92
703.269	-4.92
703.297	-9.92
703.325	1.08
703.353	-14.92
703.381	-2.92
703.409	-4.92
703.437	1.08
703.465	-5.92
703.493	-9.92
703.522	3.08
703.55	8.08
703.578	8.08
703.606	-15.92
703.634	-16.92
703.662	-6.92
703.69	-0.92
703.718	14.08
703.746	10.08
703.774	-3.92
703.802	23.08
703.83	-1.92
703.858	-10.92
703.886	-20.92
703.914	-17.92
703.942	7.08
703.97	-2.92
703.998	-6.92
704.027	11.08
704.055	12.08
704.083	5.08
704.111	-4.92
704.139	2.08
704.167	7.08
704.195	15.08
704.223	-7.92
704.251	-13.92
704.279	11.08
704.307	-5.92
704.335	3.08
704.363	1.08
704.391	-0.92
704.419	-8.92
704.447	-4.92
704.475	-6.92
704.503	-7.92
704.531	-5.92
704.558	12.08
704.586	5.08
704.614	5.08
704.642	8.08
704.67	-13.92
704.698	-19.92
704.726	-5.92
704.754	2.08
704.782	-10.92
704.81	1.08
704.838	31.08
704.866	5.08
704.894	-17.92
704.922	-11.92
704.95	12.08
704.978	11.08
705.006	20.08
705.034	19.08
705.061	-15.92
705.089	0.08
705.117	-7.92
705.145	12.08
705.173	6.08
705.201	-12.92
705.229	8.08
705.257	8.08
705.285	1.08
705.313	-5.92
705.34	-7.92
705.368	-17.92
705.396	9.08
705.424	10.08
705.452	-9.92
705.48	5.08
705.508	-1.92
705.536	5.08
705.563	-2.92
705.591	2.08
705.619	6.08
705.647	-7.92
705.675	1.08
705.703	6.08
705.731	13.08
705.758	-2.92
705.786	14.08
705.814	21.08
705.842	-4.92
705.87	5.08
705.898	19.08
705.925	9.08
705.953	13.08
705.981	-4.92
706.009	-10.92
706.037	-13.92
706.065	-11.92
706.092	-4.92
706.12	0.08
706.148	4.08
706.176	7.08
706.204	7.08
706.231	-6.92
706.259	-21.92
706.287	-3.92
706.315	3.08
706.342	-3.92
706.37	7.08
706.398	-4.92
706.426	3.08
706.454	-6.92
706.481	8.08
706.509	0.08
706.537	-1.92
706.565	0.08
706.592	-1.92
706.62	26.08
706.648	-4.92
706.676	-16.92
706.703	-5.92
706.731	-2.92
706.759	-3.92
706.787	-2.92
706.814	8.08
706.842	-1.92
706.87	7.08
706.897	-3.92
706.925	-5.92
706.953	-0.92
706.981	8.08
707.008	11.08
707.036	-1.92
707.064	0.08
707.091	-16.92
707.119	7.08
707.147	-0.92
707.174	-9.92
707.202	-6.92
707.23	-6.92
707.258	-4.92
707.285	-6.92
707.313	-2.92
707.341	-6.92
707.368	-8.92
707.396	-5.92
707.424	14.08
707.451	-2.92
707.479	5.08
707.507	-20.92
707.534	-18.92
707.562	-14.92
707.59	-7.92
707.617	-17.92
707.645	5.08
707.672	-5.92
707.7	-6.92
707.728	14.08
707.755	4.08
707.783	1.08
707.811	8.08
707.838	-12.92
707.866	-0.92
707.893	-8.92
707.921	-2.92
707.949	-0.92
707.976	-8.92
708.004	-0.92
708.031	6.08
708.059	-7.92
708.087	-1.92
708.114	-15.92
708.142	-18.92
708.169	-13.92
708.197	-13.92
708.225	5.08
708.252	-9.92
708.28	12.08
708.307	-12.92
708.335	11.08
708.362	1.08
708.39	-3.92
708.418	-14.92
708.445	-27.92
708.473	-7.92
708.5	-1.92
708.528	15.08
708.555	-13.92
708.583	5.08
708.61	-2.92
708.638	7.08
708.665	-7.92
708.693	-5.92
708.72	-1.92
708.748	-4.92
708.776	5.08
708.803	25.08
708.831	11.08
708.858	6.08
708.886	2.08
708.913	3.08
708.941	0.08
708.968	14.08
708.996	-6.92
709.023	35.08
709.051	1.08
709.078	-1.92
709.105	-9.92
709.133	-3.92
709.16	7.08
709.188	20.08
709.215	-0.92
709.243	-6.92
709.27	-8.92
709.298	-4.92
709.325	-19.92
709.353	-0.92
709.38	-9.92
709.408	6.08
709.435	2.08
709.462	8.08
709.49	1.08
709.517	4.08
709.545	-1.92
709.572	-11.92
709.6	-1.92
709.627	-1.92
709.655	-0.92
709.682	-4.92
709.709	-7.92
709.737	7.08
709.764	-8.92
709.792	4.08
709.819	-5.92
709.846	-3.92
709.874	6.08
709.901	14.08
709.929	11.08
709.956	5.08
709.983	-6.92
710.011	-16.92
710.038	-2.92
710.066	3.08
710.093	10.08
710.12	15.08
710.148	-5.92
710.175	-13.92
710.202	-4.92
710.23	5.08
710.257	-7.92
710.284	-0.92
710.312	0.08
710.339	-4.92
710.366	1.08
710.394	2.08
710.421	-9.92
710.448	-5.92
710.476	-14.92
710.503	-1.92
710.53	8.08
710.558	-0.92
710.585	18.08
710.612	5.08
710.64	12.08
710.667	5.08
710.694	2.08
710.722	2.08
710.749	4.08
710.776	-9.92
710.804	9.08
710.831	-5.92
710.858	-0.92
710.885	-3.92
710.913	-5.92
710.94	8.08
710.967	10.08
710.995	-0.92
711.022	-6.92
711.049	-5.92
711.076	-19.92
711.104	-16.92
711.131	-19.92
711.158	2.08
711.185	17.08
711.213	-10.92
711.24	-7.92
711.267	-3.92
711.294	-7.92
711.322	10.08
711.349	5.08
711.376	7.08
711.403	14.08
711.431	5.08
711.458	-0.92
711.485	-11.92
711.512	-5.92
711.54	-8.92
711.567	-2.92
711.594	-3.92
711.621	-13.92
711.648	4.08
711.676	5.08
711.703	-0.92
711.73	-3.92
711.757	5.08
711.784	5.08
711.812	-9.92
711.839	2.08
711.866	0.08
711.893	-18.92
711.92	4.08
711.947	-2.92
711.975	1.08
712.002	9.08
712.029	4.08
712.056	-9.92
712.083	-4.92
712.11	-6.92
712.138	6.08
712.165	1.08
712.192	-13.92
712.219	-9.92
712.246	-9.92
712.273	-11.92
712.3	-4.92
712.328	-3.92
712.355	9.08
712.382	-10.92
712.409	1.08
712.436	-19.92
712.463	13.08
712.49	5.08
712.517	-4.92
712.544	-13.92
712.572	4.08
712.599	-16.92
712.626	-6.92
712.653	-15.92
712.68	-5.92
712.707	12.08
712.734	5.08
712.761	-15.92
712.788	-12.92
712.815	-10.92
712.842	6.08
712.87	3.08
712.897	-31.92
712.924	-6.92
712.951	0.08
712.978	11.08
713.005	4.08
713.032	3.08
713.059	-4.92
713.086	-2.92
713.113	-12.92
713.14	-4.92
713.167	3.08
713.194	-8.92
713.221	-13.92
713.248	8.08
713.275	-5.92
713.302	-4.92
713.329	9.08
713.356	0.08
713.383	2.08
713.41	6.08
713.437	-7.92
713.464	10.08
713.491	5.08
713.518	-5.92
713.545	-9.92
713.572	7.08
713.599	21.08
713.626	7.08
713.653	22.08
713.68	-3.92
713.707	-4.92
713.734	5.08
713.761	-2.92
713.788	7.08
713.815	16.08
713.842	1.08
713.869	-2.92
713.896	1.08
713.923	-5.92
713.95	-13.92
713.977	-5.92
714.004	-9.92
714.031	-11.92
714.058	-12.92
714.085	-8.92
714.112	-3.92
714.139	-10.92
714.165	-10.92
714.192	-0.92
714.219	-1.92
714.246	9.08
714.273	1.08
714.3	2.08
714.327	-2.92
714.354	13.08
714.381	-1.92
714.408	-3.92
714.435	2.08
714.461	-0.92
714.488	12.08
714.515	-5.92
714.542	-12.92
714.569	-19.92
714.596	-5.92
714.623	-2.92
714.65	-7.92
714.677	-8.92
714.703	-0.92
714.73	-7.92
714.757	-4.92
714.784	8.08
714.811	-7.92
714.838	-6.92
714.865	-6.92
714.891	1.08
714.918	7.08
714.945	-13.92
714.972	1.08
714.999	19.08
715.026	-2.92
715.052	8.08
715.079	3.08
715.106	-2.92
715.133	-7.92
715.16	1.08
715.187	1.08
715.213	3.08
715.24	-15.92
715.267	4.08
715.294	2.08
715.321	7.08
715.347	-1.92
715.374	-7.92
715.401	-16.92
715.428	3.08
715.455	-2.92
715.481	-5.92
715.508	29.08
715.535	-3.92
715.562	18.08
715.588	-11.92
715.615	-0.92
715.642	-4.92
715.669	8.08
715.695	-5.92
715.722	-11.92
715.749	-5.92
715.776	19.08
715.802	-5.92
715.829	7.08
715.856	-13.92
715.883	2.08
715.909	-5.92
715.936	10.08
715.963	-6.92
715.99	-21.92
716.016	-1.92
716.043	2.08
716.07	-10.92
716.096	-20.92
716.123	-4.92
716.15	-11.92
716.177	-5.92
716.203	8.08
716.23	15.08
716.257	20.08
716.283	-0.92
716.31	1.08
716.337	3.08
716.363	-2.92
716.39	-4.92
716.417	8.08
716.443	2.08
716.47	3.08
716.497	6.08
716.523	7.08
716.55	2.08
716.577	10.08
716.603	-6.92
716.63	-19.92
716.657	10.08
716.683	-5.92
716.71	-8.92
716.737	-3.92
716.763	-1.92
716.79	4.08
716.817	1.08
716.843	-1.92
716.87	-1.92
716.897	1.08
716.923	7.08
716.95	2.08
716.976	-14.92
717.003	-10.92
717.03	5.08
717.056	17.08
717.083	5.08
717.109	-8.92
717.136	3.08
717.163	-2.92
717.189	9.08
717.216	-0.92
717.242	-2.92
717.269	8.08
717.296	6.08
717.322	0.08
717.349	10.08
717.375	-0.92
717.402	-5.92
717.428	-9.92
717.455	-3.92
717.481	-11.92
717.508	-4.92
717.535	3.08
717.561	-2.92
717.588	8.08
717.614	-6.92
717.641	-8.92
717.667	10.08
717.694	-9.92
717.72	-5.92
717.747	-9.92
717.773	-10.92
717.8	2.08
717.826	-1.92
717.853	7.08
717.88	13.08
717.906	-9.92
717.933	-0.92
717.959	8.08
717.986	-2.92
718.012	4.08
718.039	8.08
718.065	-5.92
718.092	1.08
718.118	-8.92
718.144	-16.92
718.171	17.08
718.197	-5.92
718.224	-9.92
718.25	5.08
718.277	3.08
718.303	9.08
718.33	-5.92
718.356	-17.92
718.383	-26.92
718.409	-16.92
718.436	-3.92
718.462	-5.92
718.489	-7.92
718.515	9.08
718.541	3.08
718.568	5.08
718.594	-8.92
718.621	6.08
718.647	0.08
718.674	3.08
718.7	-7.92
718.726	-18.92
718.753	2.08
718.779	6.08
718.806	-14.92
718.832	-3.92
718.858	-1.92
718.885	-4.92
718.911	14.08
718.938	-5.92
718.964	-19.92
718.99	5.08
719.017	5.08
719.043	15.08
719.07	3.08
719.096	-6.92
719.122	1.08
719.149	7.08
719.175	4.08
719.201	-3.92
719.228	3.08
719.254	2.08
719.281	5.08
719.307	-6.92
719.333	-3.92
719.36	19.08
719.386	1.08
719.412	0.08
719.439	-0.92
719.465	-5.92
719.491	-7.92
719.518	6.08
719.544	-12.92
719.57	13.08
719.597	-6.92
719.623	-2.92
719.649	-4.92
719.675	-9.92
719.702	3.08
719.728	3.08
719.754	-7.92
719.781	-13.92
719.807	-19.92
719.833	-6.92
719.86	-6.92
719.886	0.08
719.912	-1.92
719.938	-11.92
719.965	-12.92
719.991	10.08
720.017	-0.92
720.044	-11.92
720.07	-0.92
720.096	-1.92
720.122	-5.92
720.149	10.08
720.175	17.08
720.201	1.08
720.227	-0.92
720.254	1.08
720.28	-4.92
720.306	-1.92
720.332	12.08
720.359	-5.92
720.385	7.08
720.411	-6.92
720.437	-1.92
720.463	9.08
720.49	13.08
720.516	-6.92
720.542	-1.92
720.568	12.08
720.595	0.08
720.621	-0.92
720.647	-7.92
720.673	4.08
720.699	-5.92
720.725	10.08
720.752	9.08
720.778	7.08
720.804	8.08
720.83	5.08
720.856	11.08
720.883	-9.92
720.909	-3.92
720.935	10.08
720.961	29.08
720.987	9.08
721.013	-8.92
721.04	-1.92
721.066	2.08
721.092	-2.92
721.118	11.08
721.144	1.08
721.17	0.08
721.196	-3.92
721.223	-23.92
721.249	-13.92
721.275	-2.92
721.301	-5.92
721.327	0.08
721.353	-0.92
721.379	11.08
721.405	9.08
721.432	-4.92
721.458	-14.92
721.484	-4.92
721.51	-9.92
721.536	2.08
721.562	2.08
721.588	-2.92
721.614	-19.92
721.64	-18.92
721.666	-10.92
721.693	-1.92
721.719	3.08
721.745	-12.92
721.771	-1.92
721.797	7.08
721.823	-4.92
721.849	9.08
721.875	7.08
721.901	0.08
721.927	-10.92
721.953	-8.92
721.979	7.08
722.005	7.08
722.031	-4.92
722.057	5.08
722.083	5.08
722.109	-6.92
722.135	8.08
722.161	-6.92
722.187	-4.92
722.214	-7.92
722.24	4.08
722.266	-6.92
722.292	2.08
722.318	-0.92
722.344	-6.92
722.37	11.08
722.396	16.08
722.422	0.08
722.448	-2.92
722.474	-19.92
722.5	10.08
722.526	1.08
722.552	7.08
722.578	-13.92
722.603	5.08
722.629	-2.92
722.655	10.08
722.681	-3.92
722.707	2.08
722.733	2.08
722.759	-14.92
722.785	-12.92
722.811	5.08
722.837	-12.92
722.863	3.08
722.889	0.08
722.915	-5.92
722.941	-6.92
722.967	-2.92
722.993	10.08
723.019	4.08
723.045	2.08
723.071	3.08
723.097	9.08
723.122	3.08
723.148	-7.92
723.174	-9.92
723.2	5.08
723.226	-6.92
723.252	8.08
723.278	-9.92
723.304	-14.92
723.33	0.08
723.356	-13.92
723.381	-9.92
723.407	-21.92
723.433	11.08
723.459	1.08
723.485	-0.92
723.511	-4.92
723.537	4.08
723.563	1.08
723.588	-1.92
723.614	10.08
723.64	7.08
723.666	6.08
723.692	27.08
723.718	1.08
723.744	5.08
723.769	-1.92
723.795	-13.92
723.821	9.08
723.847	-14.92
723.873	4.08
723.899	12.08
723.924	-2.92
723.95	-1.92
723.976	-11.92
724.002	1.08
724.028	5.08
724.053	-12.92
724.079	5.08
724.105	3.08
724.131	-4.92
724.157	-4.92
724.182	6.08
724.208	-0.92
724.234	-10.92
724.26	-7.92
724.286	18.08
724.311	6.08
724.337	-15.92
724.363	-1.92
724.389	-2.92
724.415	-2.92
724.44	9.08
724.466	-1.92
724.492	1.08
724.518	18.08
724.543	-11.92
724.569	-1.92
724.595	-8.92
724.621	-10.92
724.646	-9.92
724.672	-8.92
724.698	-16.92
724.723	-11.92
724.749	-2.92
724.775	-5.92
724.801	1.08
724.826	5.08
724.852	-3.92
724.878	-13.92
724.904	-13.92
724.929	18.08
724.955	-8.92
724.981	6.08
725.006	-6.92
725.032	-1.92
725.058	5.08
725.083	-10.92
725.109	-18.92
725.135	9.08
725.161	-2.92
725.186	5.08
725.212	-2.92
725.238	-1.92
725.263	1.08
725.289	-15.92
725.315	-11.92
725.34	3.08
725.366	0.08
725.392	-5.92
725.417	2.08
725.443	5.08
725.468	-3.92
725.494	-2.92
725.52	9.08
725.545	-0.92
725.571	-8.92
725.597	-9.92
725.622	-0.92
725.648	-5.92
725.674	5.08
725.699	-20.92
725.725	4.08
725.75	26.08
725.776	-16.92
725.802	3.08
725.827	17.08
725.853	7.08
725.878	1.08
725.904	12.08
725.93	-12.92
725.955	-17.92
725.981	-12.92
726.006	-5.92
726.032	-1.92
726.057	-7.92
726.083	-9.92
726.109	-14.92
726.134	-2.92
726.16	-10.92
726.185	2.08
726.211	-15.92
726.236	2.08
726.262	-10.92
726.288	19.08
726.313	-0.92
726.339	-12.92
726.364	-14.92
726.39	9.08
726.415	-9.92
726.441	-1.92
726.466	-13.92
726.492	-1.92
726.517	-1.92
726.543	-8.92
726.568	-22.92
726.594	7.08
726.619	4.08
726.645	3.08
726.67	17.08
726.696	13.08
726.721	-5.92
726.747	-13.92
726.772	6.08
726.798	6.08
726.823	5.08
726.849	4.08
726.874	17.08
726.9	16.08
726.925	2.08
726.951	-6.92
726.976	17.08
727.002	-11.92
727.027	17.08
727.053	15.08
727.078	-2.92
727.104	-15.92
727.129	-26.92
727.155	2.08
727.18	-0.92
727.205	-8.92
727.231	-6.92
727.256	-25.92
727.282	-6.92
727.307	10.08
727.333	-2.92
727.358	-18.92
727.383	-9.92
727.409	2.08
727.434	16.08
727.46	5.08
727.485	13.08
727.511	5.08
727.536	-1.92
727.561	-3.92
727.587	-9.92
727.612	-12.92
727.637	5.08
727.663	2.08
727.688	12.08
727.714	-11.92
727.739	-8.92
727.764	-17.92
727.79	23.08
727.815	13.08
727.841	-0.92
727.866	4.08
727.891	1.08
727.917	-14.92
727.942	-16.92
727.967	4.08
727.993	-8.92
728.018	-5.92
728.043	6.08
728.069	5.08
728.094	15.08
728.119	-5.92
728.145	9.08
728.17	2.08
728.195	12.08
728.221	16.08
728.246	1.08
728.271	-13.92
728.297	17.08
728.322	7.08
728.347	2.08
728.373	-4.92
728.398	2.08
728.423	-18.92
728.448	-21.92
728.474	-19.92
728.499	7.08
728.524	-6.92
728.55	-22.92
728.575	-5.92
728.6	-5.92
728.625	-1.92
728.651	20.08
728.676	-2.92
728.701	-5.92
728.727	-12.92
728.752	-9.92
728.777	-11.92
728.802	-4.92
728.828	13.08
728.853	3.08
728.878	-4.92
728.903	3.08
728.929	-9.92
728.954	-6.92
728.979	-0.92
729.004	-5.92
729.03	2.08
729.055	5.08
729.08	-5.92
729.105	-4.92
729.13	4.08
729.156	16.08
729.181	1.08
729.206	-20.92
729.231	-4.92
729.256	1.08
729.282	11.08
729.307	-16.92
729.332	-4.92
729.357	-7.92
729.382	6.08
729.408	-6.92
729.433	6.08
729.458	4.08
729.483	6.08
729.508	17.08
729.533	9.08
729.559	2.08
729.584	-7.92
729.609	13.08
729.634	16.08
729.659	-6.92
729.684	-3.92
729.71	1.08
729.735	-6.92
729.76	6.08
729.785	-1.92
729.81	9.08
729.835	-0.92
729.86	-0.92
729.886	21.08
729.911	9.08
729.936	11.08
729.961	21.08
729.986	17.08
730.011	55.08
730.036	202.08
730.061	985.08
730.086	2710.08
730.112	3429.08
730.137	2850.08
730.162	2134.08
730.187	1625.08
730.212	1268.08
730.237	781.08
730.262	448.08
730.287	246.08
730.312	134.08
730.337	83.08
730.362	69.08
730.387	33.08
730.413	25.08
730.438	6.08
730.463	16.08
730.488	0.08
730.513	7.08
730.538	-1.92
730.563	13.08
730.588	17.08
730.613	5.08
730.638	13.08
730.663	2.08
730.688	30.08
730.713	27.08
730.738	-5.92
730.763	-0.92
730.788	-7.92
730.813	-19.92
730.838	-0.92
730.863	-3.92
730.888	-2.92
730.913	-4.92
730.938	-15.92
730.963	21.08
730.988	108.08
731.013	449.08
731.038	650.08
731.063	596.08
731.088	445.08
731.113	337.08
731.138	270.08
731.163	181.08
731.188	113.08
731.213	54.08
731.238	44.08
731.263	18.08
731.288	5.08
731.313	18.08
731.338	18.08
731.363	17.08
731.388	7.08
731.413	-4.92
731.438	23.08
731.463	11.08
731.487	0.08
731.512	-4.92
731.537	-11.92
731.562	6.08
731.587	11.08
731.612	-13.92
731.637	-10.92
731.662	-2.92
731.687	1.08
731.712	-20.92
731.737	4.08
731.762	4.08
731.786	-0.92
731.811	1.08
731.836	-2.92
731.861	-10.92
731.886	0.08
731.911	-8.92
731.936	13.08
731.961	5.08
731.986	-0.92
732.01	0.08
732.035	-6.92
732.06	17.08
732.085	0.08
732.11	-6.92
732.135	-17.92
732.16	-10.92
732.184	0.08
732.209	-4.92
732.234	-2.92
732.259	-10.92
732.284	7.08
732.309	-5.92
732.334	3.08
732.358	-5.92
732.383	-8.92
732.408	-15.92
732.433	-20.92
732.458	-2.92
732.482	4.08
732.507	0.08
732.532	-2.92
732.557	20.08
732.582	7.08
732.607	13.08
732.631	62.08
732.656	100.08
732.681	147.08
732.706	337.08
732.73	465.08
732.755	386.08
732.78	281.08
732.805	229.08
732.83	165.08
732.854	137.08
732.879	94.08
732.904	44.08
732.929	18.08
732.953	14.08
732.978	10.08
733.003	-10.92
733.028	-20.92
733.052	9.08
733.077	-5.92
733.102	-7.92
733.127	-3.92
733.151	-7.92
733.176	10.08
733.201	7.08
733.226	-9.92
733.25	3.08
733.275	10.08
733.3	-11.92
733.324	20.08
733.349	17.08
733.374	17.08
733.399	5.08
733.423	-5.92
733.448	-4.92
733.473	-2.92
733.497	-4.92
733.522	-15.92
733.547	13.08
733.571	10.08
733.596	-2.92
733.621	8.08
733.646	-18.92
733.67	-9.92
733.695	-11.92
733.72	8.08
733.744	3.08
733.769	2.08
733.794	13.08
733.818	-19.92
733.843	-6.92
733.867	-3.92
733.892	2.08
733.917	-3.92
733.941	4.08
733.966	-5.92
733.991	6.08
734.015	15.08
734.04	13.08
734.065	1.08
734.089	17.08
734.114	-2.92
734.138	3.08
734.163	-1.92
734.188	-17.92
734.212	11.08
734.237	-5.92
734.261	-2.92
734.286	-6.92
734.311	2.08
734.335	-4.92
734.36	-7.92
734.384	4.08
734.409	6.08
734.434	-14.92
734.458	4.08
734.483	-21.92
734.507	-18.92
734.532	-14.92
734.556	-17.92
734.581	-14.92
734.606	-11.92
734.63	-12.92
734.655	-5.92
734.679	-5.92
734.704	-2.92
734.728	0.08
734.753	-6.92
734.777	-3.92
734.802	-4.92
734.826	-1.92
734.851	-6.92
734.876	12.08
734.9	3.08
734.925	13.08
734.949	1.08
734.974	-9.92
734.998	-3.92
735.023	-27.92
735.047	-12.92
735.072	11.08
735.096	2.08
735.121	-6.92
735.145	-11.92
735.17	-2.92
735.194	3.08
735.219	-4.92
735.243	-10.92
735.268	2.08
735.292	7.08
735.317	5.08
735.341	-9.92
735.365	-17.92
735.39	-4.92
735.414	6.08
735.439	-0.92
735.463	-19.92
735.488	13.08
735.512	1.08
735.537	-1.92
735.561	-12.92
735.586	-5.92
735.61	-0.92
735.634	-3.92
735.659	-2.92
735.683	17.08
735.708	2.08
735.732	3.08
735.757	-13.92
735.781	7.08
735.805	9.08
735.83	-5.92
735.854	-13.92
735.879	-8.92
735.903	-1.92
735.927	-2.92
735.952	4.08
735.976	-14.92
736.001	-18.92
736.025	-1.92
736.049	4.08
736.074	1.08
736.098	3.08
736.123	5.08
736.147	-18.92
736.171	-10.92
736.196	14.08
736.22	2.08
736.244	-2.92
736.269	13.08
736.293	-7.92
736.317	-4.92
736.342	2.08
736.366	19.08
736.39	16.08
736.415	5.08
736.439	9.08
736.463	8.08
736.488	-9.92
736.512	-12.92
736.536	-1.92
736.561	6.08
736.585	-8.92
736.609	-0.92
736.634	-17.92
736.658	3.08
736.682	-13.92
736.707	-10.92
736.731	-20.92
736.755	6.08
736.78	19.08
736.804	2.08
736.828	8.08
736.852	-4.92
736.877	-8.92
736.901	5.08
736.925	18.08
736.949	0.08
736.974	-12.92
736.998	-2.92
737.022	2.08
737.047	-14.92
737.071	-15.92
737.095	-14.92
737.119	6.08
737.144	4.08
737.168	8.08
737.192	-4.92
737.216	-8.92
737.241	-18.92
737.265	5.08
737.289	1.08
737.313	7.08
737.337	13.08
737.362	-1.92
737.386	-6.92
737.41	-11.92
737.434	2.08
737.459	-10.92
737.483	-2.92
737.507	15.08
737.531	-0.92
737.555	-1.92
737.58	5.08
737.604	-11.92
737.628	-8.92
737.652	-6.92
737.676	-13.92
737.701	5.08
737.725	-8.92
737.749	2.08
737.773	-5.92
737.797	0.08
737.821	17.08
737.846	-2.92
737.87	14.08
737.894	-3.92
737.918	-12.92
737.942	-11.92
737.966	13.08
737.99	0.08
738.015	8.08
738.039	4.08
738.063	-5.92
738.087	6.08
738.111	-0.92
738.135	7.08
738.159	-11.92
738.184	-2.92
738.208	-6.92
738.232	-2.92
738.256	9.08
738.28	13.08
738.304	4.08
738.328	-5.92
738.352	-0.92
738.376	-25.92
738.4	16.08
738.425	11.08
738.449	-8.92
738.473	10.08
738.497	5.08
738.521	13.08
738.545	10.08
738.569	15.08
738.593	0.08
738.617	-10.92
738.641	-5.92
738.665	4.08
738.689	0.08
738.713	-0.92
738.737	7.08
738.762	6.08
738.786	11.08
738.81	-9.92
738.834	4.08
738.858	0.08
738.882	-1.92
738.906	-6.92
738.93	2.08
738.954	-11.92
738.978	3.08
739.002	9.08
739.026	18.08
739.05	8.08
739.074	-4.92
739.098	22.08
739.122	8.08
739.146	-0.92
739.17	12.08
739.194	21.08
739.218	2.08
739.242	1.08
739.266	-11.92
739.29	7.08
739.314	8.08
739.338	2.08
739.362	2.08
739.386	2.08
739.41	-6.92
739.434	-18.92
739.458	-1.92
739.482	11.08
739.506	11.08
739.53	6.08
739.554	6.08
739.577	-4.92
739.601	6.08
739.625	3.08
739.649	6.08
739.673	-11.92
739.697	12.08
739.721	-16.92
739.745	3.08
739.769	5.08
739.793	10.08
739.817	10.08
739.841	-12.92
739.865	1.08
739.889	-11.92
739.912	7.08
739.936	-6.92
739.96	0.08
739.984	8.08
740.008	5.08
740.032	-10.92
740.056	-4.92
740.08	7.08
740.104	0.08
740.127	9.08
740.151	0.08
740.175	8.08
740.199	7.08
740.223	40.08
740.247	16.08
740.271	-9.92
740.295	-18.92
740.318	1.08
740.342	-9.92
740.366	12.08
740.39	2.08
740.414	-3.92
740.438	-17.92
740.461	17.08
740.485	-5.92
740.509	-8.92
740.533	3.08
740.557	-2.92
740.581	-10.92
740.604	-11.92
740.628	-5.92
740.652	6.08
740.676	-7.92
740.7	10.08
740.723	-13.92
740.747	-11.92
740.771	-13.92
740.795	-17.92
740.819	-2.92
740.842	1.08
740.866	-8.92
740.89	1.08
740.914	-10.92
740.938	-8.92
740.961	3.08
740.985	12.08
741.009	5.08
741.033	10.08
741.056	-21.92
741.08	3.08
741.104	-3.92
741.128	-30.92
741.151	12.08
741.175	-6.92
741.199	-0.92
741.223	0.08
741.246	-8.92
741.27	1.08
741.294	1.08
741.318	-17.92
741.341	6.08
741.365	12.08
741.389	-4.92
741.413	-0.92
741.436	1.08
741.46	-2.92
741.484	-2.92
741.507	7.08
741.531	7.08
741.555	6.08
741.579	10.08
741.602	-1.92
741.626	3.08
741.65	-6.92
741.673	-11.92
741.697	14.08
741.721	11.08
741.744	-32.92
741.768	-11.92
741.792	9.08
741.815	-10.92
741.839	9.08
741.863	7.08
741.886	12.08
741.91	1.08
741.934	14.08
741.957	-10.92
741.981	17.08
742.005	4.08
742.028	-18.92
742.052	-18.92
742.075	6.08
742.099	8.08
742.123	-12.92
742.146	-7.92
742.17	-2.92
742.194	-9.92
742.217	-10.92
742.241	-0.92
742.264	-0.92
742.288	32.08
742.312	3.08
742.335	-1.92
742.359	8.08
742.382	1.08
742.406	15.08
742.43	-18.92
742.453	-16.92
742.477	-1.92
742.5	-3.92
742.524	-12.92
742.548	-2.92
742.571	-8.92
742.595	-19.92
742.618	-6.92
742.642	-9.92
742.665	4.08
742.689	6.08
742.712	4.08
742.736	8.08
742.76	-6.92
742.783	-2.92
742.807	-4.92
742.83	-4.92
742.854	-16.92
742.877	-5.92
742.901	-12.92
742.924	-6.92
742.948	-3.92
742.971	14.08
742.995	2.08
743.018	-22.92
743.042	-10.92
743.065	-1.92
743.089	-12.92
743.112	9.08
743.136	2.08
743.159	-5.92
743.183	-1.92
743.206	-1.92
743.23	-5.92
743.253	5.08
743.277	6.08
743.3	-2.92
743.324	-6.92
743.347	2.08
743.371	18.08
743.394	-10.92
743.418	7.08
743.441	19.08
743.465	-9.92
743.488	-1.92
743.512	-17.92
743.535	-5.92
743.558	-3.92
743.582	10.08
743.605	4.08
743.629	-9.92
743.652	0.08
743.676	-3.92
743.699	13.08
743.723	7.08
743.746	7.08
743.769	-5.92
743.793	-12.92
743.816	-11.92
743.84	2.08
743.863	13.08
743.886	-2.92
743.91	-2.92
743.933	12.08
743.957	2.08
743.98	-1.92
744.003	-0.92
744.027	-8.92
744.05	-10.92
744.074	-10.92
744.097	-18.92
744.12	3.08
744.144	-22.92
744.167	2.08
744.19	-5.92
744.214	-6.92
744.237	-10.92
744.26	2.08
744.284	-4.92
744.307	-4.92
744.331	-6.92
744.354	-6.92
744.377	3.08
744.401	-9.92
744.424	-3.92
744.447	-9.92
744.471	-16.92
