Data from HighRes_mercury_15_13_11_07_2024_HR4C61891__61__15-14-29-286.txt Node

Date: Thu Nov 07 15:14:29 EST 2024
User: crc00042
Spectrometer: HR4C6189
Trigger mode: 4
Integration Time (sec): 1.000000E-1
Scans to average: 1
Electric dark correction enabled: true
Nonlinearity correction enabled: false
Boxcar width: 0
XAxis mode: Wavelengths
Number of Pixels in Spectrum: 3648
>>>>>Begin Spectral Data<<<<<
639.567	-62.69
639.602	-62.69
639.636	-62.69
639.67	-30.69
639.704	-25.69
639.738	-5.69
639.773	5.31
639.807	-17.69
639.841	8.31
639.875	3.31
639.909	20.31
639.943	-1.69
639.978	-11.69
640.012	0.31
640.046	1.31
640.08	4.31
640.114	5.31
640.148	-11.69
640.182	-5.69
640.217	-3.69
640.251	11.31
640.285	0.31
640.319	5.31
640.353	6.31
640.387	22.31
640.421	-6.69
640.455	0.31
640.49	-9.69
640.524	-2.69
640.558	-1.69
640.592	-1.69
640.626	0.31
640.66	8.31
640.694	-11.69
640.728	6.31
640.762	10.31
640.796	15.31
640.83	8.31
640.865	-4.69
640.899	1.31
640.933	4.31
640.967	9.31
641.001	3.31
641.035	11.31
641.069	2.31
641.103	6.31
641.137	-8.69
641.171	2.31
641.205	13.31
641.239	-1.69
641.273	8.31
641.307	26.31
641.341	11.31
641.375	-1.69
641.409	5.31
641.443	17.31
641.477	-12.69
641.511	1.31
641.545	0.31
641.579	-8.69
641.614	0.31
641.648	6.31
641.682	-11.69
641.716	4.31
641.75	15.31
641.784	-0.69
641.818	-1.69
641.852	-3.69
641.886	-19.69
641.919	22.31
641.953	10.31
641.987	-4.69
642.021	2.31
642.055	-6.69
642.089	0.31
642.123	-21.69
642.157	0.31
642.191	-1.69
642.225	9.31
642.259	4.31
642.293	19.31
642.327	-3.69
642.361	-4.69
642.395	14.31
642.429	-5.69
642.463	22.31
642.497	26.31
642.531	2.31
642.565	9.31
642.599	9.31
642.633	16.31
642.666	10.31
642.7	18.31
642.734	9.31
642.768	1.31
642.802	-0.69
642.836	14.31
642.87	-2.69
642.904	10.31
642.938	14.31
642.972	6.31
643.005	-5.69
643.039	5.31
643.073	0.31
643.107	6.31
643.141	0.31
643.175	4.31
643.209	5.31
643.243	3.31
643.276	9.31
643.31	-11.69
643.344	-16.69
643.378	4.31
643.412	21.31
643.446	5.31
643.48	2.31
643.513	25.31
643.547	19.31
643.581	1.31
643.615	0.31
643.649	-9.69
643.683	-2.69
643.716	6.31
643.75	6.31
643.784	-4.69
643.818	4.31
643.852	-5.69
643.886	6.31
643.919	18.31
643.953	4.31
643.987	11.31
644.021	8.31
644.055	4.31
644.088	-7.69
644.122	-16.69
644.156	14.31
644.19	34.31
644.224	14.31
644.257	4.31
644.291	-4.69
644.325	4.31
644.359	-0.69
644.392	8.31
644.426	7.31
644.46	0.31
644.494	7.31
644.527	2.31
644.561	7.31
644.595	8.31
644.629	5.31
644.662	4.31
644.696	4.31
644.73	5.31
644.764	-1.69
644.797	-4.69
644.831	-6.69
644.865	9.31
644.899	17.31
644.932	25.31
644.966	-1.69
645	20.31
645.033	16.31
645.067	-9.69
645.101	1.31
645.135	-11.69
645.168	2.31
645.202	-10.69
645.236	6.31
645.269	17.31
645.303	6.31
645.337	-17.69
645.37	0.31
645.404	10.31
645.438	-9.69
645.471	3.31
645.505	4.31
645.539	7.31
645.572	-8.69
645.606	-11.69
645.64	9.31
645.673	1.31
645.707	12.31
645.741	3.31
645.774	-7.69
645.808	6.31
645.842	-13.69
645.875	5.31
645.909	7.31
645.943	-6.69
645.976	1.31
646.01	9.31
646.043	20.31
646.077	20.31
646.111	18.31
646.144	-6.69
646.178	11.31
646.212	-6.69
646.245	-1.69
646.279	-9.69
646.312	3.31
646.346	11.31
646.38	-0.69
646.413	1.31
646.447	18.31
646.48	-2.69
646.514	13.31
646.547	-8.69
646.581	-13.69
646.615	6.31
646.648	-17.69
646.682	-4.69
646.715	-2.69
646.749	1.31
646.782	6.31
646.816	-2.69
646.85	8.31
646.883	-1.69
646.917	30.31
646.95	4.31
646.984	-0.69
647.017	2.31
647.051	-12.69
647.084	8.31
647.118	-16.69
647.151	-4.69
647.185	2.31
647.218	4.31
647.252	10.31
647.285	-16.69
647.319	-5.69
647.353	10.31
647.386	15.31
647.42	-2.69
647.453	-16.69
647.487	-11.69
647.52	-1.69
647.553	-2.69
647.587	-0.69
647.62	9.31
647.654	20.31
647.687	5.31
647.721	-3.69
647.754	6.31
647.788	-1.69
647.821	0.31
647.855	25.31
647.888	17.31
647.922	7.31
647.955	11.31
647.989	11.31
648.022	6.31
648.055	18.31
648.089	18.31
648.122	22.31
648.156	0.31
648.189	-1.69
648.223	1.31
648.256	39.31
648.29	9.31
648.323	3.31
648.356	13.31
648.39	5.31
648.423	-0.69
648.457	5.31
648.49	10.31
648.523	9.31
648.557	5.31
648.59	-0.69
648.624	-8.69
648.657	18.31
648.69	20.31
648.724	18.31
648.757	16.31
648.791	8.31
648.824	3.31
648.857	8.31
648.891	1.31
648.924	5.31
648.957	14.31
648.991	-11.69
649.024	21.31
649.057	3.31
649.091	1.31
649.124	18.31
649.158	14.31
649.191	15.31
649.224	8.31
649.258	13.31
649.291	6.31
649.324	13.31
649.358	-2.69
649.391	3.31
649.424	6.31
649.458	1.31
649.491	-3.69
649.524	-13.69
649.557	-7.69
649.591	-22.69
649.624	10.31
649.657	-4.69
649.691	17.31
649.724	7.31
649.757	2.31
649.791	-8.69
649.824	-2.69
649.857	7.31
649.89	6.31
649.924	-13.69
649.957	-1.69
649.99	1.31
650.023	3.31
650.057	-3.69
650.09	5.31
650.123	-0.69
650.157	24.31
650.19	18.31
650.223	-1.69
650.256	-3.69
650.29	0.31
650.323	0.31
650.356	7.31
650.389	4.31
650.423	-12.69
650.456	14.31
650.489	-4.69
650.522	10.31
650.555	14.31
650.589	14.31
650.622	0.31
650.655	0.31
650.688	-6.69
650.721	4.31
650.755	-13.69
650.788	7.31
650.821	0.31
650.854	11.31
650.887	30.31
650.921	-3.69
650.954	-15.69
650.987	-11.69
651.02	-4.69
651.053	-10.69
651.087	-9.69
651.12	11.31
651.153	12.31
651.186	-3.69
651.219	0.31
651.252	10.31
651.286	19.31
651.319	-5.69
651.352	-2.69
651.385	4.31
651.418	1.31
651.451	2.31
651.484	-1.69
651.518	-5.69
651.551	17.31
651.584	-0.69
651.617	15.31
651.65	-1.69
651.683	6.31
651.716	-3.69
651.749	-5.69
651.783	0.31
651.816	-0.69
651.849	1.31
651.882	16.31
651.915	-1.69
651.948	0.31
651.981	-14.69
652.014	-6.69
652.047	-2.69
652.08	1.31
652.114	-3.69
652.147	-6.69
652.18	7.31
652.213	13.31
652.246	1.31
652.279	-10.69
652.312	16.31
652.345	-2.69
652.378	7.31
652.411	11.31
652.444	4.31
652.477	3.31
652.51	1.31
652.543	-12.69
652.576	-1.69
652.609	-22.69
652.642	-3.69
652.675	2.31
652.709	-3.69
652.742	2.31
652.775	-5.69
652.808	5.31
652.841	0.31
652.874	5.31
652.907	0.31
652.94	0.31
652.973	-13.69
653.006	-23.69
653.039	0.31
653.072	16.31
653.105	-6.69
653.138	-28.69
653.171	-15.69
653.204	2.31
653.237	5.31
653.27	5.31
653.303	-5.69
653.336	2.31
653.368	1.31
653.401	12.31
653.434	-7.69
653.467	-6.69
653.5	-17.69
653.533	-14.69
653.566	-2.69
653.599	-13.69
653.632	9.31
653.665	5.31
653.698	-16.69
653.731	-9.69
653.764	18.31
653.797	-6.69
653.83	3.31
653.863	1.31
653.896	3.31
653.929	11.31
653.961	28.31
653.994	19.31
654.027	-2.69
654.06	11.31
654.093	-7.69
654.126	6.31
654.159	-2.69
654.192	7.31
654.225	12.31
654.258	6.31
654.29	1.31
654.323	7.31
654.356	-7.69
654.389	-6.69
654.422	7.31
654.455	-7.69
654.488	6.31
654.521	-7.69
654.553	-18.69
654.586	-2.69
654.619	-7.69
654.652	4.31
654.685	18.31
654.718	8.31
654.751	6.31
654.783	-4.69
654.816	0.31
654.849	2.31
654.882	-13.69
654.915	-19.69
654.948	-5.69
654.98	-5.69
655.013	-6.69
655.046	-8.69
655.079	-8.69
655.112	2.31
655.144	1.31
655.177	0.31
655.21	9.31
655.243	16.31
655.276	8.31
655.308	11.31
655.341	-9.69
655.374	2.31
655.407	-13.69
655.44	-6.69
655.472	8.31
655.505	-4.69
655.538	5.31
655.571	17.31
655.603	-2.69
655.636	7.31
655.669	3.31
655.702	-2.69
655.734	-8.69
655.767	-10.69
655.8	-0.69
655.833	-6.69
655.865	7.31
655.898	-9.69
655.931	-15.69
655.964	-0.69
655.996	4.31
656.029	2.31
656.062	0.31
656.095	-21.69
656.127	-17.69
656.16	-4.69
656.193	-7.69
656.225	-5.69
656.258	14.31
656.291	2.31
656.324	5.31
656.356	-0.69
656.389	-11.69
656.422	4.31
656.454	-1.69
656.487	7.31
656.52	33.31
656.552	-4.69
656.585	2.31
656.618	17.31
656.65	12.31
656.683	5.31
656.716	16.31
656.748	4.31
656.781	14.31
656.814	1.31
656.846	-6.69
656.879	-25.69
656.912	9.31
656.944	-15.69
656.977	-4.69
657.01	0.31
657.042	12.31
657.075	2.31
657.108	-15.69
657.14	8.31
657.173	7.31
657.205	16.31
657.238	6.31
657.271	9.31
657.303	-10.69
657.336	-8.69
657.369	-4.69
657.401	-3.69
657.434	-8.69
657.466	0.31
657.499	10.31
657.532	3.31
657.564	4.31
657.597	3.31
657.629	6.31
657.662	0.31
657.694	3.31
657.727	-22.69
657.76	3.31
657.792	-2.69
657.825	-4.69
657.857	8.31
657.89	-1.69
657.922	12.31
657.955	-17.69
657.987	1.31
658.02	8.31
658.053	16.31
658.085	5.31
658.118	2.31
658.15	4.31
658.183	26.31
658.215	-1.69
658.248	-6.69
658.28	8.31
658.313	12.31
658.345	10.31
658.378	3.31
658.41	-2.69
658.443	16.31
658.475	1.31
658.508	-2.69
658.54	8.31
658.573	-5.69
658.605	0.31
658.638	-9.69
658.67	-5.69
658.703	0.31
658.735	-7.69
658.768	-1.69
658.8	-15.69
658.833	9.31
658.865	0.31
658.898	-5.69
658.93	-1.69
658.963	-15.69
658.995	-17.69
659.028	18.31
659.06	-2.69
659.092	7.31
659.125	-11.69
659.157	5.31
659.19	2.31
659.222	-12.69
659.255	1.31
659.287	7.31
659.32	0.31
659.352	3.31
659.384	8.31
659.417	-4.69
659.449	-2.69
659.482	20.31
659.514	-6.69
659.546	15.31
659.579	-11.69
659.611	-1.69
659.644	-2.69
659.676	-8.69
659.708	-7.69
659.741	-7.69
659.773	17.31
659.806	4.31
659.838	-17.69
659.87	7.31
659.903	11.31
659.935	3.31
659.967	3.31
660	3.31
660.032	-9.69
660.065	9.31
660.097	-1.69
660.129	-1.69
660.162	-21.69
660.194	16.31
660.226	4.31
660.259	-0.69
660.291	-5.69
660.323	-4.69
660.356	-0.69
660.388	9.31
660.42	-2.69
660.453	7.31
660.485	16.31
660.517	11.31
660.55	14.31
660.582	-9.69
660.614	13.31
660.647	-7.69
660.679	-14.69
660.711	4.31
660.743	2.31
660.776	11.31
660.808	-7.69
660.84	-4.69
660.873	1.31
660.905	12.31
660.937	-4.69
660.969	-4.69
661.002	-1.69
661.034	8.31
661.066	5.31
661.099	16.31
661.131	21.31
661.163	17.31
661.195	8.31
661.228	6.31
661.26	-1.69
661.292	-16.69
661.324	-4.69
661.357	22.31
661.389	-0.69
661.421	2.31
661.453	5.31
661.485	2.31
661.518	5.31
661.55	-0.69
661.582	-12.69
661.614	7.31
661.647	3.31
661.679	1.31
661.711	11.31
661.743	-4.69
661.775	-7.69
661.808	6.31
661.84	-10.69
661.872	-5.69
661.904	-1.69
661.936	2.31
661.969	-12.69
662.001	-0.69
662.033	10.31
662.065	-12.69
662.097	18.31
662.129	8.31
662.162	-1.69
662.194	0.31
662.226	-13.69
662.258	7.31
662.29	10.31
662.322	-4.69
662.355	-17.69
662.387	22.31
662.419	10.31
662.451	3.31
662.483	2.31
662.515	-5.69
662.547	-7.69
662.58	16.31
662.612	-0.69
662.644	-19.69
662.676	0.31
662.708	21.31
662.74	10.31
662.772	-0.69
662.804	15.31
662.836	19.31
662.869	4.31
662.901	10.31
662.933	-5.69
662.965	13.31
662.997	11.31
663.029	2.31
663.061	1.31
663.093	7.31
663.125	23.31
663.157	1.31
663.189	-16.69
663.221	11.31
663.254	2.31
663.286	2.31
663.318	-16.69
663.35	7.31
663.382	6.31
663.414	8.31
663.446	4.31
663.478	-1.69
663.51	38.31
663.542	-20.69
663.574	-10.69
663.606	1.31
663.638	-8.69
663.67	-0.69
663.702	-1.69
663.734	-4.69
663.766	15.31
663.798	-1.69
663.83	0.31
663.862	3.31
663.894	11.31
663.926	-11.69
663.958	8.31
663.99	3.31
664.022	-5.69
664.054	22.31
664.086	-24.69
664.118	-14.69
664.15	-3.69
664.182	6.31
664.214	-6.69
664.246	22.31
664.278	-4.69
664.31	-1.69
664.342	-17.69
664.374	-0.69
664.406	-1.69
664.438	2.31
664.47	24.31
664.502	3.31
664.534	-7.69
664.566	-8.69
664.598	3.31
664.63	-1.69
664.662	0.31
664.693	7.31
664.725	-6.69
664.757	1.31
664.789	-6.69
664.821	5.31
664.853	10.31
664.885	4.31
664.917	-1.69
664.949	3.31
664.981	16.31
665.013	-7.69
665.045	-13.69
665.076	0.31
665.108	9.31
665.14	5.31
665.172	7.31
665.204	10.31
665.236	-19.69
665.268	6.31
665.3	0.31
665.331	-6.69
665.363	-4.69
665.395	5.31
665.427	-5.69
665.459	-5.69
665.491	-4.69
665.523	2.31
665.555	5.31
665.586	-3.69
665.618	-9.69
665.65	-4.69
665.682	4.31
665.714	5.31
665.746	-0.69
665.777	19.31
665.809	11.31
665.841	-1.69
665.873	-0.69
665.905	-7.69
665.937	1.31
665.968	-7.69
666	3.31
666.032	21.31
666.064	6.31
666.096	1.31
666.127	15.31
666.159	18.31
666.191	27.31
666.223	11.31
666.255	18.31
666.286	8.31
666.318	12.31
666.35	22.31
666.382	10.31
666.413	0.31
666.445	-14.69
666.477	-25.69
666.509	-1.69
666.54	3.31
666.572	-13.69
666.604	1.31
666.636	16.31
666.667	19.31
666.699	17.31
666.731	12.31
666.763	-7.69
666.794	-6.69
666.826	9.31
666.858	-0.69
666.89	7.31
666.921	7.31
666.953	-12.69
666.985	19.31
667.017	30.31
667.048	13.31
667.08	7.31
667.112	9.31
667.143	6.31
667.175	0.31
667.207	-4.69
667.238	14.31
667.27	11.31
667.302	14.31
667.334	3.31
667.365	18.31
667.397	2.31
667.429	5.31
667.46	3.31
667.492	12.31
667.524	0.31
667.555	-4.69
667.587	7.31
667.619	6.31
667.65	3.31
667.682	2.31
667.714	10.31
667.745	10.31
667.777	-0.69
667.808	1.31
667.84	24.31
667.872	-0.69
667.903	12.31
667.935	-11.69
667.967	3.31
667.998	-4.69
668.03	3.31
668.061	-3.69
668.093	8.31
668.125	9.31
668.156	0.31
668.188	-7.69
668.22	-3.69
668.251	-3.69
668.283	14.31
668.314	30.31
668.346	8.31
668.377	9.31
668.409	16.31
668.441	16.31
668.472	12.31
668.504	25.31
668.535	12.31
668.567	13.31
668.599	2.31
668.63	-3.69
668.662	-9.69
668.693	17.31
668.725	-7.69
668.756	11.31
668.788	0.31
668.819	-8.69
668.851	7.31
668.882	0.31
668.914	-2.69
668.946	-1.69
668.977	-15.69
669.009	-1.69
669.04	-20.69
669.072	-7.69
669.103	14.31
669.135	5.31
669.166	-0.69
669.198	5.31
669.229	16.31
669.261	2.31
669.292	-11.69
669.324	-4.69
669.355	3.31
669.387	-6.69
669.418	1.31
669.45	-4.69
669.481	4.31
669.513	2.31
669.544	-0.69
669.576	17.31
669.607	12.31
669.639	17.31
669.67	7.31
669.701	22.31
669.733	-21.69
669.764	3.31
669.796	-12.69
669.827	-16.69
669.859	3.31
669.89	0.31
669.922	5.31
669.953	9.31
669.985	6.31
670.016	3.31
670.047	7.31
670.079	-6.69
670.11	2.31
670.142	-3.69
670.173	7.31
670.204	-3.69
670.236	4.31
670.267	5.31
670.299	3.31
670.33	3.31
670.362	15.31
670.393	-12.69
670.424	-0.69
670.456	-12.69
670.487	1.31
670.518	-1.69
670.55	-12.69
670.581	-6.69
670.613	12.31
670.644	-7.69
670.675	-11.69
670.707	-0.69
670.738	6.31
670.769	-1.69
670.801	-16.69
670.832	11.31
670.864	-1.69
670.895	-1.69
670.926	10.31
670.958	3.31
670.989	6.31
671.02	6.31
671.052	8.31
671.083	16.31
671.114	-1.69
671.146	9.31
671.177	3.31
671.208	-0.69
671.24	-14.69
671.271	-9.69
671.302	14.31
671.333	-3.69
671.365	7.31
671.396	-12.69
671.427	2.31
671.459	6.31
671.49	-5.69
671.521	2.31
671.553	-4.69
671.584	-1.69
671.615	-7.69
671.646	7.31
671.678	18.31
671.709	-2.69
671.74	-10.69
671.771	-7.69
671.803	-11.69
671.834	0.31
671.865	-2.69
671.896	0.31
671.928	-1.69
671.959	-11.69
671.99	-0.69
672.021	10.31
672.053	-6.69
672.084	9.31
672.115	3.31
672.146	8.31
672.178	-16.69
672.209	-5.69
672.24	1.31
672.271	22.31
672.303	0.31
672.334	14.31
672.365	16.31
672.396	9.31
672.427	5.31
672.459	5.31
672.49	25.31
672.521	7.31
672.552	20.31
672.583	11.31
672.615	8.31
672.646	10.31
672.677	1.31
672.708	1.31
672.739	6.31
672.77	21.31
672.802	1.31
672.833	-8.69
672.864	-15.69
672.895	-10.69
672.926	6.31
672.957	-4.69
672.989	4.31
673.02	13.31
673.051	-10.69
673.082	15.31
673.113	1.31
673.144	16.31
673.175	4.31
673.206	6.31
673.238	2.31
673.269	3.31
673.3	-15.69
673.331	17.31
673.362	0.31
673.393	1.31
673.424	22.31
673.455	15.31
673.487	-2.69
673.518	6.31
673.549	1.31
673.58	-4.69
673.611	4.31
673.642	0.31
673.673	-23.69
673.704	11.31
673.735	-16.69
673.766	-6.69
673.797	-7.69
673.828	-4.69
673.86	-6.69
673.891	0.31
673.922	-4.69
673.953	2.31
673.984	-3.69
674.015	-10.69
674.046	-9.69
674.077	-6.69
674.108	-1.69
674.139	-12.69
674.17	-5.69
674.201	-10.69
674.232	-11.69
674.263	-8.69
674.294	-16.69
674.325	-14.69
674.356	5.31
674.387	15.31
674.418	3.31
674.449	-3.69
674.48	-10.69
674.511	5.31
674.542	-0.69
674.573	-17.69
674.604	3.31
674.635	-1.69
674.666	7.31
674.697	17.31
674.728	16.31
674.759	-1.69
674.79	-22.69
674.821	-2.69
674.852	-2.69
674.883	-16.69
674.914	-10.69
674.945	-1.69
674.976	12.31
675.007	-0.69
675.038	-1.69
675.069	-2.69
675.1	2.31
675.131	1.31
675.162	-8.69
675.193	-12.69
675.224	-0.69
675.254	7.31
675.285	-3.69
675.316	4.31
675.347	9.31
675.378	1.31
675.409	-5.69
675.44	1.31
675.471	8.31
675.502	4.31
675.533	-1.69
675.564	0.31
675.595	-4.69
675.625	6.31
675.656	9.31
675.687	-0.69
675.718	-7.69
675.749	9.31
675.78	1.31
675.811	-3.69
675.842	9.31
675.873	-5.69
675.903	-7.69
675.934	3.31
675.965	-4.69
675.996	0.31
676.027	25.31
676.058	-2.69
676.089	-2.69
676.119	0.31
676.15	-0.69
676.181	-4.69
676.212	-9.69
676.243	7.31
676.274	1.31
676.304	6.31
676.335	-10.69
676.366	-8.69
676.397	-2.69
676.428	1.31
676.459	7.31
676.489	10.31
676.52	19.31
676.551	-1.69
676.582	-5.69
676.613	3.31
676.643	-5.69
676.674	-3.69
676.705	12.31
676.736	-4.69
676.767	15.31
676.797	8.31
676.828	7.31
676.859	3.31
676.89	-12.69
676.92	-7.69
676.951	-3.69
676.982	-9.69
677.013	1.31
677.044	24.31
677.074	26.31
677.105	-1.69
677.136	15.31
677.167	3.31
677.197	10.31
677.228	-1.69
677.259	-3.69
677.289	-8.69
677.32	-15.69
677.351	-5.69
677.382	-4.69
677.412	-12.69
677.443	20.31
677.474	2.31
677.505	-14.69
677.535	-10.69
677.566	-1.69
677.597	2.31
677.627	-8.69
677.658	-0.69
677.689	2.31
677.72	-8.69
677.75	-0.69
677.781	9.31
677.812	-6.69
677.842	0.31
677.873	-1.69
677.904	5.31
677.934	7.31
677.965	3.31
677.996	-9.69
678.026	10.31
678.057	7.31
678.088	1.31
678.118	-6.69
678.149	-0.69
678.18	-16.69
678.21	-10.69
678.241	2.31
678.272	5.31
678.302	-0.69
678.333	-4.69
678.363	10.31
678.394	2.31
678.425	10.31
678.455	11.31
678.486	27.31
678.517	4.31
678.547	6.31
678.578	1.31
678.608	-9.69
678.639	13.31
678.67	-2.69
678.7	8.31
678.731	4.31
678.761	-7.69
678.792	-16.69
678.823	-11.69
678.853	-0.69
678.884	-10.69
678.914	1.31
678.945	2.31
678.975	-5.69
679.006	17.31
679.037	-13.69
679.067	21.31
679.098	2.31
679.128	4.31
679.159	-3.69
679.189	15.31
679.22	7.31
679.25	19.31
679.281	11.31
679.312	-2.69
679.342	-2.69
679.373	13.31
679.403	10.31
679.434	-0.69
679.464	-7.69
679.495	12.31
679.525	-1.69
679.556	12.31
679.586	7.31
679.617	4.31
679.647	-6.69
679.678	8.31
679.708	0.31
679.739	10.31
679.769	-7.69
679.8	-11.69
679.83	-9.69
679.861	25.31
679.891	3.31
679.922	-6.69
679.952	3.31
679.983	5.31
680.013	16.31
680.044	-1.69
680.074	14.31
680.105	1.31
680.135	6.31
680.165	18.31
680.196	6.31
680.226	1.31
680.257	15.31
680.287	2.31
680.318	-8.69
680.348	-12.69
680.379	12.31
680.409	3.31
680.439	6.31
680.47	3.31
680.5	-6.69
680.531	-7.69
680.561	12.31
680.592	13.31
680.622	-2.69
680.652	-14.69
680.683	2.31
680.713	-0.69
680.744	12.31
680.774	2.31
680.804	5.31
680.835	-3.69
680.865	9.31
680.896	30.31
680.926	20.31
680.956	12.31
680.987	15.31
681.017	3.31
681.047	12.31
681.078	-4.69
681.108	-2.69
681.139	4.31
681.169	-5.69
681.199	6.31
681.23	17.31
681.26	2.31
681.29	9.31
681.321	-3.69
681.351	8.31
681.381	-8.69
681.412	21.31
681.442	3.31
681.472	20.31
681.503	15.31
681.533	1.31
681.563	3.31
681.594	1.31
681.624	21.31
681.654	-0.69
681.685	-11.69
681.715	3.31
681.745	0.31
681.775	-7.69
681.806	1.31
681.836	2.31
681.866	-0.69
681.897	-4.69
681.927	1.31
681.957	-21.69
681.987	13.31
682.018	9.31
682.048	5.31
682.078	-2.69
682.109	2.31
682.139	6.31
682.169	-2.69
682.199	-16.69
682.23	-8.69
682.26	8.31
682.29	-1.69
682.32	6.31
682.351	-0.69
682.381	-10.69
682.411	3.31
682.441	-1.69
682.472	-10.69
682.502	-8.69
682.532	-7.69
682.562	1.31
682.592	2.31
682.623	11.31
682.653	4.31
682.683	0.31
682.713	14.31
682.743	-3.69
682.774	-3.69
682.804	-8.69
682.834	17.31
682.864	-0.69
682.894	-4.69
682.925	-9.69
682.955	6.31
682.985	6.31
683.015	12.31
683.045	23.31
683.076	-5.69
683.106	-5.69
683.136	-7.69
683.166	-10.69
683.196	-3.69
683.226	-8.69
683.257	-5.69
683.287	-0.69
683.317	2.31
683.347	-2.69
683.377	-4.69
683.407	7.31
683.437	2.31
683.468	8.31
683.498	7.31
683.528	12.31
683.558	-2.69
683.588	8.31
683.618	-5.69
683.648	6.31
683.678	15.31
683.708	7.31
683.739	2.31
683.769	0.31
683.799	-5.69
683.829	10.31
683.859	6.31
683.889	12.31
683.919	-1.69
683.949	-2.69
683.979	-14.69
684.009	11.31
684.039	-1.69
684.07	1.31
684.1	9.31
684.13	5.31
684.16	-0.69
684.19	5.31
684.22	13.31
684.25	3.31
684.28	-1.69
684.31	13.31
684.34	21.31
684.37	15.31
684.4	2.31
684.43	10.31
684.46	6.31
684.49	12.31
684.52	14.31
684.55	23.31
684.58	-11.69
684.61	-8.69
684.64	11.31
684.67	5.31
684.7	-1.69
684.73	10.31
684.76	10.31
684.79	9.31
684.82	7.31
684.85	3.31
684.88	7.31
684.91	12.31
684.94	4.31
684.97	-11.69
685	-8.69
685.03	3.31
685.06	-17.69
685.09	-5.69
685.12	18.31
685.15	-10.69
685.18	29.31
685.21	0.31
685.24	2.31
685.27	24.31
685.3	-16.69
685.33	20.31
685.36	2.31
685.39	-0.69
685.42	-17.69
685.45	-5.69
685.48	1.31
685.51	3.31
685.54	12.31
685.569	-1.69
685.599	2.31
685.629	1.31
685.659	21.31
685.689	-1.69
685.719	-1.69
685.749	-7.69
685.779	-0.69
685.809	3.31
685.839	12.31
685.869	10.31
685.898	18.31
685.928	-5.69
685.958	-7.69
685.988	-4.69
686.018	-0.69
686.048	2.31
686.078	16.31
686.108	13.31
686.137	-10.69
686.167	8.31
686.197	-3.69
686.227	4.31
686.257	24.31
686.287	17.31
686.317	-7.69
686.346	-10.69
686.376	-13.69
686.406	-8.69
686.436	11.31
686.466	3.31
686.496	8.31
686.525	12.31
686.555	5.31
686.585	18.31
686.615	23.31
686.645	11.31
686.675	-7.69
686.704	5.31
686.734	0.31
686.764	-17.69
686.794	7.31
686.824	5.31
686.853	6.31
686.883	10.31
686.913	1.31
686.943	-5.69
686.973	11.31
687.002	1.31
687.032	18.31
687.062	6.31
687.092	23.31
687.121	-0.69
687.151	1.31
687.181	1.31
687.211	4.31
687.24	8.31
687.27	5.31
687.3	-1.69
687.33	-2.69
687.359	-12.69
687.389	-1.69
687.419	-1.69
687.449	-1.69
687.478	19.31
687.508	6.31
687.538	12.31
687.568	-3.69
687.597	-4.69
687.627	1.31
687.657	8.31
687.686	1.31
687.716	24.31
687.746	-10.69
687.776	-7.69
687.805	3.31
687.835	-15.69
687.865	19.31
687.894	15.31
687.924	1.31
687.954	-1.69
687.983	-2.69
688.013	15.31
688.043	18.31
688.072	12.31
688.102	-1.69
688.132	-8.69
688.161	9.31
688.191	-3.69
688.221	22.31
688.25	-13.69
688.28	0.31
688.31	-1.69
688.339	-10.69
688.369	-12.69
688.399	-16.69
688.428	7.31
688.458	6.31
688.488	1.31
688.517	13.31
688.547	-0.69
688.576	38.31
688.606	26.31
688.636	0.31
688.665	-2.69
688.695	3.31
688.725	16.31
688.754	12.31
688.784	15.31
688.813	16.31
688.843	7.31
688.873	-9.69
688.902	-5.69
688.932	-5.69
688.961	4.31
688.991	11.31
689.02	6.31
689.05	-2.69
689.08	7.31
689.109	12.31
689.139	-6.69
689.168	2.31
689.198	9.31
689.227	-4.69
689.257	14.31
689.287	18.31
689.316	4.31
689.346	-5.69
689.375	-9.69
689.405	20.31
689.434	-7.69
689.464	-2.69
689.493	-3.69
689.523	5.31
689.552	6.31
689.582	9.31
689.611	-11.69
689.641	4.31
689.67	5.31
689.7	26.31
689.73	22.31
689.759	10.31
689.789	20.31
689.818	4.31
689.848	-10.69
689.877	16.31
689.906	-1.69
689.936	-17.69
689.965	-11.69
689.995	0.31
690.024	9.31
690.054	2.31
690.083	15.31
690.113	-6.69
690.142	7.31
690.172	2.31
690.201	7.31
690.231	2.31
690.26	12.31
690.29	7.31
690.319	14.31
690.348	9.31
690.378	5.31
690.407	10.31
690.437	-2.69
690.466	7.31
690.496	-12.69
690.525	14.31
690.555	5.31
690.584	10.31
690.613	-20.69
690.643	5.31
690.672	3.31
690.702	7.31
690.731	-11.69
690.76	19.31
690.79	44.31
690.819	37.31
690.849	26.31
690.878	34.31
690.907	28.31
690.937	23.31
690.966	19.31
690.996	7.31
691.025	12.31
691.054	2.31
691.084	8.31
691.113	10.31
691.142	14.31
691.172	5.31
691.201	20.31
691.23	14.31
691.26	15.31
691.289	-4.69
691.319	8.31
691.348	29.31
691.377	7.31
691.407	9.31
691.436	23.31
691.465	10.31
691.495	10.31
691.524	-2.69
691.553	-0.69
691.583	-0.69
691.612	41.31
691.641	18.31
691.67	2.31
691.7	9.31
691.729	-12.69
691.758	12.31
691.788	-2.69
691.817	-2.69
691.846	-3.69
691.876	0.31
691.905	8.31
691.934	11.31
691.963	24.31
691.993	4.31
692.022	-7.69
692.051	0.31
692.081	28.31
692.11	20.31
692.139	20.31
692.168	-5.69
692.198	-4.69
692.227	10.31
692.256	-0.69
692.285	-5.69
692.315	6.31
692.344	-2.69
692.373	-3.69
692.402	-18.69
692.432	-3.69
692.461	2.31
692.49	-14.69
692.519	-1.69
692.548	8.31
692.578	20.31
692.607	-4.69
692.636	-15.69
692.665	16.31
692.694	-3.69
692.724	12.31
692.753	12.31
692.782	9.31
692.811	-10.69
692.84	-0.69
692.87	11.31
692.899	4.31
692.928	2.31
692.957	8.31
692.986	13.31
693.016	-0.69
693.045	19.31
693.074	6.31
693.103	-5.69
693.132	8.31
693.161	-0.69
693.191	4.31
693.22	8.31
693.249	0.31
693.278	-2.69
693.307	11.31
693.336	-11.69
693.365	-20.69
693.395	0.31
693.424	-0.69
693.453	24.31
693.482	-6.69
693.511	0.31
693.54	2.31
693.569	5.31
693.598	7.31
693.628	8.31
693.657	15.31
693.686	14.31
693.715	18.31
693.744	11.31
693.773	14.31
693.802	6.31
693.831	-2.69
693.86	14.31
693.889	6.31
693.919	9.31
693.948	0.31
693.977	4.31
694.006	-2.69
694.035	-23.69
694.064	-4.69
694.093	2.31
694.122	-7.69
694.151	-1.69
694.18	1.31
694.209	21.31
694.238	4.31
694.267	18.31
694.296	20.31
694.325	11.31
694.354	2.31
694.383	13.31
694.412	10.31
694.441	0.31
694.471	-6.69
694.5	-15.69
694.529	-0.69
694.558	23.31
694.587	18.31
694.616	0.31
694.645	9.31
694.674	6.31
694.703	3.31
694.732	5.31
694.761	26.31
694.79	7.31
694.819	-15.69
694.848	8.31
694.877	5.31
694.906	30.31
694.935	-1.69
694.963	21.31
694.992	1.31
695.021	3.31
695.05	8.31
695.079	9.31
695.108	-12.69
695.137	18.31
695.166	7.31
695.195	5.31
695.224	10.31
695.253	2.31
695.282	4.31
695.311	5.31
695.34	0.31
695.369	12.31
695.398	4.31
695.427	24.31
695.456	-5.69
695.485	-4.69
695.513	9.31
695.542	12.31
695.571	9.31
695.6	26.31
695.629	-3.69
695.658	0.31
695.687	17.31
695.716	-2.69
695.745	19.31
695.774	3.31
695.802	-2.69
695.831	15.31
695.86	16.31
695.889	19.31
695.918	7.31
695.947	4.31
695.976	1.31
696.005	8.31
696.033	17.31
696.062	20.31
696.091	1.31
696.12	-4.69
696.149	8.31
696.178	-7.69
696.207	2.31
696.235	-10.69
696.264	16.31
696.293	4.31
696.322	21.31
696.351	9.31
696.38	-2.69
696.408	-3.69
696.437	6.31
696.466	2.31
696.495	2.31
696.524	5.31
696.553	2.31
696.581	22.31
696.61	6.31
696.639	-2.69
696.668	10.31
696.697	-9.69
696.725	10.31
696.754	14.31
696.783	4.31
696.812	-6.69
696.84	4.31
696.869	4.31
696.898	-9.69
696.927	5.31
696.956	17.31
696.984	17.31
697.013	0.31
697.042	5.31
697.071	-0.69
697.099	-0.69
697.128	23.31
697.157	-5.69
697.186	-0.69
697.214	3.31
697.243	10.31
697.272	13.31
697.301	0.31
697.329	2.31
697.358	-5.69
697.387	31.31
697.415	7.31
697.444	8.31
697.473	0.31
697.502	-1.69
697.53	11.31
697.559	8.31
697.588	19.31
697.616	0.31
697.645	-5.69
697.674	7.31
697.703	9.31
697.731	15.31
697.76	9.31
697.789	-1.69
697.817	1.31
697.846	35.31
697.875	14.31
697.903	9.31
697.932	20.31
697.961	2.31
697.989	16.31
698.018	9.31
698.047	6.31
698.075	11.31
698.104	-5.69
698.133	-2.69
698.161	-2.69
698.19	19.31
698.218	-3.69
698.247	4.31
698.276	3.31
698.304	18.31
698.333	13.31
698.362	2.31
698.39	-9.69
698.419	7.31
698.447	11.31
698.476	-1.69
698.505	9.31
698.533	5.31
698.562	5.31
698.591	-3.69
698.619	-5.69
698.648	14.31
698.676	8.31
698.705	3.31
698.733	-12.69
698.762	11.31
698.791	-6.69
698.819	6.31
698.848	6.31
698.876	15.31
698.905	12.31
698.933	8.31
698.962	11.31
698.991	6.31
699.019	6.31
699.048	2.31
699.076	0.31
699.105	-8.69
699.133	-0.69
699.162	27.31
699.19	21.31
699.219	17.31
699.248	12.31
699.276	-1.69
699.305	10.31
699.333	-0.69
699.362	4.31
699.39	5.31
699.419	-6.69
699.447	2.31
699.476	11.31
699.504	-0.69
699.533	4.31
699.561	-0.69
699.59	5.31
699.618	11.31
699.647	-6.69
699.675	6.31
699.704	9.31
699.732	-0.69
699.761	5.31
699.789	3.31
699.818	7.31
699.846	2.31
699.874	4.31
699.903	-1.69
699.931	-2.69
699.96	22.31
699.988	-4.69
700.017	5.31
700.045	-1.69
700.074	-1.69
700.102	-4.69
700.13	-1.69
700.159	9.31
700.187	6.31
700.216	14.31
700.244	-3.69
700.273	2.31
700.301	5.31
700.329	7.31
700.358	28.31
700.386	0.31
700.415	0.31
700.443	9.31
700.472	6.31
700.5	12.31
700.528	8.31
700.557	7.31
700.585	-5.69
700.614	-1.69
700.642	9.31
700.67	17.31
700.699	6.31
700.727	2.31
700.755	-5.69
700.784	-0.69
700.812	-9.69
700.841	5.31
700.869	4.31
700.897	-7.69
700.926	-1.69
700.954	5.31
700.982	5.31
701.011	8.31
701.039	9.31
701.067	1.31
701.096	-1.69
701.124	2.31
701.152	2.31
701.181	8.31
701.209	-1.69
701.237	-2.69
701.266	-9.69
701.294	-0.69
701.322	13.31
701.351	13.31
701.379	9.31
701.407	12.31
701.435	14.31
701.464	34.31
701.492	18.31
701.52	-7.69
701.549	14.31
701.577	-3.69
701.605	15.31
701.634	13.31
701.662	3.31
701.69	-3.69
701.718	-8.69
701.747	10.31
701.775	-3.69
701.803	-5.69
701.831	10.31
701.86	-2.69
701.888	7.31
701.916	-14.69
701.944	-5.69
701.973	-15.69
702.001	-4.69
702.029	-16.69
702.057	-10.69
702.086	-2.69
702.114	-10.69
702.142	-6.69
702.17	-17.69
702.199	5.31
702.227	-0.69
702.255	6.31
702.283	-14.69
702.311	6.31
702.34	-2.69
702.368	-5.69
702.396	10.31
702.424	7.31
702.452	6.31
702.481	-2.69
702.509	-17.69
702.537	-1.69
702.565	6.31
702.593	-14.69
702.621	3.31
702.65	-12.69
702.678	9.31
702.706	7.31
702.734	-5.69
702.762	8.31
702.79	2.31
702.819	19.31
702.847	-10.69
702.875	5.31
702.903	21.31
702.931	-1.69
702.959	1.31
702.988	-7.69
703.016	-7.69
703.044	-1.69
703.072	4.31
703.1	9.31
703.128	-5.69
703.156	19.31
703.184	-2.69
703.212	7.31
703.241	15.31
703.269	17.31
703.297	27.31
703.325	19.31
703.353	-15.69
703.381	3.31
703.409	-2.69
703.437	-15.69
703.465	-6.69
703.493	-1.69
703.522	0.31
703.55	12.31
703.578	17.31
703.606	-3.69
703.634	-0.69
703.662	-11.69
703.69	-2.69
703.718	11.31
703.746	5.31
703.774	3.31
703.802	15.31
703.83	-2.69
703.858	3.31
703.886	3.31
703.914	-0.69
703.942	3.31
703.97	8.31
703.998	0.31
704.027	26.31
704.055	7.31
704.083	0.31
704.111	-13.69
704.139	-4.69
704.167	-4.69
704.195	5.31
704.223	-5.69
704.251	-6.69
704.279	-4.69
704.307	2.31
704.335	-1.69
704.363	14.31
704.391	6.31
704.419	-7.69
704.447	-9.69
704.475	5.31
704.503	-3.69
704.531	12.31
704.558	-11.69
704.586	6.31
704.614	6.31
704.642	2.31
704.67	-3.69
704.698	-11.69
704.726	2.31
704.754	0.31
704.782	-4.69
704.81	-6.69
704.838	18.31
704.866	-1.69
704.894	-11.69
704.922	5.31
704.95	11.31
704.978	17.31
705.006	18.31
705.034	8.31
705.061	-9.69
705.089	-11.69
705.117	0.31
705.145	0.31
705.173	6.31
705.201	15.31
705.229	31.31
705.257	2.31
705.285	-5.69
705.313	8.31
705.34	-10.69
705.368	13.31
705.396	-6.69
705.424	-7.69
705.452	-4.69
705.48	10.31
705.508	6.31
705.536	5.31
705.563	5.31
705.591	11.31
705.619	0.31
705.647	-7.69
705.675	-1.69
705.703	-0.69
705.731	4.31
705.758	20.31
705.786	19.31
705.814	32.31
705.842	13.31
705.87	6.31
705.898	11.31
705.925	-6.69
705.953	9.31
705.981	7.31
706.009	-10.69
706.037	5.31
706.065	6.31
706.092	-9.69
706.12	2.31
706.148	-8.69
706.176	-10.69
706.204	-3.69
706.231	20.31
706.259	-4.69
706.287	-0.69
706.315	9.31
706.342	3.31
706.37	5.31
706.398	-2.69
706.426	-1.69
706.454	-7.69
706.481	6.31
706.509	4.31
706.537	-0.69
706.565	-0.69
706.592	16.31
706.62	2.31
706.648	12.31
706.676	6.31
706.703	13.31
706.731	-10.69
706.759	-9.69
706.787	1.31
706.814	1.31
706.842	-3.69
706.87	-2.69
706.897	12.31
706.925	-4.69
706.953	13.31
706.981	10.31
707.008	24.31
707.036	5.31
707.064	6.31
707.091	-9.69
707.119	17.31
707.147	0.31
707.174	-17.69
707.202	10.31
707.23	6.31
707.258	20.31
707.285	-10.69
707.313	-15.69
707.341	-9.69
707.368	-4.69
707.396	8.31
707.424	22.31
707.451	4.31
707.479	9.31
707.507	6.31
707.534	-10.69
707.562	4.31
707.59	-17.69
707.617	4.31
707.645	-2.69
707.672	5.31
707.7	2.31
707.728	9.31
707.755	7.31
707.783	-15.69
707.811	5.31
707.838	5.31
707.866	-4.69
707.893	-1.69
707.921	-12.69
707.949	1.31
707.976	3.31
708.004	1.31
708.031	-7.69
708.059	-18.69
708.087	-1.69
708.114	-4.69
708.142	-0.69
708.169	-8.69
708.197	-8.69
708.225	1.31
708.252	5.31
708.28	14.31
708.307	6.31
708.335	-7.69
708.362	4.31
708.39	-12.69
708.418	-8.69
708.445	-7.69
708.473	3.31
708.5	-6.69
708.528	11.31
708.555	15.31
708.583	9.31
708.61	6.31
708.638	1.31
708.665	2.31
708.693	9.31
708.72	-0.69
708.748	4.31
708.776	2.31
708.803	11.31
708.831	-7.69
708.858	8.31
708.886	-13.69
708.913	0.31
708.941	-5.69
708.968	4.31
708.996	-13.69
709.023	22.31
709.051	-6.69
709.078	-13.69
709.105	2.31
709.133	-4.69
709.16	-8.69
709.188	10.31
709.215	7.31
709.243	5.31
709.27	-7.69
709.298	5.31
709.325	-2.69
709.353	-5.69
709.38	4.31
709.408	16.31
709.435	-1.69
709.462	-1.69
709.49	4.31
709.517	-1.69
709.545	-8.69
709.572	7.31
709.6	2.31
709.627	-4.69
709.655	10.31
709.682	8.31
709.709	-0.69
709.737	10.31
709.764	-9.69
709.792	8.31
709.819	3.31
709.846	-9.69
709.874	8.31
709.901	19.31
709.929	3.31
709.956	9.31
709.983	-16.69
710.011	-3.69
710.038	-8.69
710.066	-1.69
710.093	9.31
710.12	7.31
710.148	7.31
710.175	-2.69
710.202	-0.69
710.23	10.31
710.257	-2.69
710.284	7.31
710.312	9.31
710.339	6.31
710.366	-3.69
710.394	-1.69
710.421	9.31
710.448	16.31
710.476	3.31
710.503	8.31
710.53	14.31
710.558	-2.69
710.585	0.31
710.612	2.31
710.64	4.31
710.667	1.31
710.694	-9.69
710.722	13.31
710.749	0.31
710.776	0.31
710.804	21.31
710.831	1.31
710.858	6.31
710.885	9.31
710.913	5.31
710.94	15.31
710.967	-12.69
710.995	-7.69
711.022	5.31
711.049	2.31
711.076	-12.69
711.104	-3.69
711.131	-7.69
711.158	10.31
711.185	7.31
711.213	0.31
711.24	-5.69
711.267	0.31
711.294	4.31
711.322	20.31
711.349	-14.69
711.376	-11.69
711.403	10.31
711.431	-1.69
711.458	-3.69
711.485	3.31
711.512	-2.69
711.54	6.31
711.567	-1.69
711.594	-5.69
711.621	1.31
711.648	7.31
711.676	10.31
711.703	5.31
711.73	-1.69
711.757	1.31
711.784	-4.69
711.812	8.31
711.839	-7.69
711.866	-6.69
711.893	3.31
711.92	2.31
711.947	-2.69
711.975	4.31
712.002	6.31
712.029	29.31
712.056	2.31
712.083	-5.69
712.11	-23.69
712.138	-8.69
712.165	8.31
712.192	-10.69
712.219	-7.69
712.246	-15.69
712.273	-4.69
712.3	-9.69
712.328	-6.69
712.355	6.31
712.382	1.31
712.409	8.31
712.436	-2.69
712.463	20.31
712.49	9.31
712.517	-2.69
712.544	-5.69
712.572	9.31
712.599	-11.69
712.626	-2.69
712.653	-12.69
712.68	2.31
712.707	9.31
712.734	4.31
712.761	4.31
712.788	15.31
712.815	10.31
712.842	26.31
712.87	-11.69
712.897	-2.69
712.924	-8.69
712.951	2.31
712.978	-4.69
713.005	13.31
713.032	15.31
713.059	-7.69
713.086	-13.69
713.113	-16.69
713.14	-0.69
713.167	-1.69
713.194	8.31
713.221	-7.69
713.248	-2.69
713.275	-11.69
713.302	-2.69
713.329	7.31
713.356	25.31
713.383	6.31
713.41	16.31
713.437	-2.69
713.464	-4.69
713.491	11.31
713.518	5.31
713.545	1.31
713.572	-2.69
713.599	13.31
713.626	-2.69
713.653	12.31
713.68	-8.69
713.707	-1.69
713.734	0.31
713.761	-3.69
713.788	-16.69
713.815	0.31
713.842	-2.69
713.869	11.31
713.896	4.31
713.923	-8.69
713.95	6.31
713.977	13.31
714.004	-7.69
714.031	-18.69
714.058	-9.69
714.085	5.31
714.112	16.31
714.139	-5.69
714.165	-11.69
714.192	-4.69
714.219	5.31
714.246	9.31
714.273	2.31
714.3	1.31
714.327	18.31
714.354	8.31
714.381	1.31
714.408	12.31
714.435	-14.69
714.461	-16.69
714.488	-1.69
714.515	-8.69
714.542	-6.69
714.569	-10.69
714.596	-14.69
714.623	-6.69
714.65	-3.69
714.677	11.31
714.703	2.31
714.73	2.31
714.757	21.31
714.784	16.31
714.811	-8.69
714.838	-0.69
714.865	-12.69
714.891	12.31
714.918	-6.69
714.945	-12.69
714.972	-19.69
714.999	-2.69
715.026	-10.69
715.052	15.31
715.079	6.31
715.106	8.31
715.133	-2.69
715.16	-4.69
715.187	-6.69
715.213	11.31
715.24	-14.69
715.267	-4.69
715.294	2.31
715.321	-6.69
715.347	-8.69
715.374	-5.69
715.401	-7.69
715.428	-14.69
715.455	10.31
715.481	6.31
715.508	21.31
715.535	-8.69
715.562	19.31
715.588	3.31
715.615	-2.69
715.642	0.31
715.669	14.31
715.695	0.31
715.722	-5.69
715.749	3.31
715.776	19.31
715.802	8.31
715.829	0.31
715.856	-8.69
715.883	9.31
715.909	1.31
715.936	8.31
715.963	4.31
715.99	-12.69
716.016	7.31
716.043	20.31
716.07	-3.69
716.096	-3.69
716.123	2.31
716.15	2.31
716.177	-7.69
716.203	0.31
716.23	5.31
716.257	-1.69
716.283	12.31
716.31	7.31
716.337	16.31
716.363	6.31
716.39	8.31
716.417	9.31
716.443	-5.69
716.47	14.31
716.497	8.31
716.523	13.31
716.55	22.31
716.577	10.31
716.603	3.31
716.63	12.31
716.657	12.31
716.683	-14.69
716.71	-11.69
716.737	-2.69
716.763	0.31
716.79	22.31
716.817	24.31
716.843	-6.69
716.87	22.31
716.897	17.31
716.923	25.31
716.95	-12.69
716.976	1.31
717.003	3.31
717.03	13.31
717.056	21.31
717.083	-7.69
717.109	0.31
717.136	25.31
717.163	3.31
717.189	14.31
717.216	-2.69
717.242	-5.69
717.269	-8.69
717.296	-4.69
717.322	6.31
717.349	17.31
717.375	-5.69
717.402	3.31
717.428	4.31
717.455	9.31
717.481	0.31
717.508	22.31
717.535	0.31
717.561	-8.69
717.588	-12.69
717.614	3.31
717.641	11.31
717.667	0.31
717.694	4.31
717.72	6.31
717.747	16.31
717.773	1.31
717.8	3.31
717.826	15.31
717.853	-2.69
717.88	-1.69
717.906	5.31
717.933	9.31
717.959	23.31
717.986	11.31
718.012	-2.69
718.039	6.31
718.065	23.31
718.092	1.31
718.118	-2.69
718.144	-2.69
718.171	25.31
718.197	19.31
718.224	-2.69
718.25	6.31
718.277	5.31
718.303	9.31
718.33	5.31
718.356	0.31
718.383	-17.69
718.409	-14.69
718.436	-2.69
718.462	-4.69
718.489	-2.69
718.515	26.31
718.541	1.31
718.568	3.31
718.594	9.31
718.621	3.31
718.647	5.31
718.674	8.31
718.7	19.31
718.726	-3.69
718.753	-4.69
718.779	20.31
718.806	22.31
718.832	2.31
718.858	-12.69
718.885	1.31
718.911	-15.69
718.938	2.31
718.964	-10.69
718.99	1.31
719.017	-5.69
719.043	1.31
719.07	21.31
719.096	-4.69
719.122	5.31
719.149	-1.69
719.175	-6.69
719.201	4.31
719.228	4.31
719.254	-4.69
719.281	-8.69
719.307	-8.69
719.333	-13.69
719.36	11.31
719.386	6.31
719.412	1.31
719.439	-8.69
719.465	5.31
719.491	-9.69
719.518	9.31
719.544	13.31
719.57	5.31
719.597	6.31
719.623	0.31
719.649	2.31
719.675	-1.69
719.702	8.31
719.728	9.31
719.754	-11.69
719.781	0.31
719.807	3.31
719.833	-6.69
719.86	-13.69
719.886	-9.69
719.912	0.31
719.938	-6.69
719.965	-7.69
719.991	2.31
720.017	10.31
720.044	-0.69
720.07	0.31
720.096	10.31
720.122	-0.69
720.149	21.31
720.175	25.31
720.201	1.31
720.227	-2.69
720.254	7.31
720.28	-4.69
720.306	-5.69
720.332	-9.69
720.359	-3.69
720.385	20.31
720.411	14.31
720.437	30.31
720.463	-3.69
720.49	6.31
720.516	2.31
720.542	-5.69
720.568	13.31
720.595	7.31
720.621	6.31
720.647	20.31
720.673	11.31
720.699	14.31
720.725	12.31
720.752	16.31
720.778	32.31
720.804	12.31
720.83	-3.69
720.856	1.31
720.883	-12.69
720.909	2.31
720.935	2.31
720.961	31.31
720.987	3.31
721.013	10.31
721.04	2.31
721.066	-17.69
721.092	-2.69
721.118	9.31
721.144	1.31
721.17	-1.69
721.196	6.31
721.223	-6.69
721.249	-2.69
721.275	15.31
721.301	14.31
721.327	24.31
721.353	20.31
721.379	2.31
721.405	9.31
721.432	24.31
721.458	10.31
721.484	6.31
721.51	-9.69
721.536	11.31
721.562	1.31
721.588	-11.69
721.614	3.31
721.64	3.31
721.666	-0.69
721.693	-0.69
721.719	-5.69
721.745	0.31
721.771	-2.69
721.797	3.31
721.823	13.31
721.849	24.31
721.875	8.31
721.901	11.31
721.927	-1.69
721.953	10.31
721.979	3.31
722.005	10.31
722.031	-4.69
722.057	12.31
722.083	-1.69
722.109	8.31
722.135	11.31
722.161	12.31
722.187	11.31
722.214	11.31
722.24	-3.69
722.266	0.31
722.292	-0.69
722.318	-4.69
722.344	-1.69
722.37	11.31
722.396	20.31
722.422	-6.69
722.448	-1.69
722.474	0.31
722.5	10.31
722.526	10.31
722.552	-1.69
722.578	4.31
722.603	12.31
722.629	5.31
722.655	9.31
722.681	-0.69
722.707	1.31
722.733	5.31
722.759	4.31
722.785	0.31
722.811	-1.69
722.837	5.31
722.863	2.31
722.889	5.31
722.915	6.31
722.941	8.31
722.967	-4.69
722.993	2.31
723.019	-9.69
723.045	8.31
723.071	29.31
723.097	14.31
723.122	3.31
723.148	-2.69
723.174	3.31
723.2	-1.69
723.226	-3.69
723.252	0.31
723.278	11.31
723.304	1.31
723.33	5.31
723.356	-16.69
723.381	-17.69
723.407	-23.69
723.433	11.31
723.459	2.31
723.485	1.31
723.511	19.31
723.537	6.31
723.563	-2.69
723.588	5.31
723.614	3.31
723.64	-1.69
723.666	9.31
723.692	8.31
723.718	6.31
723.744	-14.69
723.769	-0.69
723.795	-3.69
723.821	-2.69
723.847	-8.69
723.873	10.31
723.899	-5.69
723.924	2.31
723.95	31.31
723.976	-0.69
724.002	7.31
724.028	3.31
724.053	-10.69
724.079	-9.69
724.105	11.31
724.131	2.31
724.157	-4.69
724.182	1.31
724.208	-6.69
724.234	5.31
724.26	-5.69
724.286	8.31
724.311	8.31
724.337	-12.69
724.363	-9.69
724.389	1.31
724.415	-3.69
724.44	20.31
724.466	-5.69
724.492	-11.69
724.518	5.31
724.543	-2.69
724.569	2.31
724.595	14.31
724.621	6.31
724.646	14.31
724.672	-15.69
724.698	-5.69
724.723	-6.69
724.749	1.31
724.775	7.31
724.801	12.31
724.826	2.31
724.852	-2.69
724.878	1.31
724.904	-8.69
724.929	3.31
724.955	-9.69
724.981	5.31
725.006	-2.69
725.032	-8.69
725.058	1.31
725.083	-13.69
725.109	-11.69
725.135	12.31
725.161	-4.69
725.186	6.31
725.212	5.31
725.238	-5.69
725.263	3.31
725.289	-1.69
725.315	3.31
725.34	-6.69
725.366	20.31
725.392	-1.69
725.417	6.31
725.443	-0.69
725.468	9.31
725.494	2.31
725.52	20.31
725.545	6.31
725.571	-2.69
725.597	-1.69
725.622	-3.69
725.648	0.31
725.674	12.31
725.699	-1.69
725.725	2.31
725.75	22.31
725.776	6.31
725.802	11.31
725.827	18.31
725.853	4.31
725.878	13.31
725.904	-8.69
725.93	12.31
725.955	-2.69
725.981	-6.69
726.006	6.31
726.032	4.31
726.057	-16.69
726.083	-2.69
726.109	6.31
726.134	0.31
726.16	-0.69
726.185	1.31
726.211	-4.69
726.236	10.31
726.262	3.31
726.288	-1.69
726.313	3.31
726.339	-8.69
726.364	-2.69
726.39	7.31
726.415	8.31
726.441	-4.69
726.466	-12.69
726.492	3.31
726.517	2.31
726.543	-1.69
726.568	-19.69
726.594	-6.69
726.619	-1.69
726.645	-0.69
726.67	-5.69
726.696	2.31
726.721	5.31
726.747	2.31
726.772	5.31
726.798	-9.69
726.823	-6.69
726.849	9.31
726.874	9.31
726.9	33.31
726.925	6.31
726.951	-7.69
726.976	21.31
727.002	-5.69
727.027	13.31
727.053	10.31
727.078	-1.69
727.104	-1.69
727.129	-8.69
727.155	-15.69
727.18	6.31
727.205	-6.69
727.231	-4.69
727.256	8.31
727.282	8.31
727.307	13.31
727.333	0.31
727.358	-7.69
727.383	-6.69
727.409	-7.69
727.434	2.31
727.46	4.31
727.485	5.31
727.511	-3.69
727.536	-11.69
727.561	9.31
727.587	-1.69
727.612	17.31
727.637	3.31
727.663	-16.69
727.688	8.31
727.714	-9.69
727.739	-8.69
727.764	-6.69
727.79	15.31
727.815	15.31
727.841	23.31
727.866	1.31
727.891	1.31
727.917	-8.69
727.942	-18.69
727.967	-12.69
727.993	-21.69
728.018	4.31
728.043	13.31
728.069	0.31
728.094	16.31
728.119	10.31
728.145	23.31
728.17	8.31
728.195	6.31
728.221	10.31
728.246	5.31
728.271	-1.69
728.297	12.31
728.322	7.31
728.347	0.31
728.373	1.31
728.398	16.31
728.423	-9.69
728.448	12.31
728.474	-1.69
728.499	-5.69
728.524	-13.69
728.55	-2.69
728.575	-1.69
728.6	18.31
728.625	-13.69
728.651	-1.69
728.676	-1.69
728.701	-6.69
728.727	-13.69
728.752	-4.69
728.777	3.31
728.802	3.31
728.828	1.31
728.853	-8.69
728.878	-8.69
728.903	-17.69
728.929	-22.69
728.954	-2.69
728.979	13.31
729.004	4.31
729.03	-1.69
729.055	12.31
729.08	-6.69
729.105	4.31
729.13	11.31
729.156	-1.69
729.181	-0.69
729.206	-11.69
729.231	-7.69
729.256	10.31
729.282	6.31
729.307	-11.69
729.332	0.31
729.357	-9.69
729.382	10.31
729.408	-1.69
729.433	19.31
729.458	7.31
729.483	19.31
729.508	22.31
729.533	15.31
729.559	7.31
729.584	-14.69
729.609	2.31
729.634	12.31
729.659	-7.69
729.684	-6.69
729.71	30.31
729.735	7.31
729.76	-8.69
729.785	-0.69
729.81	8.31
729.835	0.31
729.86	-4.69
729.886	15.31
729.911	8.31
729.936	-7.69
729.961	12.31
729.986	17.31
730.011	70.31
730.036	201.31
730.061	1000.31
730.086	2702.31
730.112	3418.31
730.137	2842.31
730.162	2114.31
730.187	1679.31
730.212	1264.31
730.237	800.31
730.262	457.31
730.287	256.31
730.312	155.31
730.337	88.31
730.362	62.31
730.387	41.31
730.413	25.31
730.438	30.31
730.463	24.31
730.488	22.31
730.513	16.31
730.538	-6.69
730.563	20.31
730.588	25.31
730.613	19.31
730.638	-4.69
730.663	-4.69
730.688	35.31
730.713	16.31
730.738	1.31
730.763	9.31
730.788	-3.69
730.813	11.31
730.838	10.31
730.863	7.31
730.888	1.31
730.913	-1.69
730.938	7.31
730.963	23.31
730.988	118.31
731.013	413.31
731.038	625.31
731.063	610.31
731.088	460.31
731.113	336.31
731.138	276.31
731.163	188.31
731.188	87.31
731.213	70.31
731.238	47.31
731.263	15.31
731.288	3.31
731.313	18.31
731.338	14.31
731.363	1.31
731.388	4.31
731.413	-0.69
731.438	21.31
731.463	18.31
731.487	14.31
731.512	-8.69
731.537	4.31
731.562	17.31
731.587	4.31
731.612	10.31
731.637	11.31
731.662	11.31
731.687	0.31
731.712	-12.69
731.737	5.31
731.762	10.31
731.786	1.31
731.811	5.31
731.836	-0.69
731.861	1.31
731.886	5.31
731.911	12.31
731.936	12.31
731.961	0.31
731.986	-7.69
732.01	2.31
732.035	1.31
732.06	11.31
732.085	3.31
732.11	-10.69
732.135	-12.69
732.16	5.31
732.184	-4.69
732.209	-2.69
732.234	10.31
732.259	4.31
732.284	17.31
732.309	-7.69
732.334	-4.69
732.358	-12.69
732.383	-20.69
732.408	5.31
732.433	-1.69
732.458	2.31
732.482	9.31
732.507	1.31
732.532	4.31
732.557	17.31
732.582	14.31
732.607	31.31
732.631	58.31
732.656	92.31
732.681	159.31
732.706	338.31
732.73	456.31
732.755	389.31
732.78	302.31
732.805	242.31
732.83	174.31
732.854	129.31
732.879	76.31
732.904	41.31
732.929	37.31
732.953	2.31
732.978	8.31
733.003	-9.69
733.028	-5.69
733.052	10.31
733.077	-3.69
733.102	10.31
733.127	-4.69
733.151	2.31
733.176	16.31
733.201	-1.69
733.226	-0.69
733.25	-5.69
733.275	-8.69
733.3	3.31
733.324	29.31
733.349	4.31
733.374	13.31
733.399	-0.69
733.423	8.31
733.448	13.31
733.473	3.31
733.497	6.31
733.522	3.31
733.547	20.31
733.571	24.31
733.596	3.31
733.621	16.31
733.646	5.31
733.67	7.31
733.695	-1.69
733.72	14.31
733.744	21.31
733.769	9.31
733.794	13.31
733.818	5.31
733.843	-8.69
733.867	-13.69
733.892	-1.69
733.917	3.31
733.941	-1.69
733.966	-5.69
733.991	-3.69
734.015	12.31
734.04	14.31
734.065	-10.69
734.089	-9.69
734.114	-12.69
734.138	8.31
734.163	5.31
734.188	23.31
734.212	15.31
734.237	8.31
734.261	-5.69
734.286	-18.69
734.311	-22.69
734.335	6.31
734.36	-7.69
734.384	13.31
734.409	14.31
734.434	-10.69
734.458	5.31
734.483	-12.69
734.507	-6.69
734.532	-9.69
734.556	15.31
734.581	1.31
734.606	2.31
734.63	-3.69
734.655	5.31
734.679	5.31
734.704	17.31
734.728	-10.69
734.753	-3.69
734.777	7.31
734.802	6.31
734.826	5.31
734.851	8.31
734.876	16.31
734.9	5.31
734.925	6.31
734.949	1.31
734.974	10.31
734.998	16.31
735.023	-5.69
735.047	-7.69
735.072	16.31
735.096	-6.69
735.121	5.31
735.145	10.31
735.17	11.31
735.194	0.31
735.219	-14.69
735.243	16.31
735.268	-2.69
735.292	14.31
735.317	7.31
735.341	2.31
735.365	-12.69
735.39	-2.69
735.414	16.31
735.439	5.31
735.463	-3.69
735.488	10.31
735.512	15.31
735.537	-5.69
735.561	-0.69
735.586	1.31
735.61	0.31
735.634	5.31
735.659	3.31
735.683	14.31
735.708	11.31
735.732	7.31
735.757	-8.69
735.781	12.31
735.805	7.31
735.83	-5.69
735.854	1.31
735.879	10.31
735.903	21.31
735.927	8.31
735.952	2.31
735.976	0.31
736.001	-6.69
736.025	-3.69
736.049	-4.69
736.074	-5.69
736.098	10.31
736.123	13.31
736.147	9.31
736.171	-1.69
736.196	-16.69
736.22	-14.69
736.244	5.31
736.269	-8.69
736.293	-2.69
736.317	-6.69
736.342	-0.69
736.366	15.31
736.39	28.31
736.415	3.31
736.439	5.31
736.463	11.31
736.488	7.31
736.512	9.31
736.536	8.31
736.561	16.31
736.585	-6.69
736.609	2.31
736.634	-6.69
736.658	-5.69
736.682	-5.69
736.707	3.31
736.731	-5.69
736.755	-8.69
736.78	0.31
736.804	9.31
736.828	17.31
736.852	5.31
736.877	9.31
736.901	7.31
736.925	-4.69
736.949	9.31
736.974	-15.69
736.998	-14.69
737.022	4.31
737.047	-0.69
737.071	-2.69
737.095	18.31
737.119	21.31
737.144	3.31
737.168	3.31
737.192	-15.69
737.216	-7.69
737.241	2.31
737.265	-0.69
737.289	-5.69
737.313	-2.69
737.337	10.31
737.362	3.31
737.386	-15.69
737.41	-10.69
737.434	9.31
737.459	-4.69
737.483	8.31
737.507	5.31
737.531	14.31
737.555	9.31
737.58	15.31
737.604	10.31
737.628	-18.69
737.652	-4.69
737.676	-1.69
737.701	14.31
737.725	-4.69
737.749	6.31
737.773	-7.69
737.797	-8.69
737.821	10.31
737.846	16.31
737.87	28.31
737.894	1.31
737.918	-1.69
737.942	6.31
737.966	24.31
737.99	6.31
738.015	-6.69
738.039	11.31
738.063	-5.69
738.087	13.31
738.111	11.31
738.135	18.31
738.159	-5.69
738.184	4.31
738.208	2.31
738.232	2.31
738.256	17.31
738.28	2.31
738.304	19.31
738.328	1.31
738.352	16.31
738.376	13.31
738.4	5.31
738.425	6.31
738.449	-9.69
738.473	14.31
738.497	3.31
738.521	17.31
738.545	8.31
738.569	14.31
738.593	17.31
738.617	7.31
738.641	-1.69
738.665	-8.69
738.689	14.31
738.713	8.31
738.737	3.31
738.762	19.31
738.786	13.31
738.81	-7.69
738.834	8.31
738.858	-0.69
738.882	-10.69
738.906	1.31
738.93	15.31
738.954	11.31
738.978	12.31
739.002	5.31
739.026	9.31
739.05	5.31
739.074	0.31
739.098	16.31
739.122	20.31
739.146	5.31
739.17	6.31
739.194	13.31
739.218	-5.69
739.242	-13.69
739.266	-1.69
739.29	2.31
739.314	9.31
739.338	15.31
739.362	11.31
739.386	4.31
739.41	-9.69
739.434	23.31
739.458	21.31
739.482	7.31
739.506	3.31
739.53	-1.69
739.554	5.31
739.577	-8.69
739.601	7.31
739.625	-0.69
739.649	1.31
739.673	-3.69
739.697	9.31
739.721	-12.69
739.745	3.31
739.769	10.31
739.793	12.31
739.817	7.31
739.841	-3.69
739.865	5.31
739.889	-16.69
739.912	9.31
739.936	-5.69
739.96	-3.69
739.984	25.31
740.008	1.31
740.032	2.31
740.056	0.31
740.08	4.31
740.104	-6.69
740.127	-10.69
740.151	5.31
740.175	15.31
740.199	11.31
740.223	48.31
740.247	13.31
740.271	16.31
740.295	-6.69
740.318	-35.69
740.342	-1.69
740.366	2.31
740.39	18.31
740.414	-0.69
740.438	-5.69
740.461	16.31
740.485	1.31
740.509	-1.69
740.533	3.31
740.557	-6.69
740.581	-7.69
740.604	-12.69
740.628	12.31
740.652	-4.69
740.676	8.31
740.7	11.31
740.723	2.31
740.747	2.31
740.771	-5.69
740.795	-24.69
740.819	-8.69
740.842	3.31
740.866	8.31
740.89	0.31
740.914	-2.69
740.938	-6.69
740.961	28.31
740.985	-6.69
741.009	-5.69
741.033	1.31
741.056	3.31
741.08	-8.69
741.104	-4.69
741.128	5.31
741.151	17.31
741.175	2.31
741.199	9.31
741.223	-0.69
741.246	-0.69
741.27	29.31
741.294	12.31
741.318	-2.69
741.341	-8.69
741.365	3.31
741.389	5.31
741.413	29.31
741.436	6.31
741.46	23.31
741.484	20.31
741.507	23.31
741.531	24.31
741.555	9.31
741.579	-5.69
741.602	17.31
741.626	25.31
741.65	2.31
741.673	-7.69
741.697	9.31
741.721	-2.69
741.744	-6.69
741.768	4.31
741.792	5.31
741.815	15.31
741.839	4.31
741.863	7.31
741.886	-1.69
741.91	13.31
741.934	-2.69
741.957	-2.69
741.981	2.31
742.005	2.31
742.028	-16.69
742.052	0.31
742.075	16.31
742.099	6.31
742.123	1.31
742.146	-3.69
742.17	8.31
742.194	2.31
742.217	-5.69
742.241	-2.69
742.264	5.31
742.288	24.31
742.312	8.31
742.335	-2.69
742.359	8.31
742.382	19.31
742.406	18.31
742.43	-11.69
742.453	2.31
742.477	-6.69
742.5	-8.69
742.524	-2.69
742.548	-14.69
742.571	2.31
742.595	2.31
742.618	11.31
742.642	0.31
742.665	10.31
742.689	-6.69
742.712	16.31
742.736	7.31
742.76	0.31
742.783	14.31
742.807	10.31
742.83	7.31
742.854	5.31
742.877	-1.69
742.901	-6.69
742.924	1.31
742.948	9.31
742.971	5.31
742.995	17.31
743.018	-1.69
743.042	4.31
743.065	7.31
743.089	-9.69
743.112	-1.69
743.136	-1.69
743.159	12.31
743.183	-0.69
743.206	3.31
743.23	-5.69
743.253	10.31
743.277	11.31
743.3	-10.69
743.324	5.31
743.347	-9.69
743.371	23.31
743.394	12.31
743.418	33.31
743.441	9.31
743.465	3.31
743.488	2.31
743.512	7.31
743.535	1.31
743.558	-13.69
743.582	-6.69
743.605	-1.69
743.629	7.31
743.652	0.31
743.676	-6.69
743.699	-3.69
743.723	11.31
743.746	1.31
743.769	-0.69
743.793	9.31
743.816	-6.69
743.84	15.31
743.863	-1.69
743.886	17.31
743.91	22.31
743.933	15.31
743.957	15.31
743.98	15.31
744.003	6.31
744.027	7.31
744.05	6.31
744.074	20.31
744.097	-12.69
744.12	2.31
744.144	-2.69
744.167	14.31
744.19	7.31
744.214	14.31
744.237	-11.69
744.26	23.31
744.284	2.31
744.307	1.31
744.331	0.31
744.354	7.31
744.377	-0.69
744.401	-10.69
744.424	-4.69
744.447	-3.69
744.471	-4.69
