Data from HighRes_mercury_15_13_11_07_2024_HR4C61891__13__15-14-24-486.txt Node

Date: Thu Nov 07 15:14:24 EST 2024
User: crc00042
Spectrometer: HR4C6189
Trigger mode: 4
Integration Time (sec): 1.000000E-1
Scans to average: 1
Electric dark correction enabled: true
Nonlinearity correction enabled: false
Boxcar width: 0
XAxis mode: Wavelengths
Number of Pixels in Spectrum: 3648
>>>>>Begin Spectral Data<<<<<
639.567	-31.92
639.602	-31.92
639.636	-31.92
639.67	-37.92
639.704	-24.92
639.738	-4.92
639.773	14.08
639.807	-17.92
639.841	7.08
639.875	6.08
639.909	-1.92
639.943	1.08
639.978	-6.92
640.012	-7.92
640.046	17.08
640.08	-11.92
640.114	18.08
640.148	-11.92
640.182	-8.92
640.217	5.08
640.251	30.08
640.285	4.08
640.319	4.08
640.353	12.08
640.387	4.08
640.421	6.08
640.455	4.08
640.49	-2.92
640.524	-3.92
640.558	10.08
640.592	-6.92
640.626	8.08
640.66	13.08
640.694	-4.92
640.728	12.08
640.762	7.08
640.796	18.08
640.83	10.08
640.865	-0.92
640.899	7.08
640.933	-1.92
640.967	6.08
641.001	5.08
641.035	7.08
641.069	7.08
641.103	2.08
641.137	15.08
641.171	-9.92
641.205	5.08
641.239	0.08
641.273	12.08
641.307	14.08
641.341	7.08
641.375	18.08
641.409	1.08
641.443	3.08
641.477	12.08
641.511	8.08
641.545	18.08
641.579	10.08
641.614	19.08
641.648	3.08
641.682	-9.92
641.716	14.08
641.75	30.08
641.784	2.08
641.818	2.08
641.852	13.08
641.886	-0.92
641.919	22.08
641.953	1.08
641.987	-1.92
642.021	-0.92
642.055	4.08
642.089	13.08
642.123	-5.92
642.157	2.08
642.191	9.08
642.225	0.08
642.259	-8.92
642.293	11.08
642.327	7.08
642.361	-9.92
642.395	-0.92
642.429	19.08
642.463	13.08
642.497	25.08
642.531	14.08
642.565	1.08
642.599	7.08
642.633	2.08
642.666	36.08
642.7	38.08
642.734	23.08
642.768	-4.92
642.802	4.08
642.836	9.08
642.87	3.08
642.904	9.08
642.938	15.08
642.972	0.08
643.005	-4.92
643.039	12.08
643.073	10.08
643.107	2.08
643.141	1.08
643.175	7.08
643.209	5.08
643.243	15.08
643.276	22.08
643.31	12.08
643.344	21.08
643.378	4.08
643.412	28.08
643.446	12.08
643.48	-7.92
643.513	14.08
643.547	-5.92
643.581	6.08
643.615	11.08
643.649	21.08
643.683	14.08
643.716	10.08
643.75	7.08
643.784	-10.92
643.818	17.08
643.852	11.08
643.886	4.08
643.919	8.08
643.953	17.08
643.987	16.08
644.021	13.08
644.055	20.08
644.088	14.08
644.122	6.08
644.156	-0.92
644.19	21.08
644.224	-3.92
644.257	6.08
644.291	23.08
644.325	17.08
644.359	-1.92
644.392	17.08
644.426	13.08
644.46	11.08
644.494	14.08
644.527	6.08
644.561	8.08
644.595	-2.92
644.629	-9.92
644.662	4.08
644.696	20.08
644.73	9.08
644.764	6.08
644.797	7.08
644.831	4.08
644.865	31.08
644.899	6.08
644.932	27.08
644.966	11.08
645	25.08
645.033	26.08
645.067	5.08
645.101	14.08
645.135	-23.92
645.168	3.08
645.202	2.08
645.236	11.08
645.269	13.08
645.303	-4.92
645.337	-3.92
645.37	-9.92
645.404	-8.92
645.438	1.08
645.471	9.08
645.505	15.08
645.539	7.08
645.572	4.08
645.606	0.08
645.64	5.08
645.673	-1.92
645.707	31.08
645.741	6.08
645.774	0.08
645.808	12.08
645.842	-3.92
645.875	12.08
645.909	5.08
645.943	8.08
645.976	13.08
646.01	16.08
646.043	18.08
646.077	11.08
646.111	6.08
646.144	30.08
646.178	21.08
646.212	-8.92
646.245	-1.92
646.279	9.08
646.312	19.08
646.346	13.08
646.38	4.08
646.413	1.08
646.447	-3.92
646.48	9.08
646.514	11.08
646.547	-0.92
646.581	10.08
646.615	7.08
646.648	20.08
646.682	26.08
646.715	3.08
646.749	-7.92
646.782	4.08
646.816	-4.92
646.85	12.08
646.883	-8.92
646.917	9.08
646.95	8.08
646.984	24.08
647.017	-0.92
647.051	6.08
647.084	7.08
647.118	-9.92
647.151	12.08
647.185	6.08
647.218	8.08
647.252	23.08
647.285	-6.92
647.319	2.08
647.353	7.08
647.386	16.08
647.42	6.08
647.453	7.08
647.487	-10.92
647.52	-3.92
647.553	14.08
647.587	6.08
647.62	11.08
647.654	8.08
647.687	15.08
647.721	24.08
647.754	7.08
647.788	12.08
647.821	2.08
647.855	7.08
647.888	8.08
647.922	9.08
647.955	8.08
647.989	-5.92
648.022	7.08
648.055	20.08
648.089	-1.92
648.122	30.08
648.156	8.08
648.189	1.08
648.223	21.08
648.256	25.08
648.29	6.08
648.323	6.08
648.356	17.08
648.39	9.08
648.423	10.08
648.457	-2.92
648.49	17.08
648.523	4.08
648.557	-0.92
648.59	-0.92
648.624	23.08
648.657	-4.92
648.69	11.08
648.724	20.08
648.757	12.08
648.791	8.08
648.824	20.08
648.857	29.08
648.891	11.08
648.924	7.08
648.957	29.08
648.991	5.08
649.024	21.08
649.057	11.08
649.091	15.08
649.124	28.08
649.158	27.08
649.191	50.08
649.224	15.08
649.258	8.08
649.291	16.08
649.324	11.08
649.358	14.08
649.391	16.08
649.424	10.08
649.458	7.08
649.491	15.08
649.524	-1.92
649.557	-1.92
649.591	-7.92
649.624	26.08
649.657	-0.92
649.691	13.08
649.724	4.08
649.757	7.08
649.791	5.08
649.824	24.08
649.857	13.08
649.89	2.08
649.924	-9.92
649.957	-7.92
649.99	2.08
650.023	1.08
650.057	-9.92
650.09	20.08
650.123	4.08
650.157	12.08
650.19	9.08
650.223	12.08
650.256	6.08
650.29	12.08
650.323	4.08
650.356	18.08
650.389	4.08
650.423	10.08
650.456	0.08
650.489	-1.92
650.522	21.08
650.555	27.08
650.589	7.08
650.622	5.08
650.655	-7.92
650.688	8.08
650.721	3.08
650.755	3.08
650.788	22.08
650.821	11.08
650.854	4.08
650.887	14.08
650.921	3.08
650.954	-9.92
650.987	10.08
651.02	0.08
651.053	-8.92
651.087	-13.92
651.12	13.08
651.153	23.08
651.186	8.08
651.219	2.08
651.252	7.08
651.286	0.08
651.319	1.08
651.352	12.08
651.385	19.08
651.418	11.08
651.451	19.08
651.484	2.08
651.518	-9.92
651.551	29.08
651.584	-5.92
651.617	14.08
651.65	13.08
651.683	7.08
651.716	1.08
651.749	-1.92
651.783	15.08
651.816	8.08
651.849	9.08
651.882	6.08
651.915	7.08
651.948	22.08
651.981	0.08
652.014	-13.92
652.047	-15.92
652.08	0.08
652.114	11.08
652.147	-13.92
652.18	7.08
652.213	32.08
652.246	-7.92
652.279	-8.92
652.312	8.08
652.345	-8.92
652.378	14.08
652.411	25.08
652.444	22.08
652.477	21.08
652.51	15.08
652.543	-2.92
652.576	-3.92
652.609	-11.92
652.642	2.08
652.675	7.08
652.709	4.08
652.742	20.08
652.775	17.08
652.808	9.08
652.841	8.08
652.874	-6.92
652.907	-12.92
652.94	-11.92
652.973	-9.92
653.006	13.08
653.039	6.08
653.072	9.08
653.105	-0.92
653.138	-14.92
653.171	-2.92
653.204	-0.92
653.237	0.08
653.27	-8.92
653.303	14.08
653.336	10.08
653.368	6.08
653.401	9.08
653.434	5.08
653.467	17.08
653.5	-4.92
653.533	-13.92
653.566	17.08
653.599	16.08
653.632	2.08
653.665	1.08
653.698	4.08
653.731	-10.92
653.764	8.08
653.797	7.08
653.83	7.08
653.863	15.08
653.896	-4.92
653.929	-10.92
653.961	16.08
653.994	4.08
654.027	1.08
654.06	15.08
654.093	23.08
654.126	16.08
654.159	4.08
654.192	15.08
654.225	0.08
654.258	-7.92
654.29	17.08
654.323	-0.92
654.356	8.08
654.389	19.08
654.422	11.08
654.455	3.08
654.488	6.08
654.521	-23.92
654.553	4.08
654.586	11.08
654.619	14.08
654.652	-1.92
654.685	9.08
654.718	8.08
654.751	4.08
654.783	-17.92
654.816	18.08
654.849	9.08
654.882	-0.92
654.915	-14.92
654.948	-0.92
654.98	-11.92
655.013	4.08
655.046	3.08
655.079	-16.92
655.112	4.08
655.144	-3.92
655.177	10.08
655.21	10.08
655.243	25.08
655.276	1.08
655.308	-8.92
655.341	4.08
655.374	3.08
655.407	-3.92
655.44	13.08
655.472	25.08
655.505	26.08
655.538	9.08
655.571	17.08
655.603	10.08
655.636	5.08
655.669	11.08
655.702	1.08
655.734	1.08
655.767	4.08
655.8	13.08
655.833	-4.92
655.865	22.08
655.898	6.08
655.931	-7.92
655.964	-1.92
655.996	5.08
656.029	10.08
656.062	-5.92
656.095	8.08
656.127	6.08
656.16	-2.92
656.193	4.08
656.225	8.08
656.258	12.08
656.291	3.08
656.324	0.08
656.356	7.08
656.389	17.08
656.422	20.08
656.454	-3.92
656.487	21.08
656.52	26.08
656.552	19.08
656.585	18.08
656.618	16.08
656.65	35.08
656.683	13.08
656.716	18.08
656.748	7.08
656.781	6.08
656.814	4.08
656.846	6.08
656.879	-2.92
656.912	1.08
656.944	-9.92
656.977	-3.92
657.01	3.08
657.042	6.08
657.075	29.08
657.108	5.08
657.14	5.08
657.173	27.08
657.205	27.08
657.238	21.08
657.271	7.08
657.303	-12.92
657.336	5.08
657.369	18.08
657.401	9.08
657.434	-7.92
657.466	14.08
657.499	-2.92
657.532	-2.92
657.564	19.08
657.597	2.08
657.629	0.08
657.662	-3.92
657.694	9.08
657.727	-16.92
657.76	13.08
657.792	-3.92
657.825	6.08
657.857	6.08
657.89	-2.92
657.922	11.08
657.955	7.08
657.987	5.08
658.02	20.08
658.053	12.08
658.085	26.08
658.118	17.08
658.15	19.08
658.183	25.08
658.215	4.08
658.248	-2.92
658.28	7.08
658.313	27.08
658.345	6.08
658.378	-10.92
658.41	11.08
658.443	7.08
658.475	13.08
658.508	-5.92
658.54	9.08
658.573	-3.92
658.605	7.08
658.638	-2.92
658.67	3.08
658.703	-0.92
658.735	6.08
658.768	9.08
658.8	-18.92
658.833	14.08
658.865	-2.92
658.898	20.08
658.93	-0.92
658.963	10.08
658.995	-5.92
659.028	19.08
659.06	4.08
659.092	4.08
659.125	-7.92
659.157	13.08
659.19	-7.92
659.222	-2.92
659.255	11.08
659.287	8.08
659.32	-2.92
659.352	-8.92
659.384	2.08
659.417	4.08
659.449	15.08
659.482	23.08
659.514	5.08
659.546	-2.92
659.579	-16.92
659.611	1.08
659.644	-4.92
659.676	-11.92
659.708	1.08
659.741	-3.92
659.773	19.08
659.806	13.08
659.838	8.08
659.87	3.08
659.903	0.08
659.935	12.08
659.967	21.08
660	9.08
660.032	-11.92
660.065	13.08
660.097	18.08
660.129	4.08
660.162	-3.92
660.194	-2.92
660.226	25.08
660.259	13.08
660.291	-5.92
660.323	4.08
660.356	-0.92
660.388	-10.92
660.42	-10.92
660.453	19.08
660.485	11.08
660.517	21.08
660.55	16.08
660.582	7.08
660.614	22.08
660.647	4.08
660.679	-27.92
660.711	14.08
660.743	-12.92
660.776	-8.92
660.808	1.08
660.84	8.08
660.873	9.08
660.905	13.08
660.937	-2.92
660.969	8.08
661.002	3.08
661.034	23.08
661.066	11.08
661.099	12.08
661.131	25.08
661.163	9.08
661.195	2.08
661.228	13.08
661.26	13.08
661.292	15.08
661.324	4.08
661.357	7.08
661.389	17.08
661.421	15.08
661.453	2.08
661.485	18.08
661.518	20.08
661.55	0.08
661.582	-11.92
661.614	4.08
661.647	9.08
661.679	8.08
661.711	6.08
661.743	-17.92
661.775	5.08
661.808	20.08
661.84	-5.92
661.872	3.08
661.904	-2.92
661.936	21.08
661.969	-4.92
662.001	-7.92
662.033	13.08
662.065	-11.92
662.097	14.08
662.129	23.08
662.162	-8.92
662.194	-1.92
662.226	8.08
662.258	-1.92
662.29	-5.92
662.322	-6.92
662.355	-30.92
662.387	13.08
662.419	5.08
662.451	13.08
662.483	9.08
662.515	7.08
662.547	-11.92
662.58	3.08
662.612	-0.92
662.644	-0.92
662.676	11.08
662.708	-2.92
662.74	-0.92
662.772	0.08
662.804	20.08
662.836	5.08
662.869	-10.92
662.901	9.08
662.933	14.08
662.965	20.08
662.997	8.08
663.029	-0.92
663.061	-3.92
663.093	-0.92
663.125	16.08
663.157	19.08
663.189	15.08
663.221	11.08
663.254	15.08
663.286	3.08
663.318	-0.92
663.35	-0.92
663.382	20.08
663.414	15.08
663.446	3.08
663.478	6.08
663.51	17.08
663.542	10.08
663.574	9.08
663.606	31.08
663.638	-1.92
663.67	9.08
663.702	0.08
663.734	-7.92
663.766	6.08
663.798	3.08
663.83	17.08
663.862	14.08
663.894	10.08
663.926	12.08
663.958	21.08
663.99	15.08
664.022	19.08
664.054	18.08
664.086	-5.92
664.118	-11.92
664.15	-7.92
664.182	24.08
664.214	4.08
664.246	32.08
664.278	24.08
664.31	30.08
664.342	5.08
664.374	2.08
664.406	5.08
664.438	3.08
664.47	15.08
664.502	4.08
664.534	6.08
664.566	-9.92
664.598	6.08
664.63	-9.92
664.662	20.08
664.693	9.08
664.725	-13.92
664.757	-4.92
664.789	-16.92
664.821	12.08
664.853	10.08
664.885	12.08
664.917	6.08
664.949	20.08
664.981	6.08
665.013	17.08
665.045	3.08
665.076	-1.92
665.108	12.08
665.14	10.08
665.172	19.08
665.204	9.08
665.236	10.08
665.268	31.08
665.3	12.08
665.331	-5.92
665.363	22.08
665.395	-3.92
665.427	0.08
665.459	8.08
665.491	11.08
665.523	-12.92
665.555	6.08
665.586	10.08
665.618	-9.92
665.65	-5.92
665.682	8.08
665.714	22.08
665.746	15.08
665.777	15.08
665.809	11.08
665.841	14.08
665.873	-0.92
665.905	6.08
665.937	14.08
665.968	3.08
666	10.08
666.032	7.08
666.064	5.08
666.096	13.08
666.127	23.08
666.159	13.08
666.191	14.08
666.223	14.08
666.255	20.08
666.286	11.08
666.318	-5.92
666.35	24.08
666.382	11.08
666.413	-0.92
666.445	-17.92
666.477	-16.92
666.509	0.08
666.54	11.08
666.572	4.08
666.604	-8.92
666.636	-3.92
666.667	13.08
666.699	16.08
666.731	6.08
666.763	17.08
666.794	4.08
666.826	3.08
666.858	-4.92
666.89	12.08
666.921	25.08
666.953	5.08
666.985	17.08
667.017	33.08
667.048	5.08
667.08	20.08
667.112	-0.92
667.143	-4.92
667.175	8.08
667.207	-8.92
667.238	8.08
667.27	0.08
667.302	3.08
667.334	-3.92
667.365	11.08
667.397	11.08
667.429	15.08
667.46	28.08
667.492	-0.92
667.524	0.08
667.555	-7.92
667.587	-4.92
667.619	-9.92
667.65	-0.92
667.682	14.08
667.714	15.08
667.745	2.08
667.777	-4.92
667.808	11.08
667.84	8.08
667.872	3.08
667.903	29.08
667.935	6.08
667.967	6.08
667.998	9.08
668.03	-6.92
668.061	4.08
668.093	9.08
668.125	8.08
668.156	25.08
668.188	14.08
668.22	3.08
668.251	18.08
668.283	5.08
668.314	25.08
668.346	19.08
668.377	23.08
668.409	-1.92
668.441	25.08
668.472	16.08
668.504	17.08
668.535	10.08
668.567	16.08
668.599	-3.92
668.63	12.08
668.662	15.08
668.693	11.08
668.725	6.08
668.756	28.08
668.788	25.08
668.819	15.08
668.851	13.08
668.882	10.08
668.914	1.08
668.946	2.08
668.977	3.08
669.009	-16.92
669.04	8.08
669.072	5.08
669.103	10.08
669.135	9.08
669.166	10.08
669.198	14.08
669.229	22.08
669.261	9.08
669.292	-12.92
669.324	14.08
669.355	15.08
669.387	1.08
669.418	13.08
669.45	12.08
669.481	0.08
669.513	8.08
669.544	12.08
669.576	6.08
669.607	14.08
669.639	17.08
669.67	2.08
669.701	16.08
669.733	-3.92
669.764	-24.92
669.796	-1.92
669.827	-10.92
669.859	0.08
669.89	7.08
669.922	13.08
669.953	7.08
669.985	16.08
670.016	23.08
670.047	3.08
670.079	-5.92
670.11	10.08
670.142	11.08
670.173	3.08
670.204	-0.92
670.236	15.08
670.267	4.08
670.299	0.08
670.33	5.08
670.362	7.08
670.393	15.08
670.424	6.08
670.456	-8.92
670.487	-2.92
670.518	-1.92
670.55	-3.92
670.581	11.08
670.613	4.08
670.644	-3.92
670.675	-7.92
670.707	-3.92
670.738	8.08
670.769	2.08
670.801	-0.92
670.832	20.08
670.864	-0.92
670.895	12.08
670.926	3.08
670.958	10.08
670.989	-4.92
671.02	6.08
671.052	13.08
671.083	8.08
671.114	3.08
671.146	24.08
671.177	1.08
671.208	2.08
671.24	-4.92
671.271	10.08
671.302	9.08
671.333	4.08
671.365	12.08
671.396	4.08
671.427	-1.92
671.459	-2.92
671.49	4.08
671.521	10.08
671.553	-1.92
671.584	11.08
671.615	9.08
671.646	20.08
671.678	13.08
671.709	-2.92
671.74	-5.92
671.771	9.08
671.803	8.08
671.834	-3.92
671.865	-2.92
671.896	15.08
671.928	16.08
671.959	4.08
671.99	-0.92
672.021	-0.92
672.053	-3.92
672.084	28.08
672.115	-5.92
672.146	14.08
672.178	-8.92
672.209	3.08
672.24	7.08
672.271	17.08
672.303	-3.92
672.334	3.08
672.365	4.08
672.396	4.08
672.427	6.08
672.459	12.08
672.49	8.08
672.521	23.08
672.552	14.08
672.583	19.08
672.615	6.08
672.646	8.08
672.677	-25.92
672.708	18.08
672.739	11.08
672.77	23.08
672.802	14.08
672.833	-2.92
672.864	-1.92
672.895	10.08
672.926	5.08
672.957	-3.92
672.989	6.08
673.02	10.08
673.051	15.08
673.082	22.08
673.113	-1.92
673.144	5.08
673.175	7.08
673.206	-4.92
673.238	1.08
673.269	7.08
673.3	-3.92
673.331	-4.92
673.362	9.08
673.393	11.08
673.424	12.08
673.455	4.08
673.487	12.08
673.518	33.08
673.549	13.08
673.58	-2.92
673.611	9.08
673.642	7.08
673.673	-9.92
673.704	5.08
673.735	8.08
673.766	0.08
673.797	12.08
673.828	9.08
673.86	-7.92
673.891	-2.92
673.922	-8.92
673.953	-1.92
673.984	9.08
674.015	22.08
674.046	13.08
674.077	12.08
674.108	8.08
674.139	-0.92
674.17	0.08
674.201	2.08
674.232	-0.92
674.263	2.08
674.294	-2.92
674.325	5.08
674.356	18.08
674.387	27.08
674.418	-0.92
674.449	-2.92
674.48	-0.92
674.511	12.08
674.542	11.08
674.573	7.08
674.604	26.08
674.635	7.08
674.666	5.08
674.697	14.08
674.728	10.08
674.759	1.08
674.79	-10.92
674.821	-1.92
674.852	-5.92
674.883	4.08
674.914	6.08
674.945	17.08
674.976	9.08
675.007	-8.92
675.038	-0.92
675.069	-13.92
675.1	-9.92
675.131	-7.92
675.162	-3.92
675.193	10.08
675.224	8.08
675.254	20.08
675.285	15.08
675.316	6.08
675.347	-4.92
675.378	-10.92
675.409	-7.92
675.44	12.08
675.471	10.08
675.502	8.08
675.533	5.08
675.564	-1.92
675.595	7.08
675.625	17.08
675.656	5.08
675.687	8.08
675.718	-9.92
675.749	17.08
675.78	7.08
675.811	17.08
675.842	1.08
675.873	-5.92
675.903	-16.92
675.934	11.08
675.965	4.08
675.996	-2.92
676.027	3.08
676.058	26.08
676.089	-3.92
676.119	7.08
676.15	-6.92
676.181	4.08
676.212	11.08
676.243	12.08
676.274	4.08
676.304	4.08
676.335	1.08
676.366	5.08
676.397	3.08
676.428	0.08
676.459	27.08
676.489	23.08
676.52	12.08
676.551	4.08
676.582	5.08
676.613	5.08
676.643	8.08
676.674	8.08
676.705	10.08
676.736	9.08
676.767	10.08
676.797	14.08
676.828	9.08
676.859	6.08
676.89	5.08
676.92	12.08
676.951	0.08
676.982	18.08
677.013	12.08
677.044	14.08
677.074	31.08
677.105	-7.92
677.136	31.08
677.167	3.08
677.197	8.08
677.228	6.08
677.259	6.08
677.289	-3.92
677.32	-12.92
677.351	-17.92
677.382	-4.92
677.412	-5.92
677.443	7.08
677.474	10.08
677.505	-6.92
677.535	19.08
677.566	0.08
677.597	-0.92
677.627	-13.92
677.658	-6.92
677.689	10.08
677.72	12.08
677.75	2.08
677.781	8.08
677.812	7.08
677.842	1.08
677.873	19.08
677.904	10.08
677.934	12.08
677.965	-3.92
677.996	-2.92
678.026	3.08
678.057	-0.92
678.088	-9.92
678.118	-7.92
678.149	-11.92
678.18	7.08
678.21	4.08
678.241	-5.92
678.272	15.08
678.302	6.08
678.333	5.08
678.363	14.08
678.394	0.08
678.425	-1.92
678.455	9.08
678.486	9.08
678.517	6.08
678.547	-0.92
678.578	9.08
678.608	-4.92
678.639	3.08
678.67	1.08
678.7	-1.92
678.731	9.08
678.761	4.08
678.792	-5.92
678.823	17.08
678.853	12.08
678.884	-3.92
678.914	10.08
678.945	-11.92
678.975	0.08
679.006	14.08
679.037	3.08
679.067	29.08
679.098	-0.92
679.128	-7.92
679.159	4.08
679.189	4.08
679.22	-12.92
679.25	15.08
679.281	10.08
679.312	3.08
679.342	8.08
679.373	28.08
679.403	5.08
679.434	12.08
679.464	7.08
679.495	-5.92
679.525	7.08
679.556	5.08
679.586	10.08
679.617	10.08
679.647	16.08
679.678	7.08
679.708	10.08
679.739	8.08
679.769	-0.92
679.8	4.08
679.83	3.08
679.861	14.08
679.891	7.08
679.922	-16.92
679.952	2.08
679.983	12.08
680.013	9.08
680.044	10.08
680.074	11.08
680.105	14.08
680.135	9.08
680.165	16.08
680.196	2.08
680.226	3.08
680.257	12.08
680.287	-8.92
680.318	-2.92
680.348	-10.92
680.379	11.08
680.409	19.08
680.439	16.08
680.47	13.08
680.5	6.08
680.531	9.08
680.561	22.08
680.592	8.08
680.622	11.08
680.652	5.08
680.683	24.08
680.713	-6.92
680.744	-3.92
680.774	2.08
680.804	9.08
680.835	-0.92
680.865	9.08
680.896	25.08
680.926	24.08
680.956	1.08
680.987	-2.92
681.017	-4.92
681.047	-5.92
681.078	-5.92
681.108	1.08
681.139	10.08
681.169	15.08
681.199	3.08
681.23	21.08
681.26	6.08
681.29	17.08
681.321	9.08
681.351	6.08
681.381	-6.92
681.412	14.08
681.442	-0.92
681.472	0.08
681.503	15.08
681.533	8.08
681.563	-5.92
681.594	-1.92
681.624	2.08
681.654	-17.92
681.685	1.08
681.715	18.08
681.745	10.08
681.775	-1.92
681.806	2.08
681.836	16.08
681.866	-0.92
681.897	6.08
681.927	-4.92
681.957	-15.92
681.987	13.08
682.018	10.08
682.048	5.08
682.078	0.08
682.109	29.08
682.139	3.08
682.169	5.08
682.199	5.08
682.23	-3.92
682.26	5.08
682.29	12.08
682.32	3.08
682.351	7.08
682.381	3.08
682.411	16.08
682.441	15.08
682.472	-1.92
682.502	-1.92
682.532	4.08
682.562	5.08
682.592	9.08
682.623	-11.92
682.653	6.08
682.683	-4.92
682.713	17.08
682.743	7.08
682.774	2.08
682.804	3.08
682.834	22.08
682.864	3.08
682.894	12.08
682.925	-0.92
682.955	-5.92
682.985	8.08
683.015	-8.92
683.045	-1.92
683.076	-5.92
683.106	-5.92
683.136	-4.92
683.166	-5.92
683.196	0.08
683.226	13.08
683.257	-4.92
683.287	1.08
683.317	1.08
683.347	1.08
683.377	0.08
683.407	11.08
683.437	9.08
683.468	20.08
683.498	16.08
683.528	4.08
683.558	21.08
683.588	-3.92
683.618	2.08
683.648	5.08
683.678	23.08
683.708	11.08
683.739	4.08
683.769	10.08
683.799	7.08
683.829	11.08
683.859	17.08
683.889	24.08
683.919	2.08
683.949	4.08
683.979	-0.92
684.009	-8.92
684.039	-3.92
684.07	4.08
684.1	24.08
684.13	9.08
684.16	9.08
684.19	8.08
684.22	6.08
684.25	14.08
684.28	1.08
684.31	14.08
684.34	-2.92
684.37	9.08
684.4	21.08
684.43	5.08
684.46	9.08
684.49	17.08
684.52	14.08
684.55	21.08
684.58	0.08
684.61	7.08
684.64	25.08
684.67	17.08
684.7	9.08
684.73	14.08
684.76	12.08
684.79	13.08
684.82	6.08
684.85	5.08
684.88	-7.92
684.91	9.08
684.94	8.08
684.97	-0.92
685	12.08
685.03	-0.92
685.06	5.08
685.09	-10.92
685.12	26.08
685.15	-9.92
685.18	12.08
685.21	7.08
685.24	22.08
685.27	38.08
685.3	2.08
685.33	5.08
685.36	16.08
685.39	1.08
685.42	7.08
685.45	12.08
685.48	11.08
685.51	-6.92
685.54	4.08
685.569	14.08
685.599	6.08
685.629	-2.92
685.659	16.08
685.689	-8.92
685.719	2.08
685.749	-1.92
685.779	7.08
685.809	7.08
685.839	0.08
685.869	15.08
685.898	7.08
685.928	15.08
685.958	-11.92
685.988	15.08
686.018	3.08
686.048	-2.92
686.078	16.08
686.108	6.08
686.137	23.08
686.167	29.08
686.197	-12.92
686.227	3.08
686.257	38.08
686.287	21.08
686.317	4.08
686.346	6.08
686.376	-1.92
686.406	6.08
686.436	20.08
686.466	1.08
686.496	12.08
686.525	2.08
686.555	-5.92
686.585	20.08
686.615	29.08
686.645	14.08
686.675	13.08
686.704	1.08
686.734	-4.92
686.764	-17.92
686.794	6.08
686.824	4.08
686.853	16.08
686.883	7.08
686.913	16.08
686.943	9.08
686.973	3.08
687.002	12.08
687.032	14.08
687.062	5.08
687.092	14.08
687.121	15.08
687.151	20.08
687.181	5.08
687.211	-2.92
687.24	1.08
687.27	10.08
687.3	15.08
687.33	14.08
687.359	-18.92
687.389	17.08
687.419	7.08
687.449	10.08
687.478	10.08
687.508	-2.92
687.538	23.08
687.568	0.08
687.597	8.08
687.627	21.08
687.657	5.08
687.686	6.08
687.716	22.08
687.746	2.08
687.776	-2.92
687.805	-0.92
687.835	3.08
687.865	17.08
687.894	1.08
687.924	3.08
687.954	2.08
687.983	-2.92
688.013	-1.92
688.043	14.08
688.072	8.08
688.102	13.08
688.132	3.08
688.161	-12.92
688.191	8.08
688.221	27.08
688.25	2.08
688.28	10.08
688.31	0.08
688.339	2.08
688.369	2.08
688.399	14.08
688.428	-4.92
688.458	10.08
688.488	-8.92
688.517	15.08
688.547	2.08
688.576	19.08
688.606	17.08
688.636	2.08
688.665	10.08
688.695	19.08
688.725	16.08
688.754	2.08
688.784	4.08
688.813	20.08
688.843	10.08
688.873	12.08
688.902	6.08
688.932	-7.92
688.961	-3.92
688.991	32.08
689.02	18.08
689.05	23.08
689.08	16.08
689.109	15.08
689.139	-18.92
689.168	7.08
689.198	5.08
689.227	5.08
689.257	6.08
689.287	18.08
689.316	-3.92
689.346	-8.92
689.375	-0.92
689.405	24.08
689.434	-7.92
689.464	8.08
689.493	9.08
689.523	25.08
689.552	-3.92
689.582	3.08
689.611	-2.92
689.641	-0.92
689.67	9.08
689.7	17.08
689.73	31.08
689.759	11.08
689.789	26.08
689.818	2.08
689.848	0.08
689.877	11.08
689.906	8.08
689.936	0.08
689.965	2.08
689.995	11.08
690.024	14.08
690.054	13.08
690.083	21.08
690.113	7.08
690.142	3.08
690.172	19.08
690.201	13.08
690.231	7.08
690.26	16.08
690.29	13.08
690.319	22.08
690.348	11.08
690.378	15.08
690.407	23.08
690.437	-4.92
690.466	0.08
690.496	-2.92
690.525	9.08
690.555	9.08
690.584	5.08
690.613	10.08
690.643	15.08
690.672	2.08
690.702	24.08
690.731	15.08
690.76	39.08
690.79	75.08
690.819	54.08
690.849	44.08
690.878	40.08
690.907	4.08
690.937	28.08
690.966	9.08
690.996	3.08
691.025	0.08
691.054	6.08
691.084	5.08
691.113	10.08
691.142	17.08
691.172	17.08
691.201	11.08
691.23	-2.92
691.26	27.08
691.289	6.08
691.319	11.08
691.348	-1.92
691.377	11.08
691.407	17.08
691.436	14.08
691.465	7.08
691.495	-1.92
691.524	-6.92
691.553	-4.92
691.583	4.08
691.612	29.08
691.641	-4.92
691.67	1.08
691.7	22.08
691.729	5.08
691.758	13.08
691.788	9.08
691.817	3.08
691.846	5.08
691.876	0.08
691.905	7.08
691.934	14.08
691.963	19.08
691.993	17.08
692.022	-1.92
692.051	-12.92
692.081	17.08
692.11	17.08
692.139	19.08
692.168	10.08
692.198	14.08
692.227	8.08
692.256	17.08
692.285	11.08
692.315	21.08
692.344	27.08
692.373	25.08
692.402	-1.92
692.432	-8.92
692.461	4.08
692.49	10.08
692.519	9.08
692.548	30.08
692.578	8.08
692.607	-1.92
692.636	12.08
692.665	15.08
692.694	-0.92
692.724	2.08
692.753	6.08
692.782	1.08
692.811	4.08
692.84	5.08
692.87	12.08
692.899	2.08
692.928	3.08
692.957	-2.92
692.986	11.08
693.016	20.08
693.045	10.08
693.074	11.08
693.103	1.08
693.132	10.08
693.161	11.08
693.191	12.08
693.22	-1.92
693.249	1.08
693.278	3.08
693.307	7.08
693.336	-6.92
693.365	-10.92
693.395	3.08
693.424	-4.92
693.453	43.08
693.482	4.08
693.511	18.08
693.54	15.08
693.569	14.08
693.598	17.08
693.628	19.08
693.657	2.08
693.686	10.08
693.715	14.08
693.744	15.08
693.773	31.08
693.802	11.08
693.831	8.08
693.86	19.08
693.889	5.08
693.919	29.08
693.948	-3.92
693.977	-13.92
694.006	3.08
694.035	-5.92
694.064	13.08
694.093	6.08
694.122	8.08
694.151	3.08
694.18	-2.92
694.209	14.08
694.238	-6.92
694.267	22.08
694.296	10.08
694.325	9.08
694.354	18.08
694.383	26.08
694.412	6.08
694.441	12.08
694.471	-1.92
694.5	0.08
694.529	4.08
694.558	24.08
694.587	27.08
694.616	6.08
694.645	14.08
694.674	23.08
694.703	23.08
694.732	5.08
694.761	12.08
694.79	22.08
694.819	-8.92
694.848	4.08
694.877	36.08
694.906	23.08
694.935	15.08
694.963	19.08
694.992	10.08
695.021	4.08
695.05	23.08
695.079	10.08
695.108	4.08
695.137	30.08
695.166	21.08
695.195	11.08
695.224	31.08
695.253	11.08
695.282	17.08
695.311	22.08
695.34	13.08
695.369	23.08
695.398	26.08
695.427	14.08
695.456	12.08
695.485	9.08
695.513	10.08
695.542	4.08
695.571	12.08
695.6	15.08
695.629	7.08
695.658	25.08
695.687	8.08
695.716	2.08
695.745	20.08
695.774	4.08
695.802	9.08
695.831	15.08
695.86	31.08
695.889	15.08
695.918	14.08
695.947	-0.92
695.976	18.08
696.005	4.08
696.033	17.08
696.062	12.08
696.091	8.08
696.12	13.08
696.149	26.08
696.178	15.08
696.207	12.08
696.235	-3.92
696.264	8.08
696.293	16.08
696.322	4.08
696.351	16.08
696.38	7.08
696.408	5.08
696.437	-3.92
696.466	14.08
696.495	27.08
696.524	28.08
696.553	12.08
696.581	28.08
696.61	13.08
696.639	3.08
696.668	14.08
696.697	-6.92
696.725	23.08
696.754	4.08
696.783	6.08
696.812	6.08
696.84	-2.92
696.869	10.08
696.898	7.08
696.927	-6.92
696.956	18.08
696.984	15.08
697.013	14.08
697.042	17.08
697.071	19.08
697.099	9.08
697.128	27.08
697.157	11.08
697.186	16.08
697.214	11.08
697.243	-0.92
697.272	5.08
697.301	14.08
697.329	17.08
697.358	20.08
697.387	28.08
697.415	11.08
697.444	0.08
697.473	13.08
697.502	2.08
697.53	5.08
697.559	12.08
697.588	18.08
697.616	8.08
697.645	7.08
697.674	25.08
697.703	9.08
697.731	26.08
697.76	5.08
697.789	4.08
697.817	21.08
697.846	21.08
697.875	-6.92
697.903	27.08
697.932	12.08
697.961	17.08
697.989	16.08
698.018	19.08
698.047	13.08
698.075	21.08
698.104	-0.92
698.133	0.08
698.161	-10.92
698.19	-4.92
698.218	9.08
698.247	14.08
698.276	22.08
698.304	30.08
698.333	14.08
698.362	4.08
698.39	1.08
698.419	12.08
698.447	4.08
698.476	8.08
698.505	7.08
698.533	5.08
698.562	20.08
698.591	-4.92
698.619	-10.92
698.648	19.08
698.676	8.08
698.705	7.08
698.733	-15.92
698.762	21.08
698.791	12.08
698.819	20.08
698.848	17.08
698.876	9.08
698.905	17.08
698.933	14.08
698.962	17.08
698.991	3.08
699.019	28.08
699.048	18.08
699.076	11.08
699.105	4.08
699.133	10.08
699.162	26.08
699.19	19.08
699.219	12.08
699.248	6.08
699.276	-4.92
699.305	0.08
699.333	13.08
699.362	-1.92
699.39	23.08
699.419	-5.92
699.447	10.08
699.476	18.08
699.504	1.08
699.533	9.08
699.561	3.08
699.59	-2.92
699.618	12.08
699.647	11.08
699.675	5.08
699.704	11.08
699.732	20.08
699.761	13.08
699.789	14.08
699.818	10.08
699.846	8.08
699.874	7.08
699.903	4.08
699.931	-1.92
699.96	16.08
699.988	-0.92
700.017	8.08
700.045	-1.92
700.074	15.08
700.102	10.08
700.13	-9.92
700.159	6.08
700.187	14.08
700.216	8.08
700.244	3.08
700.273	-1.92
700.301	25.08
700.329	4.08
700.358	1.08
700.386	7.08
700.415	13.08
700.443	17.08
700.472	-2.92
700.5	7.08
700.528	12.08
700.557	11.08
700.585	16.08
700.614	3.08
700.642	6.08
700.67	21.08
700.699	14.08
700.727	11.08
700.755	7.08
700.784	13.08
700.812	6.08
700.841	17.08
700.869	13.08
700.897	-20.92
700.926	0.08
700.954	16.08
700.982	-0.92
701.011	7.08
701.039	9.08
701.067	17.08
701.096	16.08
701.124	-13.92
701.152	3.08
701.181	7.08
701.209	-4.92
701.237	-8.92
701.266	-4.92
701.294	2.08
701.322	18.08
701.351	14.08
701.379	12.08
701.407	-5.92
701.435	-3.92
701.464	17.08
701.492	26.08
701.52	0.08
701.549	6.08
701.577	-0.92
701.605	7.08
701.634	6.08
701.662	17.08
701.69	11.08
701.718	8.08
701.747	3.08
701.775	3.08
701.803	-1.92
701.831	15.08
701.86	-1.92
701.888	13.08
701.916	15.08
701.944	11.08
701.973	12.08
702.001	-2.92
702.029	-13.92
702.057	-6.92
702.086	9.08
702.114	3.08
702.142	20.08
702.17	3.08
702.199	5.08
702.227	0.08
702.255	-3.92
702.283	-4.92
702.311	-5.92
702.34	1.08
702.368	-5.92
702.396	-0.92
702.424	0.08
702.452	6.08
702.481	2.08
702.509	21.08
702.537	13.08
702.565	2.08
702.593	-0.92
702.621	3.08
702.65	11.08
702.678	0.08
702.706	11.08
702.734	4.08
702.762	21.08
702.79	2.08
702.819	25.08
702.847	4.08
702.875	12.08
702.903	14.08
702.931	4.08
702.959	7.08
702.988	18.08
703.016	-9.92
703.044	-2.92
703.072	13.08
703.1	2.08
703.128	4.08
703.156	15.08
703.184	4.08
703.212	24.08
703.241	10.08
703.269	15.08
703.297	7.08
703.325	19.08
703.353	-1.92
703.381	-6.92
703.409	-4.92
703.437	-7.92
703.465	0.08
703.493	-2.92
703.522	5.08
703.55	10.08
703.578	14.08
703.606	-11.92
703.634	2.08
703.662	-6.92
703.69	5.08
703.718	-1.92
703.746	16.08
703.774	23.08
703.802	25.08
703.83	0.08
703.858	-0.92
703.886	9.08
703.914	2.08
703.942	9.08
703.97	9.08
703.998	11.08
704.027	33.08
704.055	23.08
704.083	5.08
704.111	1.08
704.139	-1.92
704.167	-2.92
704.195	16.08
704.223	-3.92
704.251	-4.92
704.279	16.08
704.307	6.08
704.335	-9.92
704.363	15.08
704.391	14.08
704.419	-1.92
704.447	-6.92
704.475	-0.92
704.503	-6.92
704.531	10.08
704.558	14.08
704.586	16.08
704.614	4.08
704.642	1.08
704.67	-3.92
704.698	7.08
704.726	20.08
704.754	8.08
704.782	-7.92
704.81	4.08
704.838	15.08
704.866	21.08
704.894	-17.92
704.922	4.08
704.95	11.08
704.978	20.08
705.006	18.08
705.034	16.08
705.061	-4.92
705.089	6.08
705.117	-7.92
705.145	1.08
705.173	8.08
705.201	13.08
705.229	11.08
705.257	0.08
705.285	8.08
705.313	10.08
705.34	4.08
705.368	0.08
705.396	6.08
705.424	9.08
705.452	-7.92
705.48	-3.92
705.508	1.08
705.536	15.08
705.563	11.08
705.591	16.08
705.619	10.08
705.647	11.08
705.675	3.08
705.703	10.08
705.731	13.08
705.758	12.08
705.786	2.08
705.814	25.08
705.842	15.08
705.87	15.08
705.898	10.08
705.925	3.08
705.953	9.08
705.981	5.08
706.009	12.08
706.037	11.08
706.065	7.08
706.092	-8.92
706.12	3.08
706.148	1.08
706.176	1.08
706.204	0.08
706.231	5.08
706.259	-0.92
706.287	9.08
706.315	12.08
706.342	-10.92
706.37	4.08
706.398	24.08
706.426	11.08
706.454	-0.92
706.481	8.08
706.509	-0.92
706.537	14.08
706.565	15.08
706.592	5.08
706.62	6.08
706.648	12.08
706.676	8.08
706.703	10.08
706.731	-3.92
706.759	-6.92
706.787	15.08
706.814	7.08
706.842	7.08
706.87	11.08
706.897	10.08
706.925	10.08
706.953	20.08
706.981	11.08
707.008	13.08
707.036	3.08
707.064	17.08
707.091	-10.92
707.119	11.08
707.147	4.08
707.174	6.08
707.202	22.08
707.23	2.08
707.258	13.08
707.285	6.08
707.313	8.08
707.341	1.08
707.368	-6.92
707.396	5.08
707.424	19.08
707.451	3.08
707.479	16.08
707.507	15.08
707.534	-9.92
707.562	8.08
707.59	0.08
707.617	2.08
707.645	6.08
707.672	-2.92
707.7	21.08
707.728	17.08
707.755	8.08
707.783	8.08
707.811	17.08
707.838	-0.92
707.866	3.08
707.893	-4.92
707.921	-6.92
707.949	-7.92
707.976	2.08
708.004	-0.92
708.031	-1.92
708.059	4.08
708.087	9.08
708.114	-1.92
708.142	7.08
708.169	3.08
708.197	0.08
708.225	6.08
708.252	11.08
708.28	35.08
708.307	-0.92
708.335	19.08
708.362	-8.92
708.39	16.08
708.418	-0.92
708.445	-2.92
708.473	-8.92
708.5	1.08
708.528	3.08
708.555	6.08
708.583	7.08
708.61	-3.92
708.638	-0.92
708.665	3.08
708.693	7.08
708.72	5.08
708.748	6.08
708.776	-5.92
708.803	13.08
708.831	5.08
708.858	17.08
708.886	7.08
708.913	-1.92
708.941	0.08
708.968	16.08
708.996	-6.92
709.023	25.08
709.051	-0.92
709.078	-11.92
709.105	6.08
709.133	-10.92
709.16	-13.92
709.188	7.08
709.215	17.08
709.243	24.08
709.27	-2.92
709.298	12.08
709.325	3.08
709.353	3.08
709.38	7.08
709.408	19.08
709.435	3.08
709.462	16.08
709.49	7.08
709.517	-4.92
709.545	5.08
709.572	3.08
709.6	8.08
709.627	14.08
709.655	4.08
709.682	-3.92
709.709	-3.92
709.737	6.08
709.764	-1.92
709.792	25.08
709.819	19.08
709.846	0.08
709.874	8.08
709.901	26.08
709.929	41.08
709.956	11.08
709.983	-13.92
710.011	14.08
710.038	4.08
710.066	-12.92
710.093	20.08
710.12	7.08
710.148	1.08
710.175	4.08
710.202	-4.92
710.23	4.08
710.257	15.08
710.284	11.08
710.312	-1.92
710.339	7.08
710.366	-10.92
710.394	-1.92
710.421	10.08
710.448	17.08
710.476	-1.92
710.503	11.08
710.53	13.08
710.558	12.08
710.585	19.08
710.612	8.08
710.64	-9.92
710.667	10.08
710.694	0.08
710.722	-11.92
710.749	-0.92
710.776	3.08
710.804	25.08
710.831	13.08
710.858	6.08
710.885	8.08
710.913	6.08
710.94	29.08
710.967	15.08
710.995	24.08
711.022	-0.92
711.049	2.08
711.076	0.08
711.104	2.08
711.131	-9.92
711.158	-1.92
711.185	16.08
711.213	2.08
711.24	14.08
711.267	-1.92
711.294	-1.92
711.322	14.08
711.349	-3.92
711.376	-2.92
711.403	12.08
711.431	3.08
711.458	4.08
711.485	2.08
711.512	7.08
711.54	3.08
711.567	11.08
711.594	-0.92
711.621	0.08
711.648	4.08
711.676	3.08
711.703	13.08
711.73	-9.92
711.757	12.08
711.784	-7.92
711.812	2.08
711.839	4.08
711.866	-2.92
711.893	2.08
711.92	21.08
711.947	18.08
711.975	13.08
712.002	5.08
712.029	-0.92
712.056	12.08
712.083	22.08
712.11	-23.92
712.138	9.08
712.165	4.08
712.192	11.08
712.219	-0.92
712.246	3.08
712.273	2.08
712.3	3.08
712.328	8.08
712.355	12.08
712.382	-4.92
712.409	10.08
712.436	-11.92
712.463	8.08
712.49	16.08
712.517	12.08
712.544	8.08
712.572	16.08
712.599	10.08
712.626	15.08
712.653	2.08
712.68	-15.92
712.707	-0.92
712.734	13.08
712.761	1.08
712.788	22.08
712.815	3.08
712.842	14.08
712.87	12.08
712.897	8.08
712.924	-19.92
712.951	5.08
712.978	25.08
713.005	-2.92
713.032	8.08
713.059	0.08
713.086	2.08
713.113	-3.92
713.14	-5.92
713.167	5.08
713.194	12.08
713.221	-2.92
713.248	11.08
713.275	0.08
713.302	-7.92
713.329	16.08
713.356	15.08
713.383	-4.92
713.41	4.08
713.437	-4.92
713.464	-0.92
713.491	13.08
713.518	8.08
713.545	3.08
713.572	4.08
713.599	31.08
713.626	13.08
713.653	21.08
713.68	6.08
713.707	4.08
713.734	6.08
713.761	-1.92
713.788	-4.92
713.815	22.08
713.842	19.08
713.869	-0.92
713.896	24.08
713.923	6.08
713.95	19.08
713.977	-7.92
714.004	6.08
714.031	5.08
714.058	6.08
714.085	-5.92
714.112	23.08
714.139	-12.92
714.165	-1.92
714.192	3.08
714.219	8.08
714.246	16.08
714.273	2.08
714.3	8.08
714.327	16.08
714.354	15.08
714.381	4.08
714.408	1.08
714.435	4.08
714.461	2.08
714.488	-0.92
714.515	-2.92
714.542	-5.92
714.569	1.08
714.596	-8.92
714.623	-28.92
714.65	1.08
714.677	-5.92
714.703	16.08
714.73	13.08
714.757	13.08
714.784	11.08
714.811	-2.92
714.838	22.08
714.865	3.08
714.891	16.08
714.918	1.08
714.945	-2.92
714.972	-0.92
714.999	14.08
715.026	-5.92
715.052	10.08
715.079	-9.92
715.106	3.08
715.133	12.08
715.16	-2.92
715.187	24.08
715.213	11.08
715.24	-5.92
715.267	-7.92
715.294	-5.92
715.321	5.08
715.347	7.08
715.374	2.08
715.401	6.08
715.428	8.08
715.455	4.08
715.481	-0.92
715.508	11.08
715.535	9.08
715.562	43.08
715.588	5.08
715.615	-1.92
715.642	-5.92
715.669	14.08
715.695	-18.92
715.722	4.08
715.749	14.08
715.776	13.08
715.802	13.08
715.829	10.08
715.856	-7.92
715.883	22.08
715.909	-0.92
715.936	12.08
715.963	12.08
715.99	-7.92
716.016	-3.92
716.043	1.08
716.07	-3.92
716.096	7.08
716.123	8.08
716.15	7.08
716.177	0.08
716.203	6.08
716.23	8.08
716.257	22.08
716.283	0.08
716.31	0.08
716.337	5.08
716.363	2.08
716.39	11.08
716.417	23.08
716.443	13.08
716.47	22.08
716.497	26.08
716.523	21.08
716.55	14.08
716.577	18.08
716.603	6.08
716.63	11.08
716.657	14.08
716.683	-0.92
716.71	7.08
716.737	7.08
716.763	17.08
716.79	14.08
716.817	18.08
716.843	12.08
716.87	4.08
716.897	23.08
716.923	22.08
716.95	-3.92
716.976	1.08
717.003	7.08
717.03	24.08
717.056	9.08
717.083	14.08
717.109	9.08
717.136	3.08
717.163	-0.92
717.189	1.08
717.216	-6.92
717.242	-0.92
717.269	1.08
717.296	8.08
717.322	6.08
717.349	2.08
717.375	31.08
717.402	3.08
717.428	4.08
717.455	15.08
717.481	10.08
717.508	19.08
717.535	13.08
717.561	15.08
717.588	-4.92
717.614	12.08
717.641	11.08
717.667	6.08
717.694	-5.92
717.72	14.08
717.747	10.08
717.773	11.08
717.8	22.08
717.826	14.08
717.853	4.08
717.88	14.08
717.906	16.08
717.933	12.08
717.959	10.08
717.986	3.08
718.012	0.08
718.039	25.08
718.065	17.08
718.092	17.08
718.118	2.08
718.144	2.08
718.171	23.08
718.197	32.08
718.224	3.08
718.25	11.08
718.277	5.08
718.303	-2.92
718.33	-7.92
718.356	-5.92
718.383	-22.92
718.409	3.08
718.436	9.08
718.462	7.08
718.489	0.08
718.515	11.08
718.541	12.08
718.568	4.08
718.594	-0.92
718.621	14.08
718.647	13.08
718.674	18.08
718.7	8.08
718.726	3.08
718.753	6.08
718.779	22.08
718.806	6.08
718.832	-2.92
718.858	2.08
718.885	3.08
718.911	15.08
718.938	10.08
718.964	0.08
718.99	17.08
719.017	23.08
719.043	9.08
719.07	12.08
719.096	1.08
719.122	12.08
719.149	12.08
719.175	3.08
719.201	26.08
719.228	2.08
719.254	-0.92
719.281	-0.92
719.307	4.08
719.333	16.08
719.36	8.08
719.386	5.08
719.412	-4.92
719.439	-9.92
719.465	1.08
719.491	-13.92
719.518	9.08
719.544	17.08
719.57	10.08
719.597	3.08
719.623	-7.92
719.649	-1.92
719.675	-5.92
719.702	15.08
719.728	-4.92
719.754	2.08
719.781	3.08
719.807	-0.92
719.833	6.08
719.86	16.08
719.886	7.08
719.912	18.08
719.938	2.08
719.965	12.08
719.991	19.08
720.017	19.08
720.044	-10.92
720.07	7.08
720.096	13.08
720.122	3.08
720.149	9.08
720.175	25.08
720.201	5.08
720.227	1.08
720.254	8.08
720.28	19.08
720.306	10.08
720.332	4.08
720.359	10.08
720.385	22.08
720.411	-9.92
720.437	4.08
720.463	19.08
720.49	20.08
720.516	-1.92
720.542	7.08
720.568	3.08
720.595	9.08
720.621	4.08
720.647	15.08
720.673	3.08
720.699	0.08
720.725	10.08
720.752	5.08
720.778	6.08
720.804	21.08
720.83	23.08
720.856	-12.92
720.883	-11.92
720.909	4.08
720.935	9.08
720.961	15.08
720.987	12.08
721.013	10.08
721.04	8.08
721.066	2.08
721.092	27.08
721.118	6.08
721.144	12.08
721.17	5.08
721.196	4.08
721.223	4.08
721.249	7.08
721.275	17.08
721.301	4.08
721.327	12.08
721.353	21.08
721.379	18.08
721.405	10.08
721.432	12.08
721.458	-10.92
721.484	12.08
721.51	-5.92
721.536	-4.92
721.562	4.08
721.588	3.08
721.614	3.08
721.64	3.08
721.666	3.08
721.693	8.08
721.719	-1.92
721.745	-8.92
721.771	-0.92
721.797	11.08
721.823	5.08
721.849	23.08
721.875	17.08
721.901	-0.92
721.927	8.08
721.953	11.08
721.979	16.08
722.005	20.08
722.031	7.08
722.057	15.08
722.083	2.08
722.109	19.08
722.135	11.08
722.161	13.08
722.187	-2.92
722.214	17.08
722.24	11.08
722.266	3.08
722.292	12.08
722.318	37.08
722.344	20.08
722.37	10.08
722.396	5.08
722.422	-9.92
722.448	3.08
722.474	8.08
722.5	24.08
722.526	26.08
722.552	5.08
722.578	-2.92
722.603	23.08
722.629	-9.92
722.655	3.08
722.681	-8.92
722.707	-12.92
722.733	4.08
722.759	6.08
722.785	9.08
722.811	10.08
722.837	10.08
722.863	11.08
722.889	4.08
722.915	0.08
722.941	5.08
722.967	3.08
722.993	13.08
723.019	10.08
723.045	3.08
723.071	7.08
723.097	20.08
723.122	10.08
723.148	3.08
723.174	8.08
723.2	27.08
723.226	-1.92
723.252	5.08
723.278	12.08
723.304	-1.92
723.33	8.08
723.356	-2.92
723.381	-3.92
723.407	-1.92
723.433	16.08
723.459	6.08
723.485	3.08
723.511	33.08
723.537	0.08
723.563	4.08
723.588	14.08
723.614	12.08
723.64	-2.92
723.666	21.08
723.692	19.08
723.718	13.08
723.744	-4.92
723.769	-0.92
723.795	-7.92
723.821	-1.92
723.847	-10.92
723.873	-4.92
723.899	6.08
723.924	6.08
723.95	7.08
723.976	5.08
724.002	-10.92
724.028	14.08
724.053	-8.92
724.079	10.08
724.105	4.08
724.131	-0.92
724.157	6.08
724.182	18.08
724.208	11.08
724.234	-5.92
724.26	-4.92
724.286	10.08
724.311	5.08
724.337	6.08
724.363	3.08
724.389	7.08
724.415	-3.92
724.44	16.08
724.466	8.08
724.492	2.08
724.518	19.08
724.543	-0.92
724.569	11.08
724.595	4.08
724.621	2.08
724.646	-0.92
724.672	-4.92
724.698	9.08
724.723	-0.92
724.749	4.08
724.775	9.08
724.801	8.08
724.826	3.08
724.852	7.08
724.878	0.08
724.904	-9.92
724.929	10.08
724.955	-12.92
724.981	-2.92
725.006	3.08
725.032	3.08
725.058	10.08
725.083	5.08
725.109	-4.92
725.135	6.08
725.161	26.08
725.186	1.08
725.212	4.08
725.238	22.08
725.263	12.08
725.289	-15.92
725.315	4.08
725.34	-4.92
725.366	21.08
725.392	6.08
725.417	18.08
725.443	18.08
725.468	8.08
725.494	17.08
725.52	10.08
725.545	-8.92
725.571	-1.92
725.597	4.08
725.622	15.08
725.648	-13.92
725.674	16.08
725.699	10.08
725.725	10.08
725.75	25.08
725.776	5.08
725.802	-0.92
725.827	14.08
725.853	-0.92
725.878	8.08
725.904	-5.92
725.93	9.08
725.955	-3.92
725.981	8.08
726.006	11.08
726.032	13.08
726.057	1.08
726.083	6.08
726.109	5.08
726.134	9.08
726.16	-3.92
726.185	7.08
726.211	10.08
726.236	8.08
726.262	15.08
726.288	6.08
726.313	17.08
726.339	1.08
726.364	24.08
726.39	21.08
726.415	16.08
726.441	1.08
726.466	2.08
726.492	14.08
726.517	6.08
726.543	12.08
726.568	-7.92
726.594	15.08
726.619	11.08
726.645	8.08
726.67	19.08
726.696	22.08
726.721	5.08
726.747	-12.92
726.772	5.08
726.798	-8.92
726.823	9.08
726.849	-0.92
726.874	3.08
726.9	48.08
726.925	17.08
726.951	-10.92
726.976	23.08
727.002	9.08
727.027	7.08
727.053	5.08
727.078	-8.92
727.104	-2.92
727.129	-5.92
727.155	-1.92
727.18	16.08
727.205	16.08
727.231	10.08
727.256	-5.92
727.282	13.08
727.307	23.08
727.333	8.08
727.358	-4.92
727.383	-4.92
727.409	1.08
727.434	26.08
727.46	9.08
727.485	8.08
727.511	8.08
727.536	-2.92
727.561	-3.92
727.587	3.08
727.612	14.08
727.637	14.08
727.663	0.08
727.688	29.08
727.714	10.08
727.739	-6.92
727.764	-8.92
727.79	-0.92
727.815	10.08
727.841	15.08
727.866	13.08
727.891	10.08
727.917	13.08
727.942	1.08
727.967	2.08
727.993	-17.92
728.018	-9.92
728.043	0.08
728.069	10.08
728.094	18.08
728.119	4.08
728.145	8.08
728.17	2.08
728.195	10.08
728.221	15.08
728.246	5.08
728.271	-13.92
728.297	4.08
728.322	5.08
728.347	5.08
728.373	18.08
728.398	13.08
728.423	-7.92
728.448	3.08
728.474	4.08
728.499	7.08
728.524	1.08
728.55	-6.92
728.575	-1.92
728.6	4.08
728.625	-7.92
728.651	10.08
728.676	-3.92
728.701	-0.92
728.727	-4.92
728.752	8.08
728.777	2.08
728.802	-3.92
728.828	6.08
728.853	9.08
728.878	-1.92
728.903	2.08
728.929	8.08
728.954	-10.92
728.979	21.08
729.004	3.08
729.03	-2.92
729.055	14.08
729.08	8.08
729.105	-1.92
729.13	14.08
729.156	19.08
729.181	4.08
729.206	-5.92
729.231	12.08
729.256	8.08
729.282	14.08
729.307	2.08
729.332	0.08
729.357	-0.92
729.382	25.08
729.408	-0.92
729.433	12.08
729.458	8.08
729.483	21.08
729.508	10.08
729.533	15.08
729.559	7.08
729.584	-0.92
729.609	10.08
729.634	21.08
729.659	2.08
729.684	2.08
729.71	15.08
729.735	8.08
729.76	8.08
729.785	14.08
729.81	14.08
729.835	12.08
729.86	27.08
729.886	16.08
729.911	25.08
729.936	8.08
729.961	43.08
729.986	26.08
730.011	65.08
730.036	212.08
730.061	1008.08
730.086	2661.08
730.112	3332.08
730.137	2826.08
730.162	2134.08
730.187	1662.08
730.212	1262.08
730.237	791.08
730.262	452.08
730.287	235.08
730.312	163.08
730.337	74.08
730.362	53.08
730.387	50.08
730.413	20.08
730.438	20.08
730.463	26.08
730.488	14.08
730.513	22.08
730.538	11.08
730.563	37.08
730.588	23.08
730.613	26.08
730.638	29.08
730.663	17.08
730.688	37.08
730.713	12.08
730.738	0.08
730.763	13.08
730.788	4.08
730.813	20.08
730.838	3.08
730.863	3.08
730.888	11.08
730.913	-2.92
730.938	3.08
730.963	36.08
730.988	114.08
731.013	411.08
731.038	599.08
731.063	601.08
731.088	479.08
731.113	345.08
731.138	268.08
731.163	189.08
731.188	111.08
731.213	63.08
731.238	47.08
731.263	26.08
731.288	8.08
731.313	17.08
731.338	11.08
731.363	2.08
731.388	14.08
731.413	6.08
731.438	11.08
731.463	21.08
731.487	2.08
731.512	-17.92
731.537	8.08
731.562	10.08
731.587	28.08
731.612	-1.92
731.637	0.08
731.662	3.08
731.687	15.08
731.712	-17.92
731.737	5.08
731.762	2.08
731.786	2.08
731.811	23.08
731.836	-4.92
731.861	15.08
731.886	-2.92
731.911	15.08
731.936	23.08
731.961	2.08
731.986	-1.92
732.01	-1.92
732.035	15.08
732.06	17.08
732.085	16.08
732.11	3.08
732.135	3.08
732.16	-3.92
732.184	5.08
732.209	10.08
732.234	9.08
732.259	1.08
732.284	20.08
732.309	3.08
732.334	10.08
732.358	-4.92
732.383	-13.92
732.408	-4.92
732.433	3.08
732.458	8.08
732.482	5.08
732.507	8.08
732.532	10.08
732.557	4.08
732.582	1.08
732.607	28.08
732.631	67.08
732.656	86.08
732.681	154.08
732.706	338.08
732.73	449.08
732.755	419.08
732.78	315.08
732.805	238.08
732.83	180.08
732.854	110.08
732.879	75.08
732.904	34.08
732.929	22.08
732.953	35.08
732.978	22.08
733.003	5.08
733.028	5.08
733.052	21.08
733.077	9.08
733.102	22.08
733.127	13.08
733.151	14.08
733.176	10.08
733.201	10.08
733.226	-1.92
733.25	-1.92
733.275	-2.92
733.3	3.08
733.324	31.08
733.349	13.08
733.374	27.08
733.399	7.08
733.423	10.08
733.448	-1.92
733.473	4.08
733.497	-3.92
733.522	-3.92
733.547	16.08
733.571	22.08
733.596	7.08
733.621	7.08
733.646	2.08
733.67	5.08
733.695	-4.92
733.72	9.08
733.744	24.08
733.769	16.08
733.794	18.08
733.818	21.08
733.843	7.08
733.867	1.08
733.892	0.08
733.917	11.08
733.941	8.08
733.966	-13.92
733.991	13.08
734.015	30.08
734.04	5.08
734.065	-0.92
734.089	16.08
734.114	16.08
734.138	17.08
734.163	-9.92
734.188	6.08
734.212	25.08
734.237	15.08
734.261	11.08
734.286	11.08
734.311	2.08
734.335	1.08
734.36	-2.92
734.384	11.08
734.409	9.08
734.434	10.08
734.458	6.08
734.483	2.08
734.507	2.08
734.532	0.08
734.556	-3.92
734.581	-1.92
734.606	2.08
734.63	2.08
734.655	17.08
734.679	-3.92
734.704	12.08
734.728	9.08
734.753	-5.92
734.777	9.08
734.802	5.08
734.826	14.08
734.851	6.08
734.876	7.08
734.9	19.08
734.925	19.08
734.949	9.08
734.974	7.08
734.998	18.08
735.023	-4.92
735.047	4.08
735.072	12.08
735.096	16.08
735.121	21.08
735.145	-10.92
735.17	6.08
735.194	12.08
735.219	5.08
735.243	14.08
735.268	14.08
735.292	6.08
735.317	15.08
735.341	8.08
735.365	-6.92
735.39	1.08
735.414	11.08
735.439	10.08
735.463	16.08
735.488	24.08
735.512	7.08
735.537	4.08
735.561	19.08
735.586	7.08
735.61	2.08
735.634	-2.92
735.659	14.08
735.683	16.08
735.708	-8.92
735.732	4.08
735.757	7.08
735.781	5.08
735.805	2.08
735.83	6.08
735.854	16.08
735.879	17.08
735.903	10.08
735.927	22.08
735.952	29.08
735.976	7.08
736.001	13.08
736.025	10.08
736.049	8.08
736.074	17.08
736.098	6.08
736.123	10.08
736.147	6.08
736.171	12.08
736.196	39.08
736.22	2.08
736.244	1.08
736.269	21.08
736.293	3.08
736.317	11.08
736.342	5.08
736.366	17.08
736.39	11.08
736.415	3.08
736.439	8.08
736.463	13.08
736.488	11.08
736.512	8.08
736.536	18.08
736.561	16.08
736.585	14.08
736.609	25.08
736.634	0.08
736.658	-1.92
736.682	-8.92
736.707	-12.92
736.731	-7.92
736.755	-7.92
736.78	12.08
736.804	16.08
736.828	20.08
736.852	12.08
736.877	5.08
736.901	12.08
736.925	8.08
736.949	8.08
736.974	0.08
736.998	-9.92
737.022	15.08
737.047	2.08
737.071	-1.92
737.095	23.08
737.119	18.08
737.144	13.08
737.168	11.08
737.192	-0.92
737.216	-0.92
737.241	-4.92
737.265	14.08
737.289	-2.92
737.313	13.08
737.337	3.08
737.362	10.08
737.386	0.08
737.41	-6.92
737.434	6.08
737.459	8.08
737.483	18.08
737.507	-0.92
737.531	6.08
737.555	12.08
737.58	21.08
737.604	17.08
737.628	-8.92
737.652	-2.92
737.676	4.08
737.701	26.08
737.725	18.08
737.749	16.08
737.773	11.08
737.797	-1.92
737.821	16.08
737.846	0.08
737.87	28.08
737.894	14.08
737.918	0.08
737.942	8.08
737.966	9.08
737.99	16.08
738.015	20.08
738.039	7.08
738.063	10.08
738.087	29.08
738.111	11.08
738.135	19.08
738.159	1.08
738.184	11.08
738.208	18.08
738.232	4.08
738.256	21.08
738.28	23.08
738.304	8.08
738.328	-5.92
738.352	8.08
738.376	3.08
738.4	16.08
738.425	15.08
738.449	-0.92
738.473	30.08
738.497	18.08
738.521	7.08
738.545	21.08
738.569	12.08
738.593	32.08
738.617	8.08
738.641	14.08
738.665	7.08
738.689	13.08
738.713	10.08
738.737	16.08
738.762	34.08
738.786	16.08
738.81	13.08
738.834	26.08
738.858	-16.92
738.882	9.08
738.906	-0.92
738.93	21.08
738.954	23.08
738.978	24.08
739.002	0.08
739.026	17.08
739.05	26.08
739.074	-0.92
739.098	25.08
739.122	14.08
739.146	22.08
739.17	16.08
739.194	21.08
739.218	10.08
739.242	-1.92
739.266	12.08
739.29	8.08
739.314	6.08
739.338	3.08
739.362	-0.92
739.386	2.08
739.41	-7.92
739.434	15.08
739.458	24.08
739.482	5.08
739.506	15.08
739.53	20.08
739.554	25.08
739.577	-7.92
739.601	10.08
739.625	-3.92
739.649	19.08
739.673	3.08
739.697	9.08
739.721	7.08
739.745	14.08
739.769	18.08
739.793	21.08
739.817	25.08
739.841	-2.92
739.865	5.08
739.889	-4.92
739.912	4.08
739.936	2.08
739.96	-7.92
739.984	15.08
740.008	2.08
740.032	3.08
740.056	6.08
740.08	14.08
740.104	1.08
740.127	18.08
740.151	18.08
740.175	14.08
740.199	21.08
740.223	51.08
740.247	5.08
740.271	12.08
740.295	0.08
740.318	-9.92
740.342	3.08
740.366	14.08
740.39	22.08
740.414	11.08
740.438	-1.92
740.461	15.08
740.485	4.08
740.509	1.08
740.533	23.08
740.557	8.08
740.581	6.08
740.604	3.08
740.628	-3.92
740.652	16.08
740.676	5.08
740.7	18.08
740.723	16.08
740.747	8.08
740.771	-2.92
740.795	-5.92
740.819	21.08
740.842	7.08
740.866	15.08
740.89	8.08
740.914	-0.92
740.938	-0.92
740.961	15.08
740.985	9.08
741.009	2.08
741.033	14.08
741.056	2.08
741.08	-2.92
741.104	12.08
741.128	6.08
741.151	19.08
741.175	8.08
741.199	15.08
741.223	16.08
741.246	2.08
741.27	6.08
741.294	6.08
741.318	2.08
741.341	18.08
741.365	13.08
741.389	12.08
741.413	11.08
741.436	21.08
741.46	18.08
741.484	13.08
741.507	4.08
741.531	43.08
741.555	31.08
741.579	-0.92
741.602	17.08
741.626	20.08
741.65	20.08
741.673	8.08
741.697	0.08
741.721	14.08
741.744	7.08
741.768	-3.92
741.792	9.08
741.815	0.08
741.839	19.08
741.863	27.08
741.886	20.08
741.91	24.08
741.934	8.08
741.957	-17.92
741.981	13.08
742.005	7.08
742.028	-11.92
742.052	7.08
742.075	0.08
742.099	25.08
742.123	16.08
742.146	10.08
742.17	15.08
742.194	-8.92
742.217	0.08
742.241	-2.92
742.264	-8.92
742.288	32.08
742.312	7.08
742.335	15.08
742.359	9.08
742.382	10.08
742.406	11.08
742.43	-4.92
742.453	1.08
742.477	9.08
742.5	4.08
742.524	-1.92
742.548	0.08
742.571	16.08
742.595	5.08
742.618	0.08
742.642	4.08
742.665	11.08
742.689	-9.92
742.712	28.08
742.736	5.08
742.76	3.08
742.783	15.08
742.807	28.08
742.83	20.08
742.854	-3.92
742.877	6.08
742.901	-5.92
742.924	-1.92
742.948	9.08
742.971	12.08
742.995	11.08
743.018	2.08
743.042	2.08
743.065	7.08
743.089	-3.92
743.112	3.08
743.136	-3.92
743.159	-10.92
743.183	4.08
743.206	15.08
743.23	-10.92
743.253	14.08
743.277	29.08
743.3	8.08
743.324	-11.92
743.347	2.08
743.371	26.08
743.394	6.08
743.418	25.08
743.441	16.08
743.465	8.08
743.488	14.08
743.512	13.08
743.535	16.08
743.558	17.08
743.582	8.08
743.605	-4.92
743.629	4.08
743.652	11.08
743.676	4.08
743.699	10.08
743.723	13.08
743.746	19.08
743.769	3.08
743.793	20.08
743.816	2.08
743.84	9.08
743.863	-0.92
743.886	8.08
743.91	16.08
743.933	13.08
743.957	20.08
743.98	-8.92
744.003	11.08
744.027	10.08
744.05	19.08
744.074	15.08
744.097	-5.92
744.12	4.08
744.144	2.08
744.167	25.08
744.19	9.08
744.214	-3.92
744.237	-0.92
744.26	9.08
744.284	11.08
744.307	3.08
744.331	12.08
744.354	7.08
744.377	-9.92
744.401	-9.92
744.424	10.08
744.447	-16.92
744.471	-0.92
