Data from HighRes_mercury_15_13_11_07_2024_HR4C61891__55__15-14-28-686.txt Node

Date: Thu Nov 07 15:14:28 EST 2024
User: crc00042
Spectrometer: HR4C6189
Trigger mode: 4
Integration Time (sec): 1.000000E-1
Scans to average: 1
Electric dark correction enabled: true
Nonlinearity correction enabled: false
Boxcar width: 0
XAxis mode: Wavelengths
Number of Pixels in Spectrum: 3648
>>>>>Begin Spectral Data<<<<<
639.567	-58.31
639.602	-58.31
639.636	-58.31
639.67	-47.31
639.704	-8.31
639.738	-2.31
639.773	15.69
639.807	-5.31
639.841	-11.31
639.875	8.69
639.909	0.69
639.943	1.69
639.978	-10.31
640.012	0.69
640.046	4.69
640.08	-2.31
640.114	5.69
640.148	-6.31
640.182	-10.31
640.217	-8.31
640.251	22.69
640.285	13.69
640.319	-17.31
640.353	5.69
640.387	5.69
640.421	3.69
640.455	-12.31
640.49	-13.31
640.524	6.69
640.558	-0.31
640.592	-1.31
640.626	5.69
640.66	-1.31
640.694	-6.31
640.728	3.69
640.762	11.69
640.796	28.69
640.83	24.69
640.865	7.69
640.899	4.69
640.933	-3.31
640.967	2.69
641.001	9.69
641.035	15.69
641.069	-17.31
641.103	-22.31
641.137	-27.31
641.171	-21.31
641.205	8.69
641.239	17.69
641.273	13.69
641.307	5.69
641.341	-16.31
641.375	0.69
641.409	-5.31
641.443	2.69
641.477	19.69
641.511	22.69
641.545	4.69
641.579	-1.31
641.614	7.69
641.648	14.69
641.682	-5.31
641.716	14.69
641.75	19.69
641.784	12.69
641.818	4.69
641.852	12.69
641.886	9.69
641.919	42.69
641.953	6.69
641.987	-17.31
642.021	-1.31
642.055	8.69
642.089	-6.31
642.123	-6.31
642.157	-6.31
642.191	0.69
642.225	13.69
642.259	1.69
642.293	18.69
642.327	6.69
642.361	-1.31
642.395	11.69
642.429	8.69
642.463	4.69
642.497	23.69
642.531	-1.31
642.565	-7.31
642.599	7.69
642.633	-26.31
642.666	11.69
642.7	17.69
642.734	18.69
642.768	-5.31
642.802	1.69
642.836	3.69
642.87	1.69
642.904	15.69
642.938	2.69
642.972	1.69
643.005	-9.31
643.039	1.69
643.073	-8.31
643.107	16.69
643.141	12.69
643.175	3.69
643.209	9.69
643.243	17.69
643.276	14.69
643.31	-1.31
643.344	3.69
643.378	-2.31
643.412	1.69
643.446	-4.31
643.48	0.69
643.513	-6.31
643.547	4.69
643.581	2.69
643.615	4.69
643.649	15.69
643.683	5.69
643.716	1.69
643.75	1.69
643.784	-7.31
643.818	9.69
643.852	10.69
643.886	16.69
643.919	18.69
643.953	9.69
643.987	6.69
644.021	9.69
644.055	15.69
644.088	5.69
644.122	-22.31
644.156	3.69
644.19	-8.31
644.224	4.69
644.257	6.69
644.291	24.69
644.325	12.69
644.359	4.69
644.392	17.69
644.426	15.69
644.46	0.69
644.494	9.69
644.527	2.69
644.561	5.69
644.595	1.69
644.629	11.69
644.662	-3.31
644.696	6.69
644.73	-5.31
644.764	10.69
644.797	-12.31
644.831	-7.31
644.865	27.69
644.899	10.69
644.932	11.69
644.966	0.69
645	16.69
645.033	8.69
645.067	2.69
645.101	2.69
645.135	2.69
645.168	1.69
645.202	2.69
645.236	2.69
645.269	8.69
645.303	-20.31
645.337	-23.31
645.37	-4.31
645.404	15.69
645.438	4.69
645.471	7.69
645.505	1.69
645.539	-5.31
645.572	-1.31
645.606	-7.31
645.64	7.69
645.673	14.69
645.707	27.69
645.741	16.69
645.774	3.69
645.808	8.69
645.842	-3.31
645.875	13.69
645.909	2.69
645.943	-17.31
645.976	4.69
646.01	12.69
646.043	5.69
646.077	13.69
646.111	-2.31
646.144	18.69
646.178	19.69
646.212	-3.31
646.245	-3.31
646.279	3.69
646.312	-2.31
646.346	7.69
646.38	13.69
646.413	23.69
646.447	22.69
646.48	-8.31
646.514	-2.31
646.547	-4.31
646.581	-11.31
646.615	-11.31
646.648	-9.31
646.682	4.69
646.715	-8.31
646.749	5.69
646.782	13.69
646.816	3.69
646.85	7.69
646.883	-0.31
646.917	11.69
646.95	13.69
646.984	17.69
647.017	-7.31
647.051	19.69
647.084	3.69
647.118	13.69
647.151	6.69
647.185	4.69
647.218	-12.31
647.252	5.69
647.285	-25.31
647.319	-11.31
647.353	10.69
647.386	21.69
647.42	-0.31
647.453	2.69
647.487	5.69
647.52	9.69
647.553	-5.31
647.587	-1.31
647.62	-9.31
647.654	14.69
647.687	0.69
647.721	8.69
647.754	2.69
647.788	6.69
647.821	-4.31
647.855	-1.31
647.888	8.69
647.922	4.69
647.955	20.69
647.989	6.69
648.022	-2.31
648.055	3.69
648.089	7.69
648.122	30.69
648.156	-0.31
648.189	-13.31
648.223	4.69
648.256	32.69
648.29	8.69
648.323	5.69
648.356	5.69
648.39	-4.31
648.423	-2.31
648.457	7.69
648.49	14.69
648.523	21.69
648.557	-1.31
648.59	-11.31
648.624	6.69
648.657	25.69
648.69	20.69
648.724	14.69
648.757	26.69
648.791	15.69
648.824	-0.31
648.857	24.69
648.891	11.69
648.924	-4.31
648.957	-0.31
648.991	-7.31
649.024	9.69
649.057	-7.31
649.091	-2.31
649.124	-2.31
649.158	2.69
649.191	5.69
649.224	-1.31
649.258	-3.31
649.291	7.69
649.324	-7.31
649.358	8.69
649.391	7.69
649.424	10.69
649.458	0.69
649.491	-0.31
649.524	2.69
649.557	-7.31
649.591	-4.31
649.624	12.69
649.657	-11.31
649.691	2.69
649.724	6.69
649.757	14.69
649.791	1.69
649.824	23.69
649.857	21.69
649.89	10.69
649.924	-36.31
649.957	-4.31
649.99	-7.31
650.023	4.69
650.057	-1.31
650.09	2.69
650.123	-3.31
650.157	16.69
650.19	12.69
650.223	3.69
650.256	-7.31
650.29	-5.31
650.323	2.69
650.356	6.69
650.389	6.69
650.423	3.69
650.456	10.69
650.489	14.69
650.522	-3.31
650.555	25.69
650.589	25.69
650.622	-5.31
650.655	7.69
650.688	7.69
650.721	1.69
650.755	22.69
650.788	4.69
650.821	4.69
650.854	0.69
650.887	7.69
650.921	-10.31
650.954	0.69
650.987	7.69
651.02	-0.31
651.053	0.69
651.087	-8.31
651.12	13.69
651.153	23.69
651.186	1.69
651.219	-16.31
651.252	4.69
651.286	2.69
651.319	-0.31
651.352	-2.31
651.385	10.69
651.418	2.69
651.451	12.69
651.484	11.69
651.518	-5.31
651.551	27.69
651.584	-2.31
651.617	18.69
651.65	4.69
651.683	5.69
651.716	13.69
651.749	-1.31
651.783	9.69
651.816	2.69
651.849	27.69
651.882	0.69
651.915	10.69
651.948	-0.31
651.981	2.69
652.014	-29.31
652.047	-13.31
652.08	0.69
652.114	3.69
652.147	11.69
652.18	10.69
652.213	27.69
652.246	6.69
652.279	-0.31
652.312	2.69
652.345	-14.31
652.378	3.69
652.411	15.69
652.444	16.69
652.477	0.69
652.51	-4.31
652.543	0.69
652.576	15.69
652.609	-7.31
652.642	4.69
652.675	23.69
652.709	-4.31
652.742	2.69
652.775	-11.31
652.808	4.69
652.841	-4.31
652.874	13.69
652.907	-6.31
652.94	-9.31
652.973	-16.31
653.006	-3.31
653.039	10.69
653.072	11.69
653.105	-1.31
653.138	1.69
653.171	1.69
653.204	-0.31
653.237	3.69
653.27	-13.31
653.303	-0.31
653.336	8.69
653.368	5.69
653.401	1.69
653.434	-0.31
653.467	0.69
653.5	-7.31
653.533	-8.31
653.566	-19.31
653.599	-11.31
653.632	16.69
653.665	3.69
653.698	-21.31
653.731	-3.31
653.764	11.69
653.797	1.69
653.83	2.69
653.863	-1.31
653.896	8.69
653.929	-2.31
653.961	4.69
653.994	10.69
654.027	2.69
654.06	7.69
654.093	9.69
654.126	6.69
654.159	-5.31
654.192	1.69
654.225	-7.31
654.258	-21.31
654.29	1.69
654.323	-5.31
654.356	-4.31
654.389	2.69
654.422	-4.31
654.455	14.69
654.488	5.69
654.521	-25.31
654.553	-12.31
654.586	10.69
654.619	-4.31
654.652	6.69
654.685	21.69
654.718	12.69
654.751	17.69
654.783	4.69
654.816	0.69
654.849	-4.31
654.882	-5.31
654.915	-17.31
654.948	9.69
654.98	2.69
655.013	2.69
655.046	-5.31
655.079	7.69
655.112	12.69
655.144	-19.31
655.177	0.69
655.21	-4.31
655.243	-1.31
655.276	-12.31
655.308	-7.31
655.341	-16.31
655.374	-10.31
655.407	-23.31
655.44	5.69
655.472	14.69
655.505	14.69
655.538	1.69
655.571	16.69
655.603	4.69
655.636	-6.31
655.669	12.69
655.702	-0.31
655.734	-20.31
655.767	1.69
655.8	-3.31
655.833	-1.31
655.865	-1.31
655.898	-7.31
655.931	-11.31
655.964	1.69
655.996	-4.31
656.029	7.69
656.062	-10.31
656.095	-4.31
656.127	-9.31
656.16	2.69
656.193	0.69
656.225	11.69
656.258	9.69
656.291	10.69
656.324	10.69
656.356	8.69
656.389	5.69
656.422	4.69
656.454	-8.31
656.487	-1.31
656.52	-6.31
656.552	-4.31
656.585	-12.31
656.618	23.69
656.65	-2.31
656.683	-5.31
656.716	1.69
656.748	-4.31
656.781	6.69
656.814	-0.31
656.846	10.69
656.879	-1.31
656.912	1.69
656.944	-7.31
656.977	5.69
657.01	6.69
657.042	-5.31
657.075	-6.31
657.108	2.69
657.14	3.69
657.173	14.69
657.205	21.69
657.238	18.69
657.271	11.69
657.303	-15.31
657.336	7.69
657.369	2.69
657.401	3.69
657.434	-2.31
657.466	13.69
657.499	4.69
657.532	-5.31
657.564	1.69
657.597	5.69
657.629	20.69
657.662	4.69
657.694	2.69
657.727	-9.31
657.76	13.69
657.792	-3.31
657.825	-7.31
657.857	-7.31
657.89	-12.31
657.922	4.69
657.955	-14.31
657.987	7.69
658.02	5.69
658.053	18.69
658.085	2.69
658.118	13.69
658.15	4.69
658.183	21.69
658.215	9.69
658.248	-2.31
658.28	-7.31
658.313	17.69
658.345	8.69
658.378	10.69
658.41	-4.31
658.443	13.69
658.475	12.69
658.508	0.69
658.54	1.69
658.573	6.69
658.605	-9.31
658.638	-6.31
658.67	0.69
658.703	-9.31
658.735	-20.31
658.768	4.69
658.8	-20.31
658.833	27.69
658.865	4.69
658.898	2.69
658.93	-6.31
658.963	-12.31
658.995	-1.31
659.028	-0.31
659.06	-2.31
659.092	2.69
659.125	-6.31
659.157	12.69
659.19	0.69
659.222	0.69
659.255	9.69
659.287	7.69
659.32	-5.31
659.352	0.69
659.384	17.69
659.417	-9.31
659.449	8.69
659.482	1.69
659.514	-8.31
659.546	-4.31
659.579	-20.31
659.611	9.69
659.644	8.69
659.676	-9.31
659.708	-4.31
659.741	-0.31
659.773	21.69
659.806	-15.31
659.838	-4.31
659.87	4.69
659.903	-3.31
659.935	18.69
659.967	3.69
660	12.69
660.032	-12.31
660.065	4.69
660.097	0.69
660.129	8.69
660.162	-7.31
660.194	3.69
660.226	5.69
660.259	20.69
660.291	-0.31
660.323	-0.31
660.356	0.69
660.388	-2.31
660.42	3.69
660.453	-6.31
660.485	8.69
660.517	23.69
660.55	8.69
660.582	2.69
660.614	-10.31
660.647	-0.31
660.679	-19.31
660.711	9.69
660.743	-10.31
660.776	-4.31
660.808	3.69
660.84	-5.31
660.873	-7.31
660.905	-6.31
660.937	-12.31
660.969	6.69
661.002	5.69
661.034	6.69
661.066	2.69
661.099	-4.31
661.131	10.69
661.163	-7.31
661.195	-4.31
661.228	5.69
661.26	8.69
661.292	0.69
661.324	10.69
661.357	-0.31
661.389	3.69
661.421	8.69
661.453	0.69
661.485	0.69
661.518	-7.31
661.55	-11.31
661.582	-14.31
661.614	2.69
661.647	-8.31
661.679	-11.31
661.711	3.69
661.743	2.69
661.775	-1.31
661.808	12.69
661.84	-15.31
661.872	2.69
661.904	4.69
661.936	5.69
661.969	0.69
662.001	-7.31
662.033	1.69
662.065	-0.31
662.097	14.69
662.129	16.69
662.162	-5.31
662.194	7.69
662.226	0.69
662.258	12.69
662.29	19.69
662.322	15.69
662.355	-9.31
662.387	2.69
662.419	8.69
662.451	23.69
662.483	15.69
662.515	5.69
662.547	-0.31
662.58	1.69
662.612	2.69
662.644	-13.31
662.676	3.69
662.708	15.69
662.74	-14.31
662.772	-12.31
662.804	3.69
662.836	22.69
662.869	1.69
662.901	21.69
662.933	9.69
662.965	15.69
662.997	5.69
663.029	7.69
663.061	-1.31
663.093	4.69
663.125	9.69
663.157	10.69
663.189	2.69
663.221	11.69
663.254	0.69
663.286	22.69
663.318	-1.31
663.35	-1.31
663.382	6.69
663.414	17.69
663.446	12.69
663.478	3.69
663.51	33.69
663.542	-1.31
663.574	11.69
663.606	6.69
663.638	-21.31
663.67	3.69
663.702	10.69
663.734	8.69
663.766	17.69
663.798	-0.31
663.83	2.69
663.862	1.69
663.894	6.69
663.926	6.69
663.958	11.69
663.99	-7.31
664.022	-6.31
664.054	19.69
664.086	-10.31
664.118	-12.31
664.15	-12.31
664.182	3.69
664.214	-6.31
664.246	7.69
664.278	2.69
664.31	20.69
664.342	13.69
664.374	0.69
664.406	-7.31
664.438	-1.31
664.47	15.69
664.502	6.69
664.534	-9.31
664.566	-8.31
664.598	13.69
664.63	4.69
664.662	6.69
664.693	9.69
664.725	-20.31
664.757	5.69
664.789	-8.31
664.821	16.69
664.853	28.69
664.885	9.69
664.917	4.69
664.949	9.69
664.981	19.69
665.013	9.69
665.045	-32.31
665.076	-14.31
665.108	6.69
665.14	-5.31
665.172	-14.31
665.204	-0.31
665.236	8.69
665.268	14.69
665.3	5.69
665.331	-11.31
665.363	-4.31
665.395	-6.31
665.427	-3.31
665.459	17.69
665.491	-11.31
665.523	-0.31
665.555	-3.31
665.586	-3.31
665.618	-1.31
665.65	-5.31
665.682	18.69
665.714	3.69
665.746	-6.31
665.777	2.69
665.809	-9.31
665.841	6.69
665.873	-4.31
665.905	-1.31
665.937	9.69
665.968	-0.31
666	0.69
666.032	7.69
666.064	-6.31
666.096	-6.31
666.127	15.69
666.159	7.69
666.191	11.69
666.223	1.69
666.255	9.69
666.286	20.69
666.318	-8.31
666.35	13.69
666.382	-1.31
666.413	-0.31
666.445	-10.31
666.477	-9.31
666.509	-11.31
666.54	-2.31
666.572	-6.31
666.604	14.69
666.636	-7.31
666.667	29.69
666.699	4.69
666.731	7.69
666.763	-5.31
666.794	-8.31
666.826	-8.31
666.858	-13.31
666.89	8.69
666.921	-0.31
666.953	3.69
666.985	4.69
667.017	22.69
667.048	9.69
667.08	2.69
667.112	3.69
667.143	-5.31
667.175	4.69
667.207	-8.31
667.238	2.69
667.27	16.69
667.302	-1.31
667.334	-9.31
667.365	17.69
667.397	4.69
667.429	-3.31
667.46	23.69
667.492	-2.31
667.524	17.69
667.555	-7.31
667.587	3.69
667.619	4.69
667.65	-11.31
667.682	3.69
667.714	10.69
667.745	-9.31
667.777	1.69
667.808	6.69
667.84	14.69
667.872	-1.31
667.903	14.69
667.935	3.69
667.967	-2.31
667.998	4.69
668.03	12.69
668.061	21.69
668.093	-5.31
668.125	5.69
668.156	15.69
668.188	3.69
668.22	-4.31
668.251	9.69
668.283	19.69
668.314	23.69
668.346	3.69
668.377	16.69
668.409	16.69
668.441	26.69
668.472	17.69
668.504	9.69
668.535	4.69
668.567	11.69
668.599	7.69
668.63	-2.31
668.662	-0.31
668.693	6.69
668.725	16.69
668.756	7.69
668.788	-11.31
668.819	4.69
668.851	-11.31
668.882	1.69
668.914	-5.31
668.946	-11.31
668.977	-9.31
669.009	4.69
669.04	-11.31
669.072	1.69
669.103	-0.31
669.135	3.69
669.166	-3.31
669.198	0.69
669.229	3.69
669.261	3.69
669.292	3.69
669.324	-1.31
669.355	12.69
669.387	2.69
669.418	1.69
669.45	-5.31
669.481	2.69
669.513	-4.31
669.544	-6.31
669.576	-0.31
669.607	18.69
669.639	23.69
669.67	2.69
669.701	11.69
669.733	-12.31
669.764	1.69
669.796	-0.31
669.827	-0.31
669.859	-10.31
669.89	5.69
669.922	7.69
669.953	13.69
669.985	11.69
670.016	-4.31
670.047	-12.31
670.079	-5.31
670.11	-1.31
670.142	-7.31
670.173	-5.31
670.204	3.69
670.236	8.69
670.267	-1.31
670.299	7.69
670.33	6.69
670.362	4.69
670.393	-10.31
670.424	-4.31
670.456	-15.31
670.487	1.69
670.518	-0.31
670.55	0.69
670.581	13.69
670.613	-0.31
670.644	-13.31
670.675	-12.31
670.707	-3.31
670.738	0.69
670.769	7.69
670.801	-10.31
670.832	-1.31
670.864	-2.31
670.895	6.69
670.926	-6.31
670.958	10.69
670.989	9.69
671.02	-6.31
671.052	-0.31
671.083	-26.31
671.114	-6.31
671.146	25.69
671.177	-0.31
671.208	-5.31
671.24	-11.31
671.271	8.69
671.302	7.69
671.333	-7.31
671.365	-4.31
671.396	-1.31
671.427	10.69
671.459	11.69
671.49	2.69
671.521	7.69
671.553	-2.31
671.584	12.69
671.615	-19.31
671.646	4.69
671.678	3.69
671.709	-6.31
671.74	-12.31
671.771	-20.31
671.803	10.69
671.834	3.69
671.865	6.69
671.896	21.69
671.928	-13.31
671.959	-11.31
671.99	-16.31
672.021	1.69
672.053	-15.31
672.084	16.69
672.115	-0.31
672.146	-0.31
672.178	-3.31
672.209	-5.31
672.24	2.69
672.271	11.69
672.303	3.69
672.334	6.69
672.365	0.69
672.396	17.69
672.427	12.69
672.459	-0.31
672.49	25.69
672.521	10.69
672.552	6.69
672.583	-0.31
672.615	5.69
672.646	1.69
672.677	-9.31
672.708	-7.31
672.739	-2.31
672.77	30.69
672.802	6.69
672.833	-20.31
672.864	-15.31
672.895	-9.31
672.926	3.69
672.957	-1.31
672.989	-14.31
673.02	-19.31
673.051	8.69
673.082	7.69
673.113	-12.31
673.144	-1.31
673.175	-8.31
673.206	-1.31
673.238	-0.31
673.269	-4.31
673.3	-15.31
673.331	10.69
673.362	-16.31
673.393	7.69
673.424	2.69
673.455	17.69
673.487	3.69
673.518	1.69
673.549	10.69
673.58	-3.31
673.611	-0.31
673.642	-0.31
673.673	1.69
673.704	11.69
673.735	2.69
673.766	8.69
673.797	2.69
673.828	14.69
673.86	-11.31
673.891	-16.31
673.922	-3.31
673.953	0.69
673.984	6.69
674.015	9.69
674.046	-3.31
674.077	2.69
674.108	-7.31
674.139	-7.31
674.17	-9.31
674.201	-9.31
674.232	-15.31
674.263	-2.31
674.294	-4.31
674.325	-15.31
674.356	3.69
674.387	9.69
674.418	1.69
674.449	1.69
674.48	-5.31
674.511	-9.31
674.542	-3.31
674.573	-27.31
674.604	3.69
674.635	6.69
674.666	4.69
674.697	7.69
674.728	-0.31
674.759	2.69
674.79	7.69
674.821	-5.31
674.852	10.69
674.883	-1.31
674.914	-2.31
674.945	-1.31
674.976	12.69
675.007	-3.31
675.038	-14.31
675.069	-18.31
675.1	3.69
675.131	1.69
675.162	7.69
675.193	-11.31
675.224	1.69
675.254	19.69
675.285	17.69
675.316	17.69
675.347	-14.31
675.378	0.69
675.409	-3.31
675.44	-3.31
675.471	9.69
675.502	-4.31
675.533	-3.31
675.564	7.69
675.595	15.69
675.625	24.69
675.656	6.69
675.687	-1.31
675.718	0.69
675.749	10.69
675.78	5.69
675.811	-5.31
675.842	1.69
675.873	-1.31
675.903	2.69
675.934	-11.31
675.965	-1.31
675.996	-13.31
676.027	3.69
676.058	4.69
676.089	-7.31
676.119	-1.31
676.15	-14.31
676.181	-1.31
676.212	14.69
676.243	25.69
676.274	11.69
676.304	22.69
676.335	-11.31
676.366	1.69
676.397	1.69
676.428	3.69
676.459	-7.31
676.489	-1.31
676.52	4.69
676.551	4.69
676.582	0.69
676.613	-4.31
676.643	-9.31
676.674	8.69
676.705	2.69
676.736	2.69
676.767	19.69
676.797	12.69
676.828	7.69
676.859	6.69
676.89	-2.31
676.92	-7.31
676.951	7.69
676.982	4.69
677.013	2.69
677.044	21.69
677.074	16.69
677.105	4.69
677.136	13.69
677.167	8.69
677.197	24.69
677.228	3.69
677.259	-20.31
677.289	4.69
677.32	-16.31
677.351	-6.31
677.382	-22.31
677.412	0.69
677.443	2.69
677.474	6.69
677.505	-13.31
677.535	-5.31
677.566	-20.31
677.597	0.69
677.627	5.69
677.658	-6.31
677.689	-10.31
677.72	-2.31
677.75	6.69
677.781	18.69
677.812	-2.31
677.842	12.69
677.873	15.69
677.904	6.69
677.934	5.69
677.965	-0.31
677.996	-15.31
678.026	4.69
678.057	19.69
678.088	-1.31
678.118	10.69
678.149	-5.31
678.18	8.69
678.21	7.69
678.241	14.69
678.272	-4.31
678.302	-9.31
678.333	5.69
678.363	-0.31
678.394	-11.31
678.425	-5.31
678.455	8.69
678.486	9.69
678.517	2.69
678.547	21.69
678.578	-12.31
678.608	-14.31
678.639	-5.31
678.67	0.69
678.7	-18.31
678.731	-5.31
678.761	-2.31
678.792	3.69
678.823	-6.31
678.853	14.69
678.884	-21.31
678.914	-4.31
678.945	5.69
678.975	-14.31
679.006	-0.31
679.037	-5.31
679.067	18.69
679.098	-2.31
679.128	2.69
679.159	-1.31
679.189	0.69
679.22	-20.31
679.25	-11.31
679.281	5.69
679.312	8.69
679.342	-9.31
679.373	13.69
679.403	14.69
679.434	5.69
679.464	-7.31
679.495	9.69
679.525	4.69
679.556	-15.31
679.586	10.69
679.617	3.69
679.647	8.69
679.678	-9.31
679.708	-8.31
679.739	2.69
679.769	0.69
679.8	-11.31
679.83	-7.31
679.861	7.69
679.891	-7.31
679.922	-14.31
679.952	-4.31
679.983	-10.31
680.013	2.69
680.044	-19.31
680.074	28.69
680.105	1.69
680.135	18.69
680.165	6.69
680.196	13.69
680.226	2.69
680.257	-3.31
680.287	1.69
680.318	-4.31
680.348	-8.31
680.379	15.69
680.409	10.69
680.439	-0.31
680.47	-7.31
680.5	-0.31
680.531	6.69
680.561	17.69
680.592	-4.31
680.622	8.69
680.652	10.69
680.683	19.69
680.713	-10.31
680.744	12.69
680.774	-4.31
680.804	27.69
680.835	-0.31
680.865	6.69
680.896	22.69
680.926	21.69
680.956	19.69
680.987	10.69
681.017	-9.31
681.047	12.69
681.078	-13.31
681.108	17.69
681.139	-0.31
681.169	8.69
681.199	2.69
681.23	7.69
681.26	-9.31
681.29	-1.31
681.321	-12.31
681.351	3.69
681.381	-15.31
681.412	6.69
681.442	2.69
681.472	15.69
681.503	-1.31
681.533	10.69
681.563	11.69
681.594	-2.31
681.624	-0.31
681.654	-0.31
681.685	-2.31
681.715	0.69
681.745	3.69
681.775	-11.31
681.806	-1.31
681.836	1.69
681.866	-8.31
681.897	3.69
681.927	9.69
681.957	-7.31
681.987	-6.31
682.018	-4.31
682.048	9.69
682.078	1.69
682.109	20.69
682.139	5.69
682.169	6.69
682.199	12.69
682.23	6.69
682.26	2.69
682.29	-11.31
682.32	-0.31
682.351	0.69
682.381	2.69
682.411	-0.31
682.441	0.69
682.472	-2.31
682.502	-4.31
682.532	3.69
682.562	12.69
682.592	14.69
682.623	26.69
682.653	4.69
682.683	-0.31
682.713	6.69
682.743	1.69
682.774	14.69
682.804	10.69
682.834	15.69
682.864	-7.31
682.894	2.69
682.925	1.69
682.955	21.69
682.985	-2.31
683.015	13.69
683.045	10.69
683.076	-11.31
683.106	4.69
683.136	-6.31
683.166	1.69
683.196	-0.31
683.226	1.69
683.257	-13.31
683.287	4.69
683.317	-6.31
683.347	1.69
683.377	-0.31
683.407	-8.31
683.437	-1.31
683.468	1.69
683.498	-5.31
683.528	-13.31
683.558	2.69
683.588	-6.31
683.618	8.69
683.648	-3.31
683.678	2.69
683.708	8.69
683.739	-0.31
683.769	4.69
683.799	-0.31
683.829	6.69
683.859	9.69
683.889	14.69
683.919	11.69
683.949	-3.31
683.979	9.69
684.009	-0.31
684.039	-10.31
684.07	-19.31
684.1	-0.31
684.13	-0.31
684.16	-5.31
684.19	12.69
684.22	1.69
684.25	-0.31
684.28	6.69
684.31	13.69
684.34	20.69
684.37	6.69
684.4	-12.31
684.43	-1.31
684.46	4.69
684.49	4.69
684.52	0.69
684.55	9.69
684.58	5.69
684.61	4.69
684.64	18.69
684.67	3.69
684.7	4.69
684.73	6.69
684.76	4.69
684.79	9.69
684.82	-1.31
684.85	3.69
684.88	14.69
684.91	-1.31
684.94	-10.31
684.97	-14.31
685	-5.31
685.03	0.69
685.06	-5.31
685.09	0.69
685.12	21.69
685.15	-5.31
685.18	15.69
685.21	0.69
685.24	-1.31
685.27	15.69
685.3	19.69
685.33	5.69
685.36	8.69
685.39	1.69
685.42	6.69
685.45	15.69
685.48	4.69
685.51	-12.31
685.54	7.69
685.569	8.69
685.599	6.69
685.629	2.69
685.659	-8.31
685.689	-2.31
685.719	3.69
685.749	7.69
685.779	2.69
685.809	5.69
685.839	4.69
685.869	12.69
685.898	14.69
685.928	-1.31
685.958	6.69
685.988	9.69
686.018	4.69
686.048	-4.31
686.078	6.69
686.108	17.69
686.137	-5.31
686.167	2.69
686.197	-6.31
686.227	3.69
686.257	24.69
686.287	14.69
686.317	-2.31
686.346	-7.31
686.376	-0.31
686.406	-12.31
686.436	6.69
686.466	-14.31
686.496	15.69
686.525	-8.31
686.555	1.69
686.585	8.69
686.615	20.69
686.645	9.69
686.675	11.69
686.704	23.69
686.734	9.69
686.764	-11.31
686.794	-5.31
686.824	0.69
686.853	10.69
686.883	11.69
686.913	9.69
686.943	9.69
686.973	-1.31
687.002	4.69
687.032	-9.31
687.062	-17.31
687.092	14.69
687.121	5.69
687.151	9.69
687.181	-3.31
687.211	13.69
687.24	14.69
687.27	2.69
687.3	-2.31
687.33	5.69
687.359	-1.31
687.389	8.69
687.419	3.69
687.449	3.69
687.478	10.69
687.508	4.69
687.538	9.69
687.568	1.69
687.597	-9.31
687.627	-0.31
687.657	25.69
687.686	7.69
687.716	19.69
687.746	-10.31
687.776	-5.31
687.805	-3.31
687.835	3.69
687.865	9.69
687.894	18.69
687.924	-2.31
687.954	8.69
687.983	1.69
688.013	-3.31
688.043	-4.31
688.072	-5.31
688.102	0.69
688.132	-3.31
688.161	0.69
688.191	1.69
688.221	18.69
688.25	-16.31
688.28	5.69
688.31	-2.31
688.339	10.69
688.369	-23.31
688.399	-5.31
688.428	-0.31
688.458	0.69
688.488	1.69
688.517	4.69
688.547	4.69
688.576	18.69
688.606	10.69
688.636	1.69
688.665	3.69
688.695	9.69
688.725	15.69
688.754	0.69
688.784	17.69
688.813	18.69
688.843	2.69
688.873	-6.31
688.902	6.69
688.932	-1.31
688.961	8.69
688.991	39.69
689.02	10.69
689.05	-4.31
689.08	-7.31
689.109	-5.31
689.139	0.69
689.168	-15.31
689.198	-0.31
689.227	7.69
689.257	-7.31
689.287	10.69
689.316	-7.31
689.346	-13.31
689.375	-9.31
689.405	11.69
689.434	1.69
689.464	3.69
689.493	9.69
689.523	0.69
689.552	-15.31
689.582	2.69
689.611	0.69
689.641	14.69
689.67	14.69
689.7	-7.31
689.73	14.69
689.759	-0.31
689.789	23.69
689.818	-7.31
689.848	-1.31
689.877	14.69
689.906	-8.31
689.936	-4.31
689.965	10.69
689.995	8.69
690.024	6.69
690.054	11.69
690.083	4.69
690.113	-1.31
690.142	10.69
690.172	19.69
690.201	5.69
690.231	1.69
690.26	14.69
690.29	3.69
690.319	2.69
690.348	4.69
690.378	0.69
690.407	7.69
690.437	-1.31
690.466	2.69
690.496	-10.31
690.525	-4.31
690.555	0.69
690.584	-1.31
690.613	-8.31
690.643	18.69
690.672	4.69
690.702	16.69
690.731	4.69
690.76	15.69
690.79	47.69
690.819	48.69
690.849	35.69
690.878	29.69
690.907	21.69
690.937	14.69
690.966	19.69
690.996	2.69
691.025	21.69
691.054	-9.31
691.084	-4.31
691.113	14.69
691.142	17.69
691.172	9.69
691.201	16.69
691.23	-0.31
691.26	7.69
691.289	-10.31
691.319	-12.31
691.348	-3.31
691.377	19.69
691.407	15.69
691.436	8.69
691.465	9.69
691.495	1.69
691.524	-14.31
691.553	-3.31
691.583	-4.31
691.612	13.69
691.641	1.69
691.67	8.69
691.7	7.69
691.729	-8.31
691.758	8.69
691.788	17.69
691.817	1.69
691.846	-1.31
691.876	-0.31
691.905	8.69
691.934	5.69
691.963	9.69
691.993	1.69
692.022	-2.31
692.051	-8.31
692.081	7.69
692.11	11.69
692.139	6.69
692.168	-9.31
692.198	24.69
692.227	19.69
692.256	-8.31
692.285	-2.31
692.315	0.69
692.344	-0.31
692.373	7.69
692.402	-6.31
692.432	-13.31
692.461	2.69
692.49	8.69
692.519	14.69
692.548	14.69
692.578	23.69
692.607	-4.31
692.636	-8.31
692.665	10.69
692.694	2.69
692.724	17.69
692.753	6.69
692.782	17.69
692.811	13.69
692.84	1.69
692.87	-1.31
692.899	2.69
692.928	15.69
692.957	18.69
692.986	4.69
693.016	2.69
693.045	9.69
693.074	21.69
693.103	14.69
693.132	-5.31
693.161	6.69
693.191	-20.31
693.22	-7.31
693.249	-0.31
693.278	1.69
693.307	12.69
693.336	-8.31
693.365	-9.31
693.395	-2.31
693.424	16.69
693.453	5.69
693.482	0.69
693.511	1.69
693.54	9.69
693.569	2.69
693.598	20.69
693.628	17.69
693.657	-1.31
693.686	13.69
693.715	12.69
693.744	11.69
693.773	5.69
693.802	5.69
693.831	-2.31
693.86	13.69
693.889	1.69
693.919	-5.31
693.948	3.69
693.977	7.69
694.006	2.69
694.035	-2.31
694.064	0.69
694.093	10.69
694.122	12.69
694.151	-1.31
694.18	8.69
694.209	34.69
694.238	36.69
694.267	27.69
694.296	2.69
694.325	-1.31
694.354	21.69
694.383	18.69
694.412	15.69
694.441	-3.31
694.471	-9.31
694.5	-2.31
694.529	-3.31
694.558	15.69
694.587	22.69
694.616	0.69
694.645	-9.31
694.674	21.69
694.703	3.69
694.732	0.69
694.761	9.69
694.79	11.69
694.819	-11.31
694.848	-7.31
694.877	21.69
694.906	24.69
694.935	17.69
694.963	28.69
694.992	4.69
695.021	9.69
695.05	-2.31
695.079	7.69
695.108	2.69
695.137	18.69
695.166	11.69
695.195	-8.31
695.224	15.69
695.253	3.69
695.282	-0.31
695.311	17.69
695.34	22.69
695.369	4.69
695.398	7.69
695.427	41.69
695.456	11.69
695.485	8.69
695.513	12.69
695.542	9.69
695.571	6.69
695.6	23.69
695.629	4.69
695.658	11.69
695.687	11.69
695.716	12.69
695.745	14.69
695.774	-1.31
695.802	-6.31
695.831	19.69
695.86	17.69
695.889	10.69
695.918	8.69
695.947	-10.31
695.976	10.69
696.005	9.69
696.033	12.69
696.062	7.69
696.091	4.69
696.12	4.69
696.149	31.69
696.178	3.69
696.207	15.69
696.235	10.69
696.264	10.69
696.293	-0.31
696.322	18.69
696.351	19.69
696.38	-1.31
696.408	-4.31
696.437	-0.31
696.466	-9.31
696.495	18.69
696.524	20.69
696.553	12.69
696.581	14.69
696.61	6.69
696.639	10.69
696.668	1.69
696.697	4.69
696.725	19.69
696.754	-2.31
696.783	-6.31
696.812	-8.31
696.84	14.69
696.869	0.69
696.898	9.69
696.927	0.69
696.956	24.69
696.984	-5.31
697.013	6.69
697.042	13.69
697.071	4.69
697.099	15.69
697.128	14.69
697.157	14.69
697.186	-1.31
697.214	-10.31
697.243	-4.31
697.272	3.69
697.301	17.69
697.329	11.69
697.358	21.69
697.387	21.69
697.415	23.69
697.444	2.69
697.473	7.69
697.502	-2.31
697.53	8.69
697.559	3.69
697.588	-5.31
697.616	-0.31
697.645	9.69
697.674	23.69
697.703	0.69
697.731	17.69
697.76	20.69
697.789	16.69
697.817	4.69
697.846	26.69
697.875	-0.31
697.903	18.69
697.932	17.69
697.961	7.69
697.989	16.69
698.018	11.69
698.047	-10.31
698.075	-2.31
698.104	16.69
698.133	-10.31
698.161	-1.31
698.19	9.69
698.218	9.69
698.247	8.69
698.276	4.69
698.304	-0.31
698.333	11.69
698.362	-6.31
698.39	9.69
698.419	9.69
698.447	0.69
698.476	-3.31
698.505	9.69
698.533	27.69
698.562	12.69
698.591	10.69
698.619	-4.31
698.648	-0.31
698.676	-1.31
698.705	-7.31
698.733	0.69
698.762	16.69
698.791	10.69
698.819	10.69
698.848	-6.31
698.876	24.69
698.905	12.69
698.933	9.69
698.962	9.69
698.991	5.69
699.019	13.69
699.048	11.69
699.076	2.69
699.105	-15.31
699.133	-2.31
699.162	5.69
699.19	5.69
699.219	6.69
699.248	4.69
699.276	0.69
699.305	11.69
699.333	6.69
699.362	5.69
699.39	9.69
699.419	-7.31
699.447	3.69
699.476	7.69
699.504	-11.31
699.533	3.69
699.561	-28.31
699.59	1.69
699.618	5.69
699.647	5.69
699.675	6.69
699.704	5.69
699.732	13.69
699.761	8.69
699.789	9.69
699.818	13.69
699.846	-6.31
699.874	-9.31
699.903	-6.31
699.931	-3.31
699.96	7.69
699.988	-1.31
700.017	0.69
700.045	0.69
700.074	-1.31
700.102	1.69
700.13	-6.31
700.159	-1.31
700.187	-4.31
700.216	-18.31
700.244	-22.31
700.273	-4.31
700.301	4.69
700.329	12.69
700.358	11.69
700.386	5.69
700.415	10.69
700.443	-7.31
700.472	-6.31
700.5	7.69
700.528	17.69
700.557	-0.31
700.585	-10.31
700.614	-13.31
700.642	4.69
700.67	21.69
700.699	9.69
700.727	4.69
700.755	7.69
700.784	4.69
700.812	-5.31
700.841	20.69
700.869	-17.31
700.897	-18.31
700.926	10.69
700.954	9.69
700.982	3.69
701.011	13.69
701.039	2.69
701.067	17.69
701.096	5.69
701.124	-2.31
701.152	3.69
701.181	-2.31
701.209	-2.31
701.237	-4.31
701.266	-10.31
701.294	-9.31
701.322	-1.31
701.351	11.69
701.379	-2.31
701.407	10.69
701.435	15.69
701.464	4.69
701.492	8.69
701.52	9.69
701.549	9.69
701.577	3.69
701.605	5.69
701.634	4.69
701.662	8.69
701.69	-32.31
701.718	-13.31
701.747	6.69
701.775	0.69
701.803	-8.31
701.831	-2.31
701.86	-0.31
701.888	3.69
701.916	-0.31
701.944	3.69
701.973	-0.31
702.001	-11.31
702.029	-18.31
702.057	-5.31
702.086	-7.31
702.114	-6.31
702.142	5.69
702.17	-8.31
702.199	2.69
702.227	7.69
702.255	-11.31
702.283	-8.31
702.311	17.69
702.34	-1.31
702.368	-15.31
702.396	4.69
702.424	19.69
702.452	4.69
702.481	-0.31
702.509	-2.31
702.537	21.69
702.565	16.69
702.593	-7.31
702.621	11.69
702.65	4.69
702.678	15.69
702.706	12.69
702.734	13.69
702.762	2.69
702.79	9.69
702.819	3.69
702.847	-2.31
702.875	2.69
702.903	-1.31
702.931	-5.31
702.959	-4.31
702.988	-1.31
703.016	-15.31
703.044	-4.31
703.072	1.69
703.1	-3.31
703.128	-15.31
703.156	3.69
703.184	8.69
703.212	-4.31
703.241	-3.31
703.269	-1.31
703.297	6.69
703.325	6.69
703.353	-17.31
703.381	-13.31
703.409	2.69
703.437	-11.31
703.465	1.69
703.493	-15.31
703.522	3.69
703.55	7.69
703.578	3.69
703.606	5.69
703.634	0.69
703.662	-11.31
703.69	1.69
703.718	-1.31
703.746	13.69
703.774	5.69
703.802	29.69
703.83	-1.31
703.858	-2.31
703.886	-2.31
703.914	0.69
703.942	4.69
703.97	-1.31
703.998	4.69
704.027	23.69
704.055	8.69
704.083	-1.31
704.111	-5.31
704.139	-19.31
704.167	-3.31
704.195	2.69
704.223	-2.31
704.251	1.69
704.279	3.69
704.307	1.69
704.335	-10.31
704.363	9.69
704.391	-5.31
704.419	5.69
704.447	-1.31
704.475	-6.31
704.503	0.69
704.531	13.69
704.558	7.69
704.586	0.69
704.614	-13.31
704.642	-8.31
704.67	-11.31
704.698	-1.31
704.726	12.69
704.754	-10.31
704.782	1.69
704.81	2.69
704.838	23.69
704.866	17.69
704.894	3.69
704.922	8.69
704.95	23.69
704.978	9.69
705.006	-1.31
705.034	7.69
705.061	-6.31
705.089	0.69
705.117	-12.31
705.145	-7.31
705.173	4.69
705.201	12.69
705.229	12.69
705.257	5.69
705.285	18.69
705.313	13.69
705.34	0.69
705.368	-9.31
705.396	5.69
705.424	-0.31
705.452	-12.31
705.48	-3.31
705.508	4.69
705.536	2.69
705.563	11.69
705.591	1.69
705.619	9.69
705.647	-18.31
705.675	-8.31
705.703	10.69
705.731	-9.31
705.758	4.69
705.786	-1.31
705.814	6.69
705.842	-0.31
705.87	13.69
705.898	16.69
705.925	1.69
705.953	5.69
705.981	4.69
706.009	-1.31
706.037	9.69
706.065	9.69
706.092	-11.31
706.12	-10.31
706.148	3.69
706.176	-1.31
706.204	7.69
706.231	8.69
706.259	-6.31
706.287	5.69
706.315	3.69
706.342	14.69
706.37	7.69
706.398	-1.31
706.426	-2.31
706.454	20.69
706.481	24.69
706.509	5.69
706.537	-13.31
706.565	-1.31
706.592	-2.31
706.62	0.69
706.648	16.69
706.676	-12.31
706.703	2.69
706.731	-7.31
706.759	-21.31
706.787	-1.31
706.814	13.69
706.842	-5.31
706.87	-5.31
706.897	14.69
706.925	15.69
706.953	14.69
706.981	13.69
707.008	-5.31
707.036	-0.31
707.064	-0.31
707.091	-26.31
707.119	8.69
707.147	5.69
707.174	-4.31
707.202	26.69
707.23	-8.31
707.258	1.69
707.285	-12.31
707.313	-1.31
707.341	-12.31
707.368	-7.31
707.396	-10.31
707.424	5.69
707.451	1.69
707.479	1.69
707.507	-20.31
707.534	6.69
707.562	3.69
707.59	-8.31
707.617	-9.31
707.645	3.69
707.672	6.69
707.7	5.69
707.728	17.69
707.755	-0.31
707.783	-1.31
707.811	-0.31
707.838	-4.31
707.866	-7.31
707.893	-4.31
707.921	0.69
707.949	3.69
707.976	9.69
708.004	5.69
708.031	-11.31
708.059	-17.31
708.087	-11.31
708.114	-2.31
708.142	-12.31
708.169	-14.31
708.197	-12.31
708.225	7.69
708.252	9.69
708.28	25.69
708.307	-22.31
708.335	10.69
708.362	3.69
708.39	-8.31
708.418	-18.31
708.445	1.69
708.473	-10.31
708.5	-18.31
708.528	4.69
708.555	11.69
708.583	7.69
708.61	-13.31
708.638	6.69
708.665	-2.31
708.693	12.69
708.72	3.69
708.748	-5.31
708.776	-2.31
708.803	31.69
708.831	11.69
708.858	18.69
708.886	7.69
708.913	1.69
708.941	-0.31
708.968	13.69
708.996	-4.31
709.023	22.69
709.051	4.69
709.078	-13.31
709.105	-9.31
709.133	0.69
709.16	-8.31
709.188	7.69
709.215	3.69
709.243	2.69
709.27	-13.31
709.298	9.69
709.325	1.69
709.353	-4.31
709.38	-10.31
709.408	4.69
709.435	-0.31
709.462	-3.31
709.49	4.69
709.517	-12.31
709.545	-1.31
709.572	-5.31
709.6	3.69
709.627	3.69
709.655	1.69
709.682	-2.31
709.709	-6.31
709.737	-7.31
709.764	5.69
709.792	11.69
709.819	12.69
709.846	-4.31
709.874	1.69
709.901	25.69
709.929	26.69
709.956	11.69
709.983	-6.31
710.011	1.69
710.038	-9.31
710.066	17.69
710.093	17.69
710.12	-1.31
710.148	-9.31
710.175	-8.31
710.202	-4.31
710.23	7.69
710.257	-0.31
710.284	17.69
710.312	-10.31
710.339	-6.31
710.366	-8.31
710.394	-5.31
710.421	-0.31
710.448	-0.31
710.476	-1.31
710.503	12.69
710.53	12.69
710.558	9.69
710.585	6.69
710.612	-14.31
710.64	7.69
710.667	4.69
710.694	-7.31
710.722	1.69
710.749	-8.31
710.776	-3.31
710.804	33.69
710.831	17.69
710.858	-7.31
710.885	-9.31
710.913	-1.31
710.94	40.69
710.967	13.69
710.995	-0.31
711.022	-5.31
711.049	-1.31
711.076	-8.31
711.104	-0.31
711.131	-27.31
711.158	-6.31
711.185	18.69
711.213	-10.31
711.24	1.69
711.267	3.69
711.294	1.69
711.322	5.69
711.349	-5.31
711.376	-2.31
711.403	7.69
711.431	-13.31
711.458	-0.31
711.485	-5.31
711.512	6.69
711.54	-0.31
711.567	-0.31
711.594	0.69
711.621	-1.31
711.648	5.69
711.676	-7.31
711.703	-1.31
711.73	-12.31
711.757	-2.31
711.784	5.69
711.812	4.69
711.839	-11.31
711.866	-12.31
711.893	-13.31
711.92	1.69
711.947	7.69
711.975	19.69
712.002	-2.31
712.029	12.69
712.056	14.69
712.083	12.69
712.11	-6.31
712.138	11.69
712.165	8.69
712.192	1.69
712.219	-3.31
712.246	-4.31
712.273	-8.31
712.3	-13.31
712.328	-1.31
712.355	1.69
712.382	3.69
712.409	11.69
712.436	0.69
712.463	14.69
712.49	6.69
712.517	3.69
712.544	-17.31
712.572	-1.31
712.599	-4.31
712.626	4.69
712.653	-5.31
712.68	-20.31
712.707	7.69
712.734	3.69
712.761	-1.31
712.788	2.69
712.815	1.69
712.842	-0.31
712.87	-1.31
712.897	-9.31
712.924	1.69
712.951	5.69
712.978	23.69
713.005	22.69
713.032	9.69
713.059	5.69
713.086	14.69
713.113	11.69
713.14	-5.31
713.167	3.69
713.194	29.69
713.221	18.69
713.248	22.69
713.275	4.69
713.302	-5.31
713.329	-0.31
713.356	-5.31
713.383	7.69
713.41	11.69
713.437	-7.31
713.464	11.69
713.491	22.69
713.518	0.69
713.545	-4.31
713.572	10.69
713.599	10.69
713.626	5.69
713.653	24.69
713.68	-8.31
713.707	-3.31
713.734	10.69
713.761	5.69
713.788	-4.31
713.815	4.69
713.842	2.69
713.869	7.69
713.896	-17.31
713.923	1.69
713.95	12.69
713.977	2.69
714.004	10.69
714.031	-4.31
714.058	-18.31
714.085	-2.31
714.112	13.69
714.139	4.69
714.165	-5.31
714.192	-6.31
714.219	-5.31
714.246	6.69
714.273	6.69
714.3	4.69
714.327	1.69
714.354	-1.31
714.381	-5.31
714.408	-2.31
714.435	1.69
714.461	5.69
714.488	17.69
714.515	3.69
714.542	-10.31
714.569	-8.31
714.596	-14.31
714.623	-6.31
714.65	3.69
714.677	-1.31
714.703	4.69
714.73	2.69
714.757	4.69
714.784	-2.31
714.811	-6.31
714.838	-14.31
714.865	-14.31
714.891	11.69
714.918	-4.31
714.945	-18.31
714.972	1.69
714.999	15.69
715.026	-6.31
715.052	6.69
715.079	2.69
715.106	2.69
715.133	2.69
715.16	1.69
715.187	16.69
715.213	7.69
715.24	14.69
715.267	2.69
715.294	14.69
715.321	-1.31
715.347	4.69
715.374	-7.31
715.401	3.69
715.428	2.69
715.455	6.69
715.481	-5.31
715.508	19.69
715.535	2.69
715.562	17.69
715.588	10.69
715.615	-9.31
715.642	-7.31
715.669	-5.31
715.695	-9.31
715.722	3.69
715.749	-5.31
715.776	15.69
715.802	0.69
715.829	1.69
715.856	14.69
715.883	4.69
715.909	-1.31
715.936	2.69
715.963	11.69
715.99	-10.31
716.016	-2.31
716.043	2.69
716.07	-2.31
716.096	-7.31
716.123	-6.31
716.15	-5.31
716.177	0.69
716.203	12.69
716.23	1.69
716.257	7.69
716.283	19.69
716.31	2.69
716.337	10.69
716.363	-2.31
716.39	-1.31
716.417	18.69
716.443	-5.31
716.47	2.69
716.497	3.69
716.523	5.69
716.55	6.69
716.577	17.69
716.603	1.69
716.63	14.69
716.657	12.69
716.683	-7.31
716.71	0.69
716.737	-3.31
716.763	-4.31
716.79	-8.31
716.817	3.69
716.843	0.69
716.87	-0.31
716.897	1.69
716.923	7.69
716.95	-12.31
716.976	-14.31
717.003	-0.31
717.03	18.69
717.056	17.69
717.083	1.69
717.109	-5.31
717.136	6.69
717.163	-10.31
717.189	15.69
717.216	7.69
717.242	-1.31
717.269	2.69
717.296	3.69
717.322	14.69
717.349	15.69
717.375	-6.31
717.402	-2.31
717.428	2.69
717.455	6.69
717.481	5.69
717.508	-3.31
717.535	5.69
717.561	-2.31
717.588	-5.31
717.614	-14.31
717.641	-13.31
717.667	-2.31
717.694	7.69
717.72	8.69
717.747	15.69
717.773	-12.31
717.8	-4.31
717.826	7.69
717.853	7.69
717.88	10.69
717.906	3.69
717.933	8.69
717.959	9.69
717.986	5.69
718.012	-9.31
718.039	6.69
718.065	0.69
718.092	-0.31
718.118	1.69
718.144	-18.31
718.171	3.69
718.197	21.69
718.224	0.69
718.25	1.69
718.277	5.69
718.303	12.69
718.33	15.69
718.356	-5.31
718.383	-1.31
718.409	1.69
718.436	0.69
718.462	6.69
718.489	-3.31
718.515	22.69
718.541	23.69
718.568	5.69
718.594	2.69
718.621	6.69
718.647	10.69
718.674	17.69
718.7	23.69
718.726	-0.31
718.753	10.69
718.779	2.69
718.806	-9.31
718.832	-2.31
718.858	4.69
718.885	7.69
718.911	7.69
718.938	10.69
718.964	-4.31
718.99	1.69
719.017	-6.31
719.043	15.69
719.07	32.69
719.096	-2.31
719.122	11.69
719.149	-2.31
719.175	-8.31
719.201	1.69
719.228	2.69
719.254	0.69
719.281	-10.31
719.307	10.69
719.333	-2.31
719.36	19.69
719.386	14.69
719.412	2.69
719.439	-10.31
719.465	10.69
719.491	-6.31
719.518	15.69
719.544	11.69
719.57	8.69
719.597	4.69
719.623	-4.31
719.649	7.69
719.675	-9.31
719.702	-12.31
719.728	8.69
719.754	2.69
719.781	-0.31
719.807	-1.31
719.833	-3.31
719.86	14.69
719.886	-4.31
719.912	2.69
719.938	-9.31
719.965	-6.31
719.991	2.69
720.017	3.69
720.044	1.69
720.07	-6.31
720.096	10.69
720.122	0.69
720.149	7.69
720.175	19.69
720.201	-0.31
720.227	7.69
720.254	13.69
720.28	2.69
720.306	-1.31
720.332	5.69
720.359	-5.31
720.385	13.69
720.411	13.69
720.437	5.69
720.463	-11.31
720.49	10.69
720.516	-2.31
720.542	-4.31
720.568	7.69
720.595	8.69
720.621	11.69
720.647	14.69
720.673	8.69
720.699	3.69
720.725	17.69
720.752	8.69
720.778	6.69
720.804	17.69
720.83	20.69
720.856	1.69
720.883	-10.31
720.909	-8.31
720.935	8.69
720.961	4.69
720.987	2.69
721.013	9.69
721.04	1.69
721.066	-4.31
721.092	9.69
721.118	21.69
721.144	11.69
721.17	-7.31
721.196	2.69
721.223	0.69
721.249	-1.31
721.275	24.69
721.301	20.69
721.327	15.69
721.353	14.69
721.379	1.69
721.405	-0.31
721.432	9.69
721.458	3.69
721.484	17.69
721.51	-14.31
721.536	-8.31
721.562	3.69
721.588	-1.31
721.614	5.69
721.64	-9.31
721.666	-1.31
721.693	5.69
721.719	-5.31
721.745	-4.31
721.771	-4.31
721.797	-4.31
721.823	5.69
721.849	21.69
721.875	2.69
721.901	12.69
721.927	5.69
721.953	4.69
721.979	13.69
722.005	-2.31
722.031	-5.31
722.057	2.69
722.083	5.69
722.109	-0.31
722.135	14.69
722.161	7.69
722.187	0.69
722.214	-11.31
722.24	-4.31
722.266	0.69
722.292	11.69
722.318	7.69
722.344	2.69
722.37	7.69
722.396	19.69
722.422	-1.31
722.448	-5.31
722.474	2.69
722.5	4.69
722.526	6.69
722.552	3.69
722.578	0.69
722.603	-2.31
722.629	-12.31
722.655	-7.31
722.681	3.69
722.707	12.69
722.733	-0.31
722.759	6.69
722.785	-0.31
722.811	7.69
722.837	1.69
722.863	8.69
722.889	11.69
722.915	-2.31
722.941	-1.31
722.967	-1.31
722.993	-2.31
723.019	-2.31
723.045	3.69
723.071	-2.31
723.097	3.69
723.122	10.69
723.148	6.69
723.174	-0.31
723.2	-1.31
723.226	-4.31
723.252	-4.31
723.278	-0.31
723.304	2.69
723.33	4.69
723.356	-1.31
723.381	-2.31
723.407	-4.31
723.433	6.69
723.459	2.69
723.485	8.69
723.511	14.69
723.537	1.69
723.563	10.69
723.588	16.69
723.614	1.69
723.64	0.69
723.666	-9.31
723.692	22.69
723.718	-1.31
723.744	-7.31
723.769	3.69
723.795	-7.31
723.821	5.69
723.847	10.69
723.873	-3.31
723.899	12.69
723.924	2.69
723.95	2.69
723.976	-4.31
724.002	-5.31
724.028	5.69
724.053	-7.31
724.079	9.69
724.105	7.69
724.131	10.69
724.157	-0.31
724.182	14.69
724.208	-4.31
724.234	-6.31
724.26	-16.31
724.286	0.69
724.311	14.69
724.337	-9.31
724.363	3.69
724.389	-0.31
724.415	-8.31
724.44	3.69
724.466	4.69
724.492	2.69
724.518	22.69
724.543	-5.31
724.569	2.69
724.595	6.69
724.621	-1.31
724.646	-16.31
724.672	-8.31
724.698	1.69
724.723	-18.31
724.749	4.69
724.775	5.69
724.801	1.69
724.826	-0.31
724.852	-4.31
724.878	-0.31
724.904	-7.31
724.929	20.69
724.955	-0.31
724.981	2.69
725.006	-2.31
725.032	10.69
725.058	10.69
725.083	2.69
725.109	11.69
725.135	11.69
725.161	3.69
725.186	-9.31
725.212	8.69
725.238	10.69
725.263	-1.31
725.289	-6.31
725.315	1.69
725.34	-0.31
725.366	5.69
725.392	0.69
725.417	6.69
725.443	-6.31
725.468	-14.31
725.494	5.69
725.52	17.69
725.545	11.69
725.571	-2.31
725.597	-10.31
725.622	5.69
725.648	-1.31
725.674	12.69
725.699	3.69
725.725	-0.31
725.75	23.69
725.776	-1.31
725.802	-8.31
725.827	6.69
725.853	5.69
725.878	-2.31
725.904	6.69
725.93	3.69
725.955	13.69
725.981	-1.31
726.006	-2.31
726.032	11.69
726.057	-2.31
726.083	-4.31
726.109	11.69
726.134	11.69
726.16	12.69
726.185	-5.31
726.211	-1.31
726.236	-6.31
726.262	0.69
726.288	11.69
726.313	15.69
726.339	10.69
726.364	8.69
726.39	4.69
726.415	11.69
726.441	-7.31
726.466	-3.31
726.492	-8.31
726.517	-2.31
726.543	-7.31
726.568	-15.31
726.594	-2.31
726.619	-6.31
726.645	11.69
726.67	1.69
726.696	17.69
726.721	1.69
726.747	4.69
726.772	-4.31
726.798	-1.31
726.823	21.69
726.849	2.69
726.874	22.69
726.9	20.69
726.925	-3.31
726.951	-9.31
726.976	12.69
727.002	15.69
727.027	8.69
727.053	24.69
727.078	2.69
727.104	7.69
727.129	-5.31
727.155	-1.31
727.18	3.69
727.205	-9.31
727.231	1.69
727.256	1.69
727.282	6.69
727.307	19.69
727.333	-1.31
727.358	-9.31
727.383	-10.31
727.409	-7.31
727.434	10.69
727.46	2.69
727.485	4.69
727.511	-3.31
727.536	-14.31
727.561	-8.31
727.587	-4.31
727.612	-6.31
727.637	-10.31
727.663	-14.31
727.688	9.69
727.714	-3.31
727.739	-14.31
727.764	-10.31
727.79	-4.31
727.815	8.69
727.841	19.69
727.866	4.69
727.891	12.69
727.917	-17.31
727.942	-9.31
727.967	-23.31
727.993	-17.31
728.018	4.69
728.043	2.69
728.069	4.69
728.094	15.69
728.119	-2.31
728.145	1.69
728.17	9.69
728.195	8.69
728.221	18.69
728.246	10.69
728.271	-15.31
728.297	8.69
728.322	1.69
728.347	13.69
728.373	0.69
728.398	10.69
728.423	-5.31
728.448	18.69
728.474	5.69
728.499	8.69
728.524	-1.31
728.55	5.69
728.575	-6.31
728.6	14.69
728.625	-10.31
728.651	-0.31
728.676	7.69
728.701	2.69
728.727	5.69
728.752	11.69
728.777	-8.31
728.802	10.69
728.828	6.69
728.853	-6.31
728.878	-1.31
728.903	-5.31
728.929	-8.31
728.954	-9.31
728.979	-3.31
729.004	2.69
729.03	-8.31
729.055	-8.31
729.08	-4.31
729.105	-3.31
729.13	3.69
729.156	16.69
729.181	7.69
729.206	-10.31
729.231	-1.31
729.256	-3.31
729.282	11.69
729.307	-4.31
729.332	-2.31
729.357	-14.31
729.382	1.69
729.408	9.69
729.433	18.69
729.458	8.69
729.483	6.69
729.508	15.69
729.533	8.69
729.559	3.69
729.584	-9.31
729.609	3.69
729.634	18.69
729.659	0.69
729.684	-12.31
729.71	16.69
729.735	-0.31
729.76	1.69
729.785	-6.31
729.81	9.69
729.835	11.69
729.86	-9.31
729.886	12.69
729.911	18.69
729.936	5.69
729.961	29.69
729.986	9.69
730.011	63.69
730.036	193.69
730.061	991.69
730.086	2651.69
730.112	3327.69
730.137	2785.69
730.162	2112.69
730.187	1599.69
730.212	1247.69
730.237	794.69
730.262	438.69
730.287	246.69
730.312	144.69
730.337	68.69
730.362	67.69
730.387	27.69
730.413	15.69
730.438	20.69
730.463	18.69
730.488	16.69
730.513	17.69
730.538	8.69
730.563	12.69
730.588	20.69
730.613	23.69
730.638	10.69
730.663	6.69
730.688	19.69
730.713	19.69
730.738	9.69
730.763	2.69
730.788	-8.31
730.813	12.69
730.838	8.69
730.863	5.69
730.888	3.69
730.913	-1.31
730.938	-10.31
730.963	21.69
730.988	113.69
731.013	401.69
731.038	615.69
731.063	590.69
731.088	441.69
731.113	334.69
731.138	264.69
731.163	189.69
731.188	125.69
731.213	53.69
731.238	43.69
731.263	25.69
731.288	16.69
731.313	24.69
731.338	14.69
731.363	11.69
731.388	17.69
731.413	14.69
731.438	13.69
731.463	4.69
731.487	-4.31
731.512	-22.31
731.537	-2.31
731.562	-0.31
731.587	2.69
731.612	3.69
731.637	6.69
731.662	2.69
731.687	15.69
731.712	-5.31
731.737	5.69
731.762	2.69
731.786	14.69
731.811	1.69
731.836	18.69
731.861	7.69
731.886	-12.31
731.911	11.69
731.936	14.69
731.961	6.69
731.986	-13.31
732.01	13.69
732.035	6.69
732.06	3.69
732.085	1.69
732.11	3.69
732.135	-13.31
732.16	-5.31
732.184	9.69
732.209	-0.31
732.234	10.69
732.259	-13.31
732.284	25.69
732.309	-12.31
732.334	-6.31
732.358	-15.31
732.383	-11.31
732.408	-6.31
732.433	-12.31
732.458	1.69
732.482	13.69
732.507	2.69
732.532	1.69
732.557	10.69
732.582	20.69
732.607	18.69
732.631	38.69
732.656	86.69
732.681	155.69
732.706	329.69
732.73	462.69
732.755	416.69
732.78	307.69
732.805	246.69
732.83	185.69
732.854	132.69
732.879	69.69
732.904	35.69
732.929	14.69
732.953	16.69
732.978	4.69
733.003	11.69
733.028	3.69
733.052	-2.31
733.077	2.69
733.102	15.69
733.127	13.69
733.151	1.69
733.176	6.69
733.201	-5.31
733.226	-2.31
733.25	1.69
733.275	1.69
733.3	-2.31
733.324	7.69
733.349	-7.31
733.374	18.69
733.399	-7.31
733.423	-5.31
733.448	-7.31
733.473	-7.31
733.497	-8.31
733.522	3.69
733.547	22.69
733.571	22.69
733.596	9.69
733.621	-0.31
733.646	7.69
733.67	10.69
733.695	-11.31
733.72	7.69
733.744	2.69
733.769	13.69
733.794	10.69
733.818	19.69
733.843	-0.31
733.867	1.69
733.892	-3.31
733.917	-8.31
733.941	5.69
733.966	-2.31
733.991	-18.31
734.015	-1.31
734.04	10.69
734.065	3.69
734.089	20.69
734.114	-5.31
734.138	-3.31
734.163	1.69
734.188	4.69
734.212	3.69
734.237	5.69
734.261	2.69
734.286	9.69
734.311	-9.31
734.335	-4.31
734.36	-4.31
734.384	12.69
734.409	16.69
734.434	-5.31
734.458	-0.31
734.483	1.69
734.507	7.69
734.532	-4.31
734.556	1.69
734.581	15.69
734.606	-0.31
734.63	-10.31
734.655	8.69
734.679	-6.31
734.704	-14.31
734.728	16.69
734.753	2.69
734.777	3.69
734.802	-1.31
734.826	8.69
734.851	4.69
734.876	18.69
734.9	5.69
734.925	13.69
734.949	4.69
734.974	8.69
734.998	12.69
735.023	-20.31
735.047	-17.31
735.072	3.69
735.096	-11.31
735.121	10.69
735.145	-1.31
735.17	3.69
735.194	7.69
735.219	-1.31
735.243	-0.31
735.268	3.69
735.292	3.69
735.317	-5.31
735.341	-1.31
735.365	2.69
735.39	8.69
735.414	7.69
735.439	5.69
735.463	7.69
735.488	5.69
735.512	8.69
735.537	9.69
735.561	2.69
735.586	-18.31
735.61	8.69
735.634	-3.31
735.659	-0.31
735.683	20.69
735.708	6.69
735.732	-6.31
735.757	-10.31
735.781	11.69
735.805	30.69
735.83	-6.31
735.854	-8.31
735.879	7.69
735.903	8.69
735.927	14.69
735.952	18.69
735.976	-5.31
736.001	1.69
736.025	-7.31
736.049	11.69
736.074	0.69
736.098	-0.31
736.123	14.69
736.147	6.69
736.171	15.69
736.196	-7.31
736.22	-6.31
736.244	6.69
736.269	0.69
736.293	-5.31
736.317	-14.31
736.342	12.69
736.366	25.69
736.39	10.69
736.415	2.69
736.439	4.69
736.463	2.69
736.488	3.69
736.512	-1.31
736.536	12.69
736.561	16.69
736.585	-0.31
736.609	10.69
736.634	4.69
736.658	3.69
736.682	-2.31
736.707	-4.31
736.731	-12.31
736.755	-2.31
736.78	20.69
736.804	8.69
736.828	11.69
736.852	-9.31
736.877	-1.31
736.901	17.69
736.925	-8.31
736.949	-2.31
736.974	8.69
736.998	-4.31
737.022	2.69
737.047	-1.31
737.071	4.69
737.095	14.69
737.119	25.69
737.144	8.69
737.168	-5.31
737.192	2.69
737.216	6.69
737.241	1.69
737.265	10.69
737.289	4.69
737.313	13.69
737.337	1.69
737.362	5.69
737.386	-5.31
737.41	-0.31
737.434	8.69
737.459	5.69
737.483	14.69
737.507	15.69
737.531	21.69
737.555	12.69
737.58	5.69
737.604	-6.31
737.628	-0.31
737.652	-2.31
737.676	11.69
737.701	-6.31
737.725	-10.31
737.749	8.69
737.773	4.69
737.797	1.69
737.821	13.69
737.846	5.69
737.87	23.69
737.894	13.69
737.918	-3.31
737.942	-6.31
737.966	10.69
737.99	6.69
738.015	11.69
738.039	9.69
738.063	-0.31
738.087	23.69
738.111	7.69
738.135	4.69
738.159	-6.31
738.184	-1.31
738.208	13.69
738.232	6.69
738.256	20.69
738.28	16.69
738.304	15.69
738.328	3.69
738.352	2.69
738.376	6.69
738.4	19.69
738.425	11.69
738.449	7.69
738.473	21.69
738.497	2.69
738.521	-0.31
738.545	8.69
738.569	13.69
738.593	23.69
738.617	-7.31
738.641	-1.31
738.665	4.69
738.689	16.69
738.713	-1.31
738.737	18.69
738.762	22.69
738.786	5.69
738.81	-10.31
738.834	14.69
738.858	-8.31
738.882	12.69
738.906	7.69
738.93	7.69
738.954	3.69
738.978	11.69
739.002	-10.31
739.026	12.69
739.05	7.69
739.074	-16.31
739.098	31.69
739.122	25.69
739.146	3.69
739.17	7.69
739.194	14.69
739.218	8.69
739.242	2.69
739.266	-7.31
739.29	7.69
739.314	6.69
739.338	8.69
739.362	3.69
739.386	22.69
739.41	-2.31
739.434	-0.31
739.458	21.69
739.482	1.69
739.506	2.69
739.53	-1.31
739.554	21.69
739.577	1.69
739.601	10.69
739.625	-2.31
739.649	-1.31
739.673	-1.31
739.697	38.69
739.721	3.69
739.745	-1.31
739.769	5.69
739.793	6.69
739.817	9.69
739.841	0.69
739.865	-5.31
739.889	-9.31
739.912	10.69
739.936	-14.31
739.96	1.69
739.984	11.69
740.008	-12.31
740.032	0.69
740.056	-1.31
740.08	9.69
740.104	4.69
740.127	-1.31
740.151	9.69
740.175	10.69
740.199	15.69
740.223	60.69
740.247	12.69
740.271	4.69
740.295	15.69
740.318	-11.31
740.342	2.69
740.366	-1.31
740.39	12.69
740.414	-13.31
740.438	0.69
740.461	26.69
740.485	11.69
740.509	-2.31
740.533	14.69
740.557	-7.31
740.581	-1.31
740.604	-12.31
740.628	-0.31
740.652	5.69
740.676	-6.31
740.7	12.69
740.723	-10.31
740.747	-7.31
740.771	-0.31
740.795	-7.31
740.819	10.69
740.842	7.69
740.866	6.69
740.89	7.69
740.914	-3.31
740.938	-34.31
740.961	1.69
740.985	3.69
741.009	-4.31
741.033	5.69
741.056	1.69
741.08	-0.31
741.104	-16.31
741.128	-6.31
741.151	16.69
741.175	4.69
741.199	-0.31
741.223	22.69
741.246	2.69
741.27	14.69
741.294	23.69
741.318	14.69
741.341	13.69
741.365	12.69
741.389	26.69
741.413	2.69
741.436	17.69
741.46	-0.31
741.484	12.69
741.507	7.69
741.531	12.69
741.555	19.69
741.579	0.69
741.602	3.69
741.626	7.69
741.65	-10.31
741.673	-2.31
741.697	-1.31
741.721	6.69
741.744	-5.31
741.768	21.69
741.792	7.69
741.815	-2.31
741.839	16.69
741.863	10.69
741.886	15.69
741.91	8.69
741.934	3.69
741.957	-10.31
741.981	11.69
742.005	8.69
742.028	-2.31
742.052	2.69
742.075	8.69
742.099	4.69
742.123	9.69
742.146	-7.31
742.17	-8.31
742.194	-14.31
742.217	2.69
742.241	10.69
742.264	8.69
742.288	6.69
742.312	3.69
742.335	5.69
742.359	-7.31
742.382	14.69
742.406	30.69
742.43	-21.31
742.453	-0.31
742.477	-3.31
742.5	-10.31
742.524	-7.31
742.548	-6.31
742.571	1.69
742.595	-8.31
742.618	-14.31
742.642	3.69
742.665	2.69
742.689	0.69
742.712	13.69
742.736	15.69
742.76	9.69
742.783	7.69
742.807	7.69
742.83	14.69
742.854	-12.31
742.877	-7.31
742.901	-6.31
742.924	-1.31
742.948	4.69
742.971	7.69
742.995	14.69
743.018	-10.31
743.042	-6.31
743.065	-10.31
743.089	-4.31
743.112	4.69
743.136	1.69
743.159	-12.31
743.183	0.69
743.206	-2.31
743.23	-11.31
743.253	7.69
743.277	21.69
743.3	3.69
743.324	-12.31
743.347	-10.31
743.371	21.69
743.394	11.69
743.418	21.69
743.441	14.69
743.465	19.69
743.488	3.69
743.512	-10.31
743.535	11.69
743.558	15.69
743.582	7.69
743.605	7.69
743.629	6.69
743.652	6.69
743.676	-5.31
743.699	-1.31
743.723	8.69
743.746	24.69
743.769	0.69
743.793	2.69
743.816	2.69
743.84	4.69
743.863	-2.31
743.886	17.69
743.91	25.69
743.933	11.69
743.957	10.69
743.98	16.69
744.003	1.69
744.027	2.69
744.05	-2.31
744.074	3.69
744.097	-3.31
744.12	-6.31
744.144	-5.31
744.167	14.69
744.19	-4.31
744.214	-4.31
744.237	-8.31
744.26	5.69
744.284	-14.31
744.307	-5.31
744.331	-1.31
744.354	0.69
744.377	4.69
744.401	13.69
744.424	3.69
744.447	-9.31
744.471	-17.31
