Data from HighRes_mercury_15_13_11_07_2024_HR4C61891__85__15-14-31-685.txt Node

Date: Thu Nov 07 15:14:31 EST 2024
User: crc00042
Spectrometer: HR4C6189
Trigger mode: 4
Integration Time (sec): 1.000000E-1
Scans to average: 1
Electric dark correction enabled: true
Nonlinearity correction enabled: false
Boxcar width: 0
XAxis mode: Wavelengths
Number of Pixels in Spectrum: 3648
>>>>>Begin Spectral Data<<<<<
639.567	-37.69
639.602	-37.69
639.636	-37.69
639.67	-35.69
639.704	-11.69
639.738	4.31
639.773	23.31
639.807	-2.69
639.841	8.31
639.875	4.31
639.909	4.31
639.943	-20.69
639.978	-23.69
640.012	8.31
640.046	13.31
640.08	9.31
640.114	-7.69
640.148	-20.69
640.182	-15.69
640.217	-7.69
640.251	12.31
640.285	14.31
640.319	9.31
640.353	-5.69
640.387	-0.69
640.421	-7.69
640.455	-3.69
640.49	-0.69
640.524	11.31
640.558	11.31
640.592	9.31
640.626	-6.69
640.66	-10.69
640.694	-13.69
640.728	0.31
640.762	5.31
640.796	12.31
640.83	26.31
640.865	1.31
640.899	11.31
640.933	2.31
640.967	1.31
641.001	4.31
641.035	4.31
641.069	5.31
641.103	13.31
641.137	-3.69
641.171	-14.69
641.205	7.31
641.239	5.31
641.273	-4.69
641.307	3.31
641.341	6.31
641.375	-8.69
641.409	4.31
641.443	8.31
641.477	-2.69
641.511	-4.69
641.545	2.31
641.579	-3.69
641.614	14.31
641.648	-6.69
641.682	-16.69
641.716	-13.69
641.75	5.31
641.784	-16.69
641.818	-2.69
641.852	6.31
641.886	7.31
641.919	18.31
641.953	1.31
641.987	-3.69
642.021	-7.69
642.055	21.31
642.089	-0.69
642.123	-4.69
642.157	-7.69
642.191	-2.69
642.225	-0.69
642.259	2.31
642.293	3.31
642.327	16.31
642.361	-0.69
642.395	17.31
642.429	27.31
642.463	6.31
642.497	9.31
642.531	-15.69
642.565	-6.69
642.599	8.31
642.633	-2.69
642.666	4.31
642.7	22.31
642.734	13.31
642.768	-5.69
642.802	12.31
642.836	17.31
642.87	-2.69
642.904	-7.69
642.938	16.31
642.972	4.31
643.005	5.31
643.039	18.31
643.073	-1.69
643.107	2.31
643.141	8.31
643.175	-3.69
643.209	5.31
643.243	0.31
643.276	-5.69
643.31	-11.69
643.344	-27.69
643.378	14.31
643.412	10.31
643.446	-0.69
643.48	-10.69
643.513	7.31
643.547	-3.69
643.581	1.31
643.615	-2.69
643.649	-9.69
643.683	-4.69
643.716	-3.69
643.75	2.31
643.784	7.31
643.818	17.31
643.852	3.31
643.886	7.31
643.919	2.31
643.953	8.31
643.987	3.31
644.021	27.31
644.055	6.31
644.088	7.31
644.122	-17.69
644.156	-1.69
644.19	-11.69
644.224	12.31
644.257	-0.69
644.291	0.31
644.325	0.31
644.359	1.31
644.392	-1.69
644.426	12.31
644.46	-4.69
644.494	8.31
644.527	-17.69
644.561	-4.69
644.595	-2.69
644.629	-10.69
644.662	1.31
644.696	10.31
644.73	12.31
644.764	9.31
644.797	-11.69
644.831	2.31
644.865	9.31
644.899	-3.69
644.932	24.31
644.966	-17.69
645	0.31
645.033	19.31
645.067	-8.69
645.101	1.31
645.135	-10.69
645.168	-11.69
645.202	-17.69
645.236	3.31
645.269	0.31
645.303	-1.69
645.337	-4.69
645.37	11.31
645.404	0.31
645.438	-7.69
645.471	-6.69
645.505	0.31
645.539	5.31
645.572	-12.69
645.606	-10.69
645.64	9.31
645.673	3.31
645.707	20.31
645.741	-2.69
645.774	-26.69
645.808	11.31
645.842	-8.69
645.875	1.31
645.909	-17.69
645.943	-6.69
645.976	4.31
646.01	19.31
646.043	-0.69
646.077	4.31
646.111	9.31
646.144	8.31
646.178	3.31
646.212	-20.69
646.245	-8.69
646.279	5.31
646.312	-5.69
646.346	-4.69
646.38	-1.69
646.413	2.31
646.447	0.31
646.48	-3.69
646.514	3.31
646.547	-1.69
646.581	-2.69
646.615	0.31
646.648	-2.69
646.682	-14.69
646.715	-3.69
646.749	-0.69
646.782	6.31
646.816	7.31
646.85	-5.69
646.883	-11.69
646.917	-1.69
646.95	-0.69
646.984	1.31
647.017	7.31
647.051	8.31
647.084	1.31
647.118	1.31
647.151	-2.69
647.185	20.31
647.218	-15.69
647.252	11.31
647.285	0.31
647.319	-12.69
647.353	-1.69
647.386	5.31
647.42	9.31
647.453	-12.69
647.487	-6.69
647.52	0.31
647.553	6.31
647.587	0.31
647.62	-6.69
647.654	1.31
647.687	10.31
647.721	13.31
647.754	0.31
647.788	0.31
647.821	-6.69
647.855	19.31
647.888	22.31
647.922	11.31
647.955	3.31
647.989	-6.69
648.022	-0.69
648.055	4.31
648.089	11.31
648.122	20.31
648.156	6.31
648.189	1.31
648.223	3.31
648.256	21.31
648.29	12.31
648.323	2.31
648.356	13.31
648.39	2.31
648.423	12.31
648.457	2.31
648.49	15.31
648.523	4.31
648.557	5.31
648.59	2.31
648.624	1.31
648.657	-3.69
648.69	12.31
648.724	4.31
648.757	9.31
648.791	18.31
648.824	3.31
648.857	8.31
648.891	10.31
648.924	4.31
648.957	10.31
648.991	-21.69
649.024	2.31
649.057	-9.69
649.091	3.31
649.124	-3.69
649.158	20.31
649.191	32.31
649.224	2.31
649.258	4.31
649.291	12.31
649.324	13.31
649.358	13.31
649.391	9.31
649.424	1.31
649.458	-3.69
649.491	8.31
649.524	1.31
649.557	-8.69
649.591	-9.69
649.624	8.31
649.657	-14.69
649.691	-1.69
649.724	-0.69
649.757	1.31
649.791	2.31
649.824	16.31
649.857	0.31
649.89	-26.69
649.924	8.31
649.957	5.31
649.99	-1.69
650.023	3.31
650.057	0.31
650.09	0.31
650.123	0.31
650.157	12.31
650.19	18.31
650.223	4.31
650.256	-9.69
650.29	-6.69
650.323	-14.69
650.356	-9.69
650.389	2.31
650.423	2.31
650.456	-9.69
650.489	11.31
650.522	-0.69
650.555	12.31
650.589	18.31
650.622	9.31
650.655	7.31
650.688	-0.69
650.721	2.31
650.755	9.31
650.788	0.31
650.821	-9.69
650.854	25.31
650.887	2.31
650.921	6.31
650.954	-10.69
650.987	0.31
651.02	-1.69
651.053	-19.69
651.087	-0.69
651.12	18.31
651.153	-2.69
651.186	4.31
651.219	-15.69
651.252	8.31
651.286	-2.69
651.319	-4.69
651.352	-1.69
651.385	-2.69
651.418	0.31
651.451	19.31
651.484	19.31
651.518	-13.69
651.551	4.31
651.584	-20.69
651.617	-1.69
651.65	7.31
651.683	14.31
651.716	9.31
651.749	-19.69
651.783	3.31
651.816	-3.69
651.849	13.31
651.882	-2.69
651.915	-11.69
651.948	15.31
651.981	-0.69
652.014	-10.69
652.047	-10.69
652.08	-2.69
652.114	-7.69
652.147	-4.69
652.18	9.31
652.213	29.31
652.246	-8.69
652.279	2.31
652.312	15.31
652.345	-0.69
652.378	-6.69
652.411	13.31
652.444	9.31
652.477	4.31
652.51	0.31
652.543	-22.69
652.576	1.31
652.609	-7.69
652.642	8.31
652.675	17.31
652.709	-13.69
652.742	13.31
652.775	9.31
652.808	12.31
652.841	-19.69
652.874	-19.69
652.907	-11.69
652.94	-6.69
652.973	-8.69
653.006	-5.69
653.039	-8.69
653.072	20.31
653.105	7.31
653.138	-8.69
653.171	-12.69
653.204	-1.69
653.237	15.31
653.27	5.31
653.303	6.31
653.336	-4.69
653.368	-8.69
653.401	23.31
653.434	-4.69
653.467	3.31
653.5	-18.69
653.533	-1.69
653.566	0.31
653.599	2.31
653.632	1.31
653.665	-14.69
653.698	-10.69
653.731	-6.69
653.764	-6.69
653.797	9.31
653.83	1.31
653.863	-12.69
653.896	0.31
653.929	4.31
653.961	-9.69
653.994	-2.69
654.027	-8.69
654.06	19.31
654.093	11.31
654.126	-0.69
654.159	-8.69
654.192	6.31
654.225	-2.69
654.258	7.31
654.29	0.31
654.323	5.31
654.356	-6.69
654.389	6.31
654.422	8.31
654.455	-13.69
654.488	-17.69
654.521	-10.69
654.553	-6.69
654.586	2.31
654.619	3.31
654.652	5.31
654.685	15.31
654.718	-3.69
654.751	1.31
654.783	3.31
654.816	20.31
654.849	0.31
654.882	-6.69
654.915	-12.69
654.948	-5.69
654.98	-9.69
655.013	-1.69
655.046	5.31
655.079	-4.69
655.112	-7.69
655.144	-12.69
655.177	8.31
655.21	10.31
655.243	15.31
655.276	16.31
655.308	0.31
655.341	-18.69
655.374	2.31
655.407	3.31
655.44	10.31
655.472	-2.69
655.505	2.31
655.538	7.31
655.571	8.31
655.603	-1.69
655.636	0.31
655.669	11.31
655.702	-26.69
655.734	-9.69
655.767	-7.69
655.8	-2.69
655.833	7.31
655.865	1.31
655.898	1.31
655.931	-3.69
655.964	0.31
655.996	8.31
656.029	16.31
656.062	-12.69
656.095	1.31
656.127	-12.69
656.16	-4.69
656.193	-16.69
656.225	13.31
656.258	21.31
656.291	3.31
656.324	14.31
656.356	0.31
656.389	0.31
656.422	0.31
656.454	6.31
656.487	3.31
656.52	-3.69
656.552	1.31
656.585	5.31
656.618	12.31
656.65	24.31
656.683	-6.69
656.716	2.31
656.748	1.31
656.781	-3.69
656.814	-3.69
656.846	20.31
656.879	9.31
656.912	2.31
656.944	-11.69
656.977	-15.69
657.01	2.31
657.042	-7.69
657.075	3.31
657.108	-12.69
657.14	9.31
657.173	0.31
657.205	17.31
657.238	-0.69
657.271	-0.69
657.303	-10.69
657.336	-10.69
657.369	-2.69
657.401	-0.69
657.434	-0.69
657.466	8.31
657.499	11.31
657.532	-0.69
657.564	4.31
657.597	6.31
657.629	-4.69
657.662	-0.69
657.694	4.31
657.727	-16.69
657.76	11.31
657.792	-10.69
657.825	-19.69
657.857	3.31
657.89	2.31
657.922	-1.69
657.955	3.31
657.987	-9.69
658.02	2.31
658.053	6.31
658.085	2.31
658.118	0.31
658.15	12.31
658.183	7.31
658.215	-13.69
658.248	-12.69
658.28	0.31
658.313	14.31
658.345	4.31
658.378	8.31
658.41	-7.69
658.443	11.31
658.475	-2.69
658.508	-6.69
658.54	-2.69
658.573	-11.69
658.605	-1.69
658.638	1.31
658.67	-2.69
658.703	4.31
658.735	-15.69
658.768	3.31
658.8	-1.69
658.833	12.31
658.865	7.31
658.898	10.31
658.93	-12.69
658.963	-16.69
658.995	-13.69
659.028	-7.69
659.06	-10.69
659.092	-4.69
659.125	-4.69
659.157	-2.69
659.19	-3.69
659.222	2.31
659.255	9.31
659.287	14.31
659.32	-2.69
659.352	-2.69
659.384	13.31
659.417	-10.69
659.449	-0.69
659.482	1.31
659.514	-20.69
659.546	-3.69
659.579	-4.69
659.611	-5.69
659.644	2.31
659.676	-6.69
659.708	-1.69
659.741	-14.69
659.773	-3.69
659.806	-6.69
659.838	-14.69
659.87	-9.69
659.903	-0.69
659.935	10.31
659.967	-2.69
660	-0.69
660.032	-9.69
660.065	2.31
660.097	2.31
660.129	2.31
660.162	-6.69
660.194	1.31
660.226	2.31
660.259	-5.69
660.291	6.31
660.323	1.31
660.356	1.31
660.388	-18.69
660.42	-13.69
660.453	8.31
660.485	0.31
660.517	5.31
660.55	-2.69
660.582	4.31
660.614	4.31
660.647	1.31
660.679	0.31
660.711	7.31
660.743	-5.69
660.776	-2.69
660.808	-1.69
660.84	2.31
660.873	-0.69
660.905	6.31
660.937	-4.69
660.969	-9.69
661.002	-1.69
661.034	3.31
661.066	1.31
661.099	3.31
661.131	5.31
661.163	1.31
661.195	0.31
661.228	12.31
661.26	-11.69
661.292	6.31
661.324	5.31
661.357	8.31
661.389	1.31
661.421	7.31
661.453	7.31
661.485	10.31
661.518	21.31
661.55	-3.69
661.582	-20.69
661.614	2.31
661.647	-5.69
661.679	-4.69
661.711	-4.69
661.743	-2.69
661.775	1.31
661.808	1.31
661.84	-2.69
661.872	-4.69
661.904	3.31
661.936	0.31
661.969	-14.69
662.001	-11.69
662.033	-7.69
662.065	-17.69
662.097	5.31
662.129	12.31
662.162	1.31
662.194	-4.69
662.226	8.31
662.258	1.31
662.29	2.31
662.322	-5.69
662.355	-8.69
662.387	16.31
662.419	16.31
662.451	17.31
662.483	8.31
662.515	-5.69
662.547	-1.69
662.58	4.31
662.612	-8.69
662.644	-22.69
662.676	0.31
662.708	8.31
662.74	-4.69
662.772	-1.69
662.804	-7.69
662.836	-10.69
662.869	-7.69
662.901	16.31
662.933	-9.69
662.965	19.31
662.997	8.31
663.029	-9.69
663.061	-17.69
663.093	3.31
663.125	15.31
663.157	9.31
663.189	-2.69
663.221	15.31
663.254	0.31
663.286	-12.69
663.318	-13.69
663.35	-3.69
663.382	7.31
663.414	14.31
663.446	10.31
663.478	-9.69
663.51	22.31
663.542	-16.69
663.574	-11.69
663.606	1.31
663.638	-2.69
663.67	-12.69
663.702	3.31
663.734	12.31
663.766	15.31
663.798	-5.69
663.83	-3.69
663.862	13.31
663.894	15.31
663.926	2.31
663.958	11.31
663.99	4.31
664.022	-5.69
664.054	2.31
664.086	-12.69
664.118	-3.69
664.15	-12.69
664.182	-9.69
664.214	6.31
664.246	0.31
664.278	4.31
664.31	4.31
664.342	-8.69
664.374	0.31
664.406	7.31
664.438	-1.69
664.47	19.31
664.502	-12.69
664.534	-4.69
664.566	-10.69
664.598	2.31
664.63	0.31
664.662	19.31
664.693	-7.69
664.725	-14.69
664.757	-3.69
664.789	-17.69
664.821	-3.69
664.853	7.31
664.885	2.31
664.917	0.31
664.949	7.31
664.981	6.31
665.013	0.31
665.045	-1.69
665.076	-4.69
665.108	-0.69
665.14	1.31
665.172	7.31
665.204	2.31
665.236	-0.69
665.268	9.31
665.3	-13.69
665.331	3.31
665.363	25.31
665.395	2.31
665.427	-1.69
665.459	-8.69
665.491	-5.69
665.523	5.31
665.555	1.31
665.586	10.31
665.618	-4.69
665.65	-16.69
665.682	21.31
665.714	5.31
665.746	-3.69
665.777	3.31
665.809	9.31
665.841	1.31
665.873	5.31
665.905	1.31
665.937	6.31
665.968	-4.69
666	14.31
666.032	4.31
666.064	-4.69
666.096	4.31
666.127	7.31
666.159	10.31
666.191	13.31
666.223	3.31
666.255	4.31
666.286	15.31
666.318	4.31
666.35	1.31
666.382	-6.69
666.413	-4.69
666.445	-9.69
666.477	-13.69
666.509	-18.69
666.54	1.31
666.572	3.31
666.604	0.31
666.636	-0.69
666.667	23.31
666.699	7.31
666.731	-11.69
666.763	-15.69
666.794	8.31
666.826	14.31
666.858	-9.69
666.89	7.31
666.921	-2.69
666.953	12.31
666.985	12.31
667.017	17.31
667.048	1.31
667.08	1.31
667.112	9.31
667.143	0.31
667.175	7.31
667.207	10.31
667.238	12.31
667.27	2.31
667.302	12.31
667.334	5.31
667.365	15.31
667.397	-1.69
667.429	-3.69
667.46	24.31
667.492	3.31
667.524	-3.69
667.555	-15.69
667.587	2.31
667.619	-5.69
667.65	-9.69
667.682	4.31
667.714	25.31
667.745	-4.69
667.777	3.31
667.808	8.31
667.84	12.31
667.872	4.31
667.903	32.31
667.935	2.31
667.967	-1.69
667.998	22.31
668.03	-3.69
668.061	6.31
668.093	2.31
668.125	0.31
668.156	11.31
668.188	-5.69
668.22	13.31
668.251	-1.69
668.283	-12.69
668.314	6.31
668.346	11.31
668.377	11.31
668.409	8.31
668.441	29.31
668.472	5.31
668.504	7.31
668.535	3.31
668.567	7.31
668.599	1.31
668.63	-3.69
668.662	-9.69
668.693	25.31
668.725	9.31
668.756	13.31
668.788	5.31
668.819	3.31
668.851	15.31
668.882	-5.69
668.914	-15.69
668.946	-9.69
668.977	-18.69
669.009	-1.69
669.04	-10.69
669.072	10.31
669.103	-10.69
669.135	-0.69
669.166	-15.69
669.198	13.31
669.229	13.31
669.261	4.31
669.292	-5.69
669.324	0.31
669.355	1.31
669.387	-5.69
669.418	-2.69
669.45	-13.69
669.481	-8.69
669.513	4.31
669.544	-8.69
669.576	-0.69
669.607	5.31
669.639	12.31
669.67	-3.69
669.701	6.31
669.733	-12.69
669.764	-2.69
669.796	-4.69
669.827	-14.69
669.859	-18.69
669.89	3.31
669.922	15.31
669.953	4.31
669.985	-0.69
670.016	13.31
670.047	5.31
670.079	-2.69
670.11	-7.69
670.142	-3.69
670.173	-3.69
670.204	0.31
670.236	17.31
670.267	1.31
670.299	-3.69
670.33	-6.69
670.362	-1.69
670.393	-4.69
670.424	8.31
670.456	0.31
670.487	3.31
670.518	-6.69
670.55	-0.69
670.581	14.31
670.613	18.31
670.644	-6.69
670.675	-22.69
670.707	-4.69
670.738	0.31
670.769	-8.69
670.801	-10.69
670.832	13.31
670.864	-3.69
670.895	2.31
670.926	-10.69
670.958	-6.69
670.989	1.31
671.02	-7.69
671.052	2.31
671.083	-5.69
671.114	-4.69
671.146	9.31
671.177	-4.69
671.208	-14.69
671.24	-7.69
671.271	-3.69
671.302	16.31
671.333	-8.69
671.365	-5.69
671.396	-2.69
671.427	12.31
671.459	12.31
671.49	12.31
671.521	5.31
671.553	14.31
671.584	-1.69
671.615	-16.69
671.646	0.31
671.678	2.31
671.709	2.31
671.74	-16.69
671.771	-2.69
671.803	-3.69
671.834	2.31
671.865	3.31
671.896	6.31
671.928	-0.69
671.959	-16.69
671.99	-15.69
672.021	-10.69
672.053	-5.69
672.084	10.31
672.115	7.31
672.146	-1.69
672.178	-14.69
672.209	-15.69
672.24	-0.69
672.271	29.31
672.303	-8.69
672.334	-1.69
672.365	1.31
672.396	-1.69
672.427	5.31
672.459	10.31
672.49	36.31
672.521	11.31
672.552	7.31
672.583	-1.69
672.615	-8.69
672.646	5.31
672.677	1.31
672.708	-12.69
672.739	-3.69
672.77	13.31
672.802	-10.69
672.833	-16.69
672.864	-3.69
672.895	-18.69
672.926	-11.69
672.957	-8.69
672.989	-4.69
673.02	3.31
673.051	5.31
673.082	14.31
673.113	5.31
673.144	-0.69
673.175	3.31
673.206	-9.69
673.238	3.31
673.269	6.31
673.3	-13.69
673.331	-6.69
673.362	1.31
673.393	6.31
673.424	-3.69
673.455	32.31
673.487	14.31
673.518	1.31
673.549	2.31
673.58	11.31
673.611	7.31
673.642	-3.69
673.673	-28.69
673.704	-6.69
673.735	-5.69
673.766	1.31
673.797	1.31
673.828	-1.69
673.86	3.31
673.891	-7.69
673.922	-15.69
673.953	-9.69
673.984	-6.69
674.015	-0.69
674.046	-13.69
674.077	0.31
674.108	3.31
674.139	-0.69
674.17	-3.69
674.201	-6.69
674.232	-16.69
674.263	-12.69
674.294	-14.69
674.325	-12.69
674.356	8.31
674.387	11.31
674.418	4.31
674.449	-5.69
674.48	-23.69
674.511	-7.69
674.542	-15.69
674.573	-19.69
674.604	10.31
674.635	-3.69
674.666	-1.69
674.697	22.31
674.728	1.31
674.759	-3.69
674.79	1.31
674.821	-6.69
674.852	-3.69
674.883	-22.69
674.914	-3.69
674.945	-7.69
674.976	-10.69
675.007	-8.69
675.038	4.31
675.069	-4.69
675.1	-3.69
675.131	-10.69
675.162	-15.69
675.193	-23.69
675.224	-22.69
675.254	-5.69
675.285	13.31
675.316	-10.69
675.347	0.31
675.378	8.31
675.409	2.31
675.44	8.31
675.471	-24.69
675.502	-12.69
675.533	2.31
675.564	9.31
675.595	0.31
675.625	29.31
675.656	10.31
675.687	18.31
675.718	-5.69
675.749	10.31
675.78	13.31
675.811	6.31
675.842	6.31
675.873	3.31
675.903	1.31
675.934	4.31
675.965	-13.69
675.996	-3.69
676.027	11.31
676.058	-7.69
676.089	-14.69
676.119	10.31
676.15	-6.69
676.181	4.31
676.212	-3.69
676.243	-1.69
676.274	0.31
676.304	8.31
676.335	-4.69
676.366	1.31
676.397	-11.69
676.428	-2.69
676.459	16.31
676.489	24.31
676.52	19.31
676.551	-2.69
676.582	-6.69
676.613	2.31
676.643	5.31
676.674	7.31
676.705	5.31
676.736	-1.69
676.767	13.31
676.797	9.31
676.828	-4.69
676.859	0.31
676.89	1.31
676.92	6.31
676.951	6.31
676.982	2.31
677.013	-11.69
677.044	16.31
677.074	33.31
677.105	1.31
677.136	18.31
677.167	1.31
677.197	14.31
677.228	-14.69
677.259	-10.69
677.289	-2.69
677.32	-16.69
677.351	-5.69
677.382	-16.69
677.412	-6.69
677.443	-0.69
677.474	3.31
677.505	-18.69
677.535	-11.69
677.566	-2.69
677.597	-5.69
677.627	-14.69
677.658	10.31
677.689	-14.69
677.72	-7.69
677.75	-13.69
677.781	4.31
677.812	-0.69
677.842	9.31
677.873	-0.69
677.904	7.31
677.934	2.31
677.965	-1.69
677.996	-10.69
678.026	-4.69
678.057	7.31
678.088	-15.69
678.118	-12.69
678.149	-9.69
678.18	-17.69
678.21	-6.69
678.241	1.31
678.272	13.31
678.302	-2.69
678.333	2.31
678.363	6.31
678.394	8.31
678.425	-9.69
678.455	15.31
678.486	6.31
678.517	-8.69
678.547	-10.69
678.578	-1.69
678.608	6.31
678.639	3.31
678.67	5.31
678.7	-0.69
678.731	-2.69
678.761	-15.69
678.792	-0.69
678.823	-0.69
678.853	-12.69
678.884	-12.69
678.914	8.31
678.945	7.31
678.975	-20.69
679.006	9.31
679.037	-5.69
679.067	24.31
679.098	0.31
679.128	-6.69
679.159	-5.69
679.189	12.31
679.22	-3.69
679.25	11.31
679.281	2.31
679.312	-6.69
679.342	2.31
679.373	22.31
679.403	5.31
679.434	7.31
679.464	-22.69
679.495	-14.69
679.525	-2.69
679.556	-4.69
679.586	13.31
679.617	-4.69
679.647	-1.69
679.678	0.31
679.708	-5.69
679.739	-3.69
679.769	1.31
679.8	0.31
679.83	-5.69
679.861	0.31
679.891	-6.69
679.922	-28.69
679.952	-1.69
679.983	6.31
680.013	3.31
680.044	-3.69
680.074	5.31
680.105	-5.69
680.135	-2.69
680.165	10.31
680.196	5.31
680.226	-7.69
680.257	18.31
680.287	10.31
680.318	-0.69
680.348	-8.69
680.379	6.31
680.409	0.31
680.439	-0.69
680.47	0.31
680.5	2.31
680.531	-5.69
680.561	12.31
680.592	25.31
680.622	22.31
680.652	10.31
680.683	15.31
680.713	-3.69
680.744	3.31
680.774	0.31
680.804	10.31
680.835	-11.69
680.865	4.31
680.896	4.31
680.926	19.31
680.956	8.31
680.987	3.31
681.017	-11.69
681.047	-6.69
681.078	-5.69
681.108	-17.69
681.139	-7.69
681.169	12.31
681.199	-3.69
681.23	9.31
681.26	-6.69
681.29	0.31
681.321	-14.69
681.351	6.31
681.381	-7.69
681.412	-7.69
681.442	8.31
681.472	23.31
681.503	20.31
681.533	-1.69
681.563	-0.69
681.594	0.31
681.624	13.31
681.654	-13.69
681.685	0.31
681.715	-12.69
681.745	-7.69
681.775	1.31
681.806	6.31
681.836	-1.69
681.866	-8.69
681.897	-11.69
681.927	-5.69
681.957	-10.69
681.987	-1.69
682.018	0.31
682.048	11.31
682.078	-1.69
682.109	8.31
682.139	5.31
682.169	-6.69
682.199	1.31
682.23	2.31
682.26	13.31
682.29	4.31
682.32	-0.69
682.351	5.31
682.381	2.31
682.411	-9.69
682.441	-0.69
682.472	-10.69
682.502	4.31
682.532	7.31
682.562	2.31
682.592	14.31
682.623	1.31
682.653	20.31
682.683	-14.69
682.713	5.31
682.743	-3.69
682.774	-10.69
682.804	-2.69
682.834	15.31
682.864	4.31
682.894	-6.69
682.925	-12.69
682.955	2.31
682.985	11.31
683.015	6.31
683.045	12.31
683.076	-15.69
683.106	-2.69
683.136	-15.69
683.166	-16.69
683.196	-1.69
683.226	-3.69
683.257	-1.69
683.287	8.31
683.317	-5.69
683.347	-20.69
683.377	0.31
683.407	10.31
683.437	11.31
683.468	5.31
683.498	-6.69
683.528	3.31
683.558	0.31
683.588	2.31
683.618	-13.69
683.648	-10.69
683.678	2.31
683.708	18.31
683.739	9.31
683.769	-1.69
683.799	-4.69
683.829	-3.69
683.859	-0.69
683.889	5.31
683.919	2.31
683.949	0.31
683.979	4.31
684.009	-4.69
684.039	4.31
684.07	-13.69
684.1	-0.69
684.13	6.31
684.16	6.31
684.19	5.31
684.22	0.31
684.25	1.31
684.28	-6.69
684.31	22.31
684.34	-6.69
684.37	-5.69
684.4	-4.69
684.43	-15.69
684.46	2.31
684.49	10.31
684.52	-1.69
684.55	8.31
684.58	5.31
684.61	7.31
684.64	5.31
684.67	8.31
684.7	2.31
684.73	15.31
684.76	-0.69
684.79	12.31
684.82	2.31
684.85	-18.69
684.88	10.31
684.91	5.31
684.94	-16.69
684.97	-12.69
685	-8.69
685.03	7.31
685.06	-4.69
685.09	-9.69
685.12	4.31
685.15	-11.69
685.18	4.31
685.21	-16.69
685.24	-8.69
685.27	7.31
685.3	-11.69
685.33	-4.69
685.36	6.31
685.39	-6.69
685.42	-8.69
685.45	-2.69
685.48	-5.69
685.51	-16.69
685.54	-3.69
685.569	8.31
685.599	21.31
685.629	14.31
685.659	-8.69
685.689	3.31
685.719	-5.69
685.749	-19.69
685.779	-2.69
685.809	1.31
685.839	2.31
685.869	15.31
685.898	4.31
685.928	1.31
685.958	-11.69
685.988	8.31
686.018	15.31
686.048	22.31
686.078	7.31
686.108	18.31
686.137	-1.69
686.167	6.31
686.197	-8.69
686.227	-0.69
686.257	26.31
686.287	20.31
686.317	-4.69
686.346	-7.69
686.376	-7.69
686.406	-14.69
686.436	9.31
686.466	4.31
686.496	7.31
686.525	23.31
686.555	7.31
686.585	17.31
686.615	35.31
686.645	19.31
686.675	5.31
686.704	1.31
686.734	-0.69
686.764	1.31
686.794	2.31
686.824	-4.69
686.853	4.31
686.883	11.31
686.913	2.31
686.943	12.31
686.973	0.31
687.002	-0.69
687.032	0.31
687.062	-7.69
687.092	20.31
687.121	12.31
687.151	7.31
687.181	-4.69
687.211	4.31
687.24	-2.69
687.27	-8.69
687.3	1.31
687.33	5.31
687.359	-6.69
687.389	7.31
687.419	-2.69
687.449	-3.69
687.478	13.31
687.508	-4.69
687.538	8.31
687.568	2.31
687.597	-1.69
687.627	20.31
687.657	-1.69
687.686	-0.69
687.716	5.31
687.746	-0.69
687.776	-2.69
687.805	12.31
687.835	11.31
687.865	20.31
687.894	15.31
687.924	4.31
687.954	-2.69
687.983	-3.69
688.013	-9.69
688.043	26.31
688.072	3.31
688.102	8.31
688.132	2.31
688.161	-9.69
688.191	4.31
688.221	11.31
688.25	0.31
688.28	1.31
688.31	0.31
688.339	-3.69
688.369	-7.69
688.399	-14.69
688.428	-17.69
688.458	3.31
688.488	7.31
688.517	11.31
688.547	7.31
688.576	17.31
688.606	3.31
688.636	3.31
688.665	-5.69
688.695	4.31
688.725	9.31
688.754	-8.69
688.784	5.31
688.813	11.31
688.843	7.31
688.873	5.31
688.902	-0.69
688.932	-7.69
688.961	3.31
688.991	5.31
689.02	3.31
689.05	-7.69
689.08	16.31
689.109	23.31
689.139	4.31
689.168	-5.69
689.198	1.31
689.227	2.31
689.257	1.31
689.287	-1.69
689.316	-15.69
689.346	-18.69
689.375	-5.69
689.405	11.31
689.434	0.31
689.464	-6.69
689.493	16.31
689.523	-3.69
689.552	-4.69
689.582	-0.69
689.611	-4.69
689.641	12.31
689.67	10.31
689.7	16.31
689.73	13.31
689.759	2.31
689.789	6.31
689.818	-9.69
689.848	0.31
689.877	12.31
689.906	-0.69
689.936	5.31
689.965	5.31
689.995	7.31
690.024	8.31
690.054	2.31
690.083	5.31
690.113	-1.69
690.142	8.31
690.172	-11.69
690.201	6.31
690.231	-7.69
690.26	4.31
690.29	-4.69
690.319	17.31
690.348	-3.69
690.378	-1.69
690.407	17.31
690.437	7.31
690.466	-5.69
690.496	-4.69
690.525	8.31
690.555	8.31
690.584	-9.69
690.613	-5.69
690.643	5.31
690.672	7.31
690.702	5.31
690.731	19.31
690.76	14.31
690.79	64.31
690.819	42.31
690.849	31.31
690.878	22.31
690.907	15.31
690.937	27.31
690.966	6.31
690.996	9.31
691.025	-5.69
691.054	7.31
691.084	-4.69
691.113	-5.69
691.142	5.31
691.172	-9.69
691.201	2.31
691.23	-11.69
691.26	28.31
691.289	-2.69
691.319	10.31
691.348	0.31
691.377	12.31
691.407	-7.69
691.436	4.31
691.465	12.31
691.495	1.31
691.524	-5.69
691.553	2.31
691.583	4.31
691.612	25.31
691.641	0.31
691.67	5.31
691.7	4.31
691.729	-3.69
691.758	4.31
691.788	-2.69
691.817	-7.69
691.846	6.31
691.876	14.31
691.905	5.31
691.934	-4.69
691.963	5.31
691.993	4.31
692.022	-2.69
692.051	-14.69
692.081	7.31
692.11	1.31
692.139	0.31
692.168	13.31
692.198	12.31
692.227	5.31
692.256	13.31
692.285	1.31
692.315	-2.69
692.344	15.31
692.373	-7.69
692.402	-12.69
692.432	-9.69
692.461	12.31
692.49	7.31
692.519	3.31
692.548	2.31
692.578	11.31
692.607	6.31
692.636	-3.69
692.665	14.31
692.694	-5.69
692.724	2.31
692.753	21.31
692.782	10.31
692.811	1.31
692.84	-4.69
692.87	2.31
692.899	9.31
692.928	0.31
692.957	12.31
692.986	3.31
693.016	0.31
693.045	4.31
693.074	0.31
693.103	-0.69
693.132	-3.69
693.161	-3.69
693.191	-1.69
693.22	-6.69
693.249	6.31
693.278	3.31
693.307	8.31
693.336	-9.69
693.365	9.31
693.395	3.31
693.424	1.31
693.453	17.31
693.482	8.31
693.511	9.31
693.54	0.31
693.569	13.31
693.598	12.31
693.628	9.31
693.657	20.31
693.686	11.31
693.715	6.31
693.744	16.31
693.773	14.31
693.802	13.31
693.831	4.31
693.86	21.31
693.889	-5.69
693.919	5.31
693.948	6.31
693.977	19.31
694.006	1.31
694.035	1.31
694.064	8.31
694.093	0.31
694.122	-1.69
694.151	-1.69
694.18	-0.69
694.209	21.31
694.238	-1.69
694.267	13.31
694.296	4.31
694.325	-3.69
694.354	6.31
694.383	20.31
694.412	6.31
694.441	1.31
694.471	-11.69
694.5	-13.69
694.529	7.31
694.558	16.31
694.587	7.31
694.616	-7.69
694.645	-8.69
694.674	3.31
694.703	5.31
694.732	10.31
694.761	6.31
694.79	12.31
694.819	-11.69
694.848	7.31
694.877	9.31
694.906	6.31
694.935	13.31
694.963	27.31
694.992	7.31
695.021	5.31
695.05	2.31
695.079	-1.69
695.108	2.31
695.137	14.31
695.166	10.31
695.195	0.31
695.224	15.31
695.253	-6.69
695.282	8.31
695.311	6.31
695.34	6.31
695.369	9.31
695.398	-4.69
695.427	16.31
695.456	15.31
695.485	-6.69
695.513	2.31
695.542	-0.69
695.571	-2.69
695.6	23.31
695.629	1.31
695.658	4.31
695.687	-4.69
695.716	0.31
695.745	20.31
695.774	-3.69
695.802	-11.69
695.831	12.31
695.86	-1.69
695.889	21.31
695.918	-4.69
695.947	-9.69
695.976	-1.69
696.005	14.31
696.033	4.31
696.062	14.31
696.091	1.31
696.12	-0.69
696.149	12.31
696.178	-13.69
696.207	0.31
696.235	-12.69
696.264	-0.69
696.293	17.31
696.322	9.31
696.351	4.31
696.38	-2.69
696.408	0.31
696.437	0.31
696.466	5.31
696.495	16.31
696.524	2.31
696.553	6.31
696.581	0.31
696.61	2.31
696.639	0.31
696.668	1.31
696.697	-9.69
696.725	7.31
696.754	5.31
696.783	4.31
696.812	-9.69
696.84	6.31
696.869	12.31
696.898	8.31
696.927	3.31
696.956	16.31
696.984	-14.69
697.013	-3.69
697.042	10.31
697.071	17.31
697.099	21.31
697.128	0.31
697.157	4.31
697.186	-6.69
697.214	-10.69
697.243	-0.69
697.272	-3.69
697.301	3.31
697.329	-9.69
697.358	3.31
697.387	14.31
697.415	-0.69
697.444	-9.69
697.473	5.31
697.502	0.31
697.53	13.31
697.559	-4.69
697.588	12.31
697.616	3.31
697.645	-0.69
697.674	21.31
697.703	1.31
697.731	15.31
697.76	31.31
697.789	3.31
697.817	13.31
697.846	22.31
697.875	0.31
697.903	7.31
697.932	21.31
697.961	-11.69
697.989	5.31
698.018	7.31
698.047	-1.69
698.075	15.31
698.104	-11.69
698.133	3.31
698.161	6.31
698.19	5.31
698.218	-0.69
698.247	4.31
698.276	5.31
698.304	25.31
698.333	14.31
698.362	8.31
698.39	13.31
698.419	0.31
698.447	3.31
698.476	0.31
698.505	-0.69
698.533	2.31
698.562	6.31
698.591	-2.69
698.619	-4.69
698.648	6.31
698.676	16.31
698.705	-13.69
698.733	-7.69
698.762	7.31
698.791	-23.69
698.819	0.31
698.848	-9.69
698.876	0.31
698.905	3.31
698.933	6.31
698.962	1.31
698.991	5.31
699.019	20.31
699.048	12.31
699.076	13.31
699.105	-15.69
699.133	-12.69
699.162	9.31
699.19	24.31
699.219	17.31
699.248	-0.69
699.276	3.31
699.305	2.31
699.333	-4.69
699.362	0.31
699.39	7.31
699.419	-4.69
699.447	16.31
699.476	4.31
699.504	-4.69
699.533	1.31
699.561	-4.69
699.59	4.31
699.618	6.31
699.647	7.31
699.675	11.31
699.704	24.31
699.732	6.31
699.761	21.31
699.789	9.31
699.818	-2.69
699.846	-0.69
699.874	-10.69
699.903	-6.69
699.931	-12.69
699.96	-1.69
699.988	7.31
700.017	0.31
700.045	-1.69
700.074	-0.69
700.102	-7.69
700.13	-3.69
700.159	12.31
700.187	1.31
700.216	7.31
700.244	-7.69
700.273	-10.69
700.301	7.31
700.329	8.31
700.358	-0.69
700.386	-9.69
700.415	-4.69
700.443	10.31
700.472	-8.69
700.5	0.31
700.528	12.31
700.557	7.31
700.585	0.31
700.614	6.31
700.642	11.31
700.67	10.31
700.699	9.31
700.727	7.31
700.755	-1.69
700.784	6.31
700.812	0.31
700.841	4.31
700.869	-10.69
700.897	-25.69
700.926	-3.69
700.954	5.31
700.982	13.31
701.011	-0.69
701.039	-9.69
701.067	11.31
701.096	2.31
701.124	-11.69
701.152	-4.69
701.181	7.31
701.209	-1.69
701.237	1.31
701.266	3.31
701.294	8.31
701.322	3.31
701.351	9.31
701.379	17.31
701.407	-0.69
701.435	-4.69
701.464	12.31
701.492	13.31
701.52	7.31
701.549	-7.69
701.577	-4.69
701.605	-6.69
701.634	18.31
701.662	15.31
701.69	-7.69
701.718	-25.69
701.747	3.31
701.775	-4.69
701.803	5.31
701.831	4.31
701.86	-0.69
701.888	3.31
701.916	8.31
701.944	3.31
701.973	0.31
702.001	-6.69
702.029	9.31
702.057	-6.69
702.086	-7.69
702.114	-9.69
702.142	1.31
702.17	-6.69
702.199	-0.69
702.227	8.31
702.255	-3.69
702.283	-8.69
702.311	-6.69
702.34	-14.69
702.368	-19.69
702.396	-5.69
702.424	-3.69
702.452	8.31
702.481	-8.69
702.509	-10.69
702.537	0.31
702.565	17.31
702.593	-10.69
702.621	-1.69
702.65	9.31
702.678	8.31
702.706	1.31
702.734	-1.69
702.762	7.31
702.79	5.31
702.819	15.31
702.847	13.31
702.875	5.31
702.903	-2.69
702.931	-11.69
702.959	7.31
702.988	10.31
703.016	-16.69
703.044	-1.69
703.072	-11.69
703.1	-18.69
703.128	-7.69
703.156	3.31
703.184	-13.69
703.212	17.31
703.241	-1.69
703.269	-3.69
703.297	4.31
703.325	9.31
703.353	-4.69
703.381	-12.69
703.409	-6.69
703.437	3.31
703.465	7.31
703.493	-15.69
703.522	-4.69
703.55	14.31
703.578	2.31
703.606	-15.69
703.634	-10.69
703.662	-1.69
703.69	3.31
703.718	10.31
703.746	18.31
703.774	5.31
703.802	17.31
703.83	-17.69
703.858	3.31
703.886	8.31
703.914	-7.69
703.942	13.31
703.97	-2.69
703.998	-8.69
704.027	11.31
704.055	8.31
704.083	-3.69
704.111	-2.69
704.139	3.31
704.167	-2.69
704.195	0.31
704.223	-12.69
704.251	-9.69
704.279	9.31
704.307	-9.69
704.335	-12.69
704.363	-3.69
704.391	-12.69
704.419	7.31
704.447	-3.69
704.475	5.31
704.503	-6.69
704.531	13.31
704.558	9.31
704.586	-0.69
704.614	-5.69
704.642	-9.69
704.67	-15.69
704.698	-7.69
704.726	6.31
704.754	-11.69
704.782	-8.69
704.81	-5.69
704.838	25.31
704.866	10.31
704.894	-8.69
704.922	-19.69
704.95	-8.69
704.978	-2.69
705.006	-0.69
705.034	21.31
705.061	-18.69
705.089	-6.69
705.117	2.31
705.145	4.31
705.173	3.31
705.201	-0.69
705.229	11.31
705.257	-5.69
705.285	5.31
705.313	8.31
705.34	-7.69
705.368	-11.69
705.396	7.31
705.424	-1.69
705.452	2.31
705.48	0.31
705.508	-3.69
705.536	-7.69
705.563	-19.69
705.591	-5.69
705.619	1.31
705.647	0.31
705.675	8.31
705.703	-11.69
705.731	-0.69
705.758	8.31
705.786	2.31
705.814	20.31
705.842	14.31
705.87	5.31
705.898	6.31
705.925	-24.69
705.953	3.31
705.981	-15.69
706.009	-4.69
706.037	20.31
706.065	-11.69
706.092	-7.69
706.12	11.31
706.148	-0.69
706.176	-2.69
706.204	17.31
706.231	0.31
706.259	6.31
706.287	-4.69
706.315	-7.69
706.342	1.31
706.37	16.31
706.398	1.31
706.426	8.31
706.454	-5.69
706.481	0.31
706.509	-13.69
706.537	0.31
706.565	0.31
706.592	1.31
706.62	0.31
706.648	11.31
706.676	-11.69
706.703	0.31
706.731	1.31
706.759	4.31
706.787	11.31
706.814	6.31
706.842	-1.69
706.87	0.31
706.897	12.31
706.925	1.31
706.953	20.31
706.981	23.31
707.008	11.31
707.036	1.31
707.064	-3.69
707.091	-9.69
707.119	4.31
707.147	-3.69
707.174	-6.69
707.202	0.31
707.23	-7.69
707.258	9.31
707.285	-16.69
707.313	-4.69
707.341	-10.69
707.368	-8.69
707.396	1.31
707.424	22.31
707.451	5.31
707.479	14.31
707.507	-4.69
707.534	-4.69
707.562	-3.69
707.59	3.31
707.617	-8.69
707.645	-0.69
707.672	16.31
707.7	10.31
707.728	23.31
707.755	9.31
707.783	-3.69
707.811	-2.69
707.838	-1.69
707.866	10.31
707.893	-8.69
707.921	-12.69
707.949	-15.69
707.976	-1.69
708.004	-0.69
708.031	-7.69
708.059	-10.69
708.087	-4.69
708.114	-18.69
708.142	3.31
708.169	0.31
708.197	-4.69
708.225	-0.69
708.252	4.31
708.28	27.31
708.307	0.31
708.335	5.31
708.362	-5.69
708.39	3.31
708.418	-1.69
708.445	-11.69
708.473	-4.69
708.5	-0.69
708.528	2.31
708.555	-0.69
708.583	8.31
708.61	-15.69
708.638	23.31
708.665	-3.69
708.693	-8.69
708.72	-20.69
708.748	-4.69
708.776	-4.69
708.803	0.31
708.831	-2.69
708.858	15.31
708.886	0.31
708.913	-5.69
708.941	-0.69
708.968	24.31
708.996	2.31
709.023	22.31
709.051	-2.69
709.078	-18.69
709.105	2.31
709.133	-15.69
709.16	-14.69
709.188	16.31
709.215	12.31
709.243	7.31
709.27	-0.69
709.298	-14.69
709.325	-8.69
709.353	-20.69
709.38	3.31
709.408	6.31
709.435	8.31
709.462	7.31
709.49	0.31
709.517	2.31
709.545	-5.69
709.572	-8.69
709.6	12.31
709.627	3.31
709.655	8.31
709.682	2.31
709.709	6.31
709.737	-11.69
709.764	-14.69
709.792	-2.69
709.819	-4.69
709.846	-5.69
709.874	3.31
709.901	4.31
709.929	16.31
709.956	5.31
709.983	0.31
710.011	-11.69
710.038	-4.69
710.066	2.31
710.093	7.31
710.12	-1.69
710.148	-0.69
710.175	-15.69
710.202	4.31
710.23	3.31
710.257	4.31
710.284	9.31
710.312	4.31
710.339	9.31
710.366	-3.69
710.394	-4.69
710.421	-8.69
710.448	-2.69
710.476	-7.69
710.503	9.31
710.53	15.31
710.558	26.31
710.585	19.31
710.612	-2.69
710.64	-7.69
710.667	-16.69
710.694	7.31
710.722	1.31
710.749	-4.69
710.776	-9.69
710.804	4.31
710.831	3.31
710.858	-5.69
710.885	-2.69
710.913	2.31
710.94	25.31
710.967	-1.69
710.995	-1.69
711.022	2.31
711.049	5.31
711.076	-14.69
711.104	-6.69
711.131	-26.69
711.158	-4.69
711.185	3.31
711.213	-8.69
711.24	-16.69
711.267	-5.69
711.294	-5.69
711.322	7.31
711.349	0.31
711.376	-7.69
711.403	15.31
711.431	-8.69
711.458	-5.69
711.485	-10.69
711.512	-9.69
711.54	-13.69
711.567	-11.69
711.594	-22.69
711.621	-15.69
711.648	4.31
711.676	0.31
711.703	-10.69
711.73	-3.69
711.757	-6.69
711.784	7.31
711.812	6.31
711.839	7.31
711.866	-8.69
711.893	-3.69
711.92	0.31
711.947	-0.69
711.975	15.31
712.002	-11.69
712.029	4.31
712.056	0.31
712.083	9.31
712.11	-12.69
712.138	-4.69
712.165	-5.69
712.192	7.31
712.219	-13.69
712.246	-10.69
712.273	-4.69
712.3	-17.69
712.328	10.31
712.355	-1.69
712.382	-8.69
712.409	3.31
712.436	-6.69
712.463	6.31
712.49	28.31
712.517	5.31
712.544	-2.69
712.572	1.31
712.599	-10.69
712.626	5.31
712.653	1.31
712.68	-26.69
712.707	2.31
712.734	-0.69
712.761	-3.69
712.788	8.31
712.815	-12.69
712.842	13.31
712.87	6.31
712.897	-17.69
712.924	-12.69
712.951	7.31
712.978	18.31
713.005	12.31
713.032	1.31
713.059	-7.69
713.086	-10.69
713.113	-3.69
713.14	-17.69
713.167	3.31
713.194	0.31
713.221	-1.69
713.248	9.31
713.275	-17.69
713.302	-15.69
713.329	-2.69
713.356	-3.69
713.383	0.31
713.41	3.31
713.437	-16.69
713.464	-3.69
713.491	19.31
713.518	0.31
713.545	-2.69
713.572	-11.69
713.599	4.31
713.626	-12.69
713.653	15.31
713.68	1.31
713.707	3.31
713.734	12.31
713.761	9.31
713.788	-4.69
713.815	13.31
713.842	8.31
713.869	4.31
713.896	1.31
713.923	-2.69
713.95	-8.69
713.977	-22.69
714.004	-10.69
714.031	-1.69
714.058	-1.69
714.085	7.31
714.112	17.31
714.139	3.31
714.165	-7.69
714.192	-0.69
714.219	0.31
714.246	1.31
714.273	-6.69
714.3	5.31
714.327	0.31
714.354	13.31
714.381	-10.69
714.408	-17.69
714.435	-2.69
714.461	-19.69
714.488	12.31
714.515	-15.69
714.542	-15.69
714.569	-3.69
714.596	-12.69
714.623	-5.69
714.65	-8.69
714.677	8.31
714.703	7.31
714.73	5.31
714.757	-6.69
714.784	0.31
714.811	-10.69
714.838	9.31
714.865	-6.69
714.891	2.31
714.918	8.31
714.945	-6.69
714.972	-4.69
714.999	1.31
715.026	5.31
715.052	16.31
715.079	3.31
715.106	0.31
715.133	10.31
715.16	-4.69
715.187	8.31
715.213	6.31
715.24	-8.69
715.267	-0.69
715.294	-5.69
715.321	-12.69
715.347	-8.69
715.374	-8.69
715.401	7.31
715.428	12.31
715.455	8.31
715.481	-11.69
715.508	9.31
715.535	-1.69
715.562	17.31
715.588	-0.69
715.615	-17.69
715.642	-14.69
715.669	4.31
715.695	-9.69
715.722	-11.69
715.749	0.31
715.776	-3.69
715.802	-3.69
715.829	3.31
715.856	-6.69
715.883	9.31
715.909	-2.69
715.936	14.31
715.963	-2.69
715.99	-6.69
716.016	0.31
716.043	-8.69
716.07	-11.69
716.096	-5.69
716.123	-2.69
716.15	8.31
716.177	0.31
716.203	4.31
716.23	11.31
716.257	-8.69
716.283	18.31
716.31	8.31
716.337	7.31
716.363	-16.69
716.39	2.31
716.417	5.31
716.443	-6.69
716.47	17.31
716.497	7.31
716.523	17.31
716.55	-1.69
716.577	8.31
716.603	-3.69
716.63	2.31
716.657	-8.69
716.683	-15.69
716.71	-15.69
716.737	-1.69
716.763	2.31
716.79	9.31
716.817	26.31
716.843	6.31
716.87	-11.69
716.897	6.31
716.923	12.31
716.95	-7.69
716.976	0.31
717.003	-14.69
717.03	-0.69
717.056	-4.69
717.083	-9.69
717.109	6.31
717.136	5.31
717.163	-2.69
717.189	4.31
717.216	-10.69
717.242	-2.69
717.269	0.31
717.296	16.31
717.322	7.31
717.349	-2.69
717.375	-6.69
717.402	-11.69
717.428	-4.69
717.455	12.31
717.481	-7.69
717.508	6.31
717.535	-0.69
717.561	-0.69
717.588	-5.69
717.614	-0.69
717.641	4.31
717.667	9.31
717.694	12.31
717.72	-4.69
717.747	-2.69
717.773	-8.69
717.8	19.31
717.826	22.31
717.853	5.31
717.88	-3.69
717.906	-6.69
717.933	6.31
717.959	8.31
717.986	-2.69
718.012	1.31
718.039	2.31
718.065	14.31
718.092	17.31
718.118	0.31
718.144	-3.69
718.171	15.31
718.197	23.31
718.224	-7.69
718.25	-7.69
718.277	-1.69
718.303	0.31
718.33	-12.69
718.356	-9.69
718.383	-11.69
718.409	-2.69
718.436	-4.69
718.462	-6.69
718.489	-1.69
718.515	14.31
718.541	17.31
718.568	19.31
718.594	10.31
718.621	7.31
718.647	3.31
718.674	-2.69
718.7	-7.69
718.726	-2.69
718.753	-4.69
718.779	3.31
718.806	-10.69
718.832	-2.69
718.858	2.31
718.885	-4.69
718.911	3.31
718.938	11.31
718.964	-2.69
718.99	2.31
719.017	10.31
719.043	3.31
719.07	15.31
719.096	1.31
719.122	8.31
719.149	9.31
719.175	5.31
719.201	2.31
719.228	-9.69
719.254	0.31
719.281	-18.69
719.307	-1.69
719.333	4.31
719.36	16.31
719.386	-5.69
719.412	-1.69
719.439	-9.69
719.465	2.31
719.491	-17.69
719.518	13.31
719.544	-16.69
719.57	-2.69
719.597	-8.69
719.623	-8.69
719.649	2.31
719.675	3.31
719.702	2.31
719.728	8.31
719.754	-16.69
719.781	-8.69
719.807	-6.69
719.833	0.31
719.86	-1.69
719.886	-2.69
719.912	-5.69
719.938	-3.69
719.965	-20.69
719.991	-0.69
720.017	-0.69
720.044	-6.69
720.07	-9.69
720.096	0.31
720.122	-8.69
720.149	11.31
720.175	5.31
720.201	7.31
720.227	0.31
720.254	-3.69
720.28	1.31
720.306	-13.69
720.332	-0.69
720.359	1.31
720.385	3.31
720.411	15.31
720.437	-4.69
720.463	-23.69
720.49	7.31
720.516	-3.69
720.542	-1.69
720.568	7.31
720.595	11.31
720.621	4.31
720.647	-4.69
720.673	6.31
720.699	-7.69
720.725	-4.69
720.752	7.31
720.778	11.31
720.804	15.31
720.83	-10.69
720.856	0.31
720.883	-12.69
720.909	-15.69
720.935	-10.69
720.961	10.31
720.987	6.31
721.013	1.31
721.04	-13.69
721.066	-12.69
721.092	-9.69
721.118	-1.69
721.144	8.31
721.17	-3.69
721.196	4.31
721.223	-13.69
721.249	0.31
721.275	22.31
721.301	1.31
721.327	22.31
721.353	7.31
721.379	7.31
721.405	4.31
721.432	13.31
721.458	-10.69
721.484	-10.69
721.51	3.31
721.536	7.31
721.562	-9.69
721.588	7.31
721.614	-18.69
721.64	-11.69
721.666	-2.69
721.693	-0.69
721.719	10.31
721.745	-2.69
721.771	8.31
721.797	-1.69
721.823	7.31
721.849	7.31
721.875	13.31
721.901	10.31
721.927	3.31
721.953	3.31
721.979	16.31
722.005	-6.69
722.031	-5.69
722.057	-11.69
722.083	-6.69
722.109	10.31
722.135	13.31
722.161	4.31
722.187	-18.69
722.214	9.31
722.24	0.31
722.266	-4.69
722.292	-5.69
722.318	5.31
722.344	4.31
722.37	-12.69
722.396	-11.69
722.422	-3.69
722.448	-2.69
722.474	-25.69
722.5	-2.69
722.526	-7.69
722.552	7.31
722.578	-9.69
722.603	-3.69
722.629	-18.69
722.655	0.31
722.681	-1.69
722.707	16.31
722.733	-6.69
722.759	-12.69
722.785	3.31
722.811	-2.69
722.837	-0.69
722.863	5.31
722.889	1.31
722.915	-3.69
722.941	0.31
722.967	-4.69
722.993	13.31
723.019	8.31
723.045	7.31
723.071	11.31
723.097	-4.69
723.122	4.31
723.148	-3.69
723.174	13.31
723.2	-2.69
723.226	-13.69
723.252	-0.69
723.278	-2.69
723.304	-12.69
723.33	-1.69
723.356	-18.69
723.381	8.31
723.407	1.31
723.433	3.31
723.459	-5.69
723.485	-5.69
723.511	7.31
723.537	-6.69
723.563	8.31
723.588	2.31
723.614	3.31
723.64	5.31
723.666	-8.69
723.692	8.31
723.718	0.31
723.744	1.31
723.769	-7.69
723.795	-14.69
723.821	-4.69
723.847	-14.69
723.873	-0.69
723.899	1.31
723.924	11.31
723.95	-4.69
723.976	-17.69
724.002	-0.69
724.028	-3.69
724.053	-2.69
724.079	0.31
724.105	-3.69
724.131	-14.69
724.157	3.31
724.182	16.31
724.208	-4.69
724.234	4.31
724.26	9.31
724.286	12.31
724.311	-3.69
724.337	-19.69
724.363	-12.69
724.389	4.31
724.415	-7.69
724.44	8.31
724.466	6.31
724.492	1.31
724.518	16.31
724.543	-0.69
724.569	-0.69
724.595	4.31
724.621	-4.69
724.646	4.31
724.672	2.31
724.698	-15.69
724.723	-15.69
724.749	-5.69
724.775	5.31
724.801	6.31
724.826	-2.69
724.852	-1.69
724.878	0.31
724.904	-23.69
724.929	-9.69
724.955	-14.69
724.981	-2.69
725.006	2.31
725.032	-3.69
725.058	19.31
725.083	-10.69
725.109	-18.69
725.135	5.31
725.161	8.31
725.186	-9.69
725.212	-3.69
725.238	15.31
725.263	1.31
725.289	-0.69
725.315	-12.69
725.34	6.31
725.366	-0.69
725.392	-7.69
725.417	-12.69
725.443	-9.69
725.468	-8.69
725.494	12.31
725.52	15.31
725.545	-11.69
725.571	-3.69
725.597	13.31
725.622	-2.69
725.648	-3.69
725.674	-2.69
725.699	1.31
725.725	7.31
725.75	9.31
725.776	-9.69
725.802	0.31
725.827	-0.69
725.853	12.31
725.878	-6.69
725.904	-3.69
725.93	7.31
725.955	-10.69
725.981	-8.69
726.006	-8.69
726.032	-3.69
726.057	1.31
726.083	-5.69
726.109	-3.69
726.134	-4.69
726.16	6.31
726.185	2.31
726.211	-10.69
726.236	6.31
726.262	4.31
726.288	5.31
726.313	4.31
726.339	-8.69
726.364	3.31
726.39	5.31
726.415	-6.69
726.441	5.31
726.466	-10.69
726.492	1.31
726.517	8.31
726.543	2.31
726.568	-11.69
726.594	-12.69
726.619	3.31
726.645	-11.69
726.67	5.31
726.696	13.31
726.721	2.31
726.747	-12.69
726.772	0.31
726.798	-3.69
726.823	8.31
726.849	-4.69
726.874	15.31
726.9	20.31
726.925	1.31
726.951	-8.69
726.976	15.31
727.002	-1.69
727.027	-0.69
727.053	-3.69
727.078	-6.69
727.104	-18.69
727.129	-3.69
727.155	12.31
727.18	6.31
727.205	0.31
727.231	-12.69
727.256	0.31
727.282	4.31
727.307	15.31
727.333	9.31
727.358	-6.69
727.383	0.31
727.409	-4.69
727.434	20.31
727.46	-2.69
727.485	8.31
727.511	14.31
727.536	-10.69
727.561	-4.69
727.587	8.31
727.612	-12.69
727.637	1.31
727.663	-1.69
727.688	4.31
727.714	-17.69
727.739	1.31
727.764	-9.69
727.79	-4.69
727.815	3.31
727.841	1.31
727.866	4.31
727.891	15.31
727.917	-9.69
727.942	10.31
727.967	9.31
727.993	-4.69
728.018	9.31
728.043	6.31
728.069	9.31
728.094	9.31
728.119	-3.69
728.145	13.31
728.17	19.31
728.195	0.31
728.221	5.31
728.246	-8.69
728.271	-8.69
728.297	-6.69
728.322	11.31
728.347	-8.69
728.373	11.31
728.398	7.31
728.423	-4.69
728.448	-2.69
728.474	12.31
728.499	8.31
728.524	-18.69
728.55	-16.69
728.575	-11.69
728.6	7.31
728.625	-1.69
728.651	-1.69
728.676	-18.69
728.701	-2.69
728.727	12.31
728.752	15.31
728.777	-3.69
728.802	-0.69
728.828	0.31
728.853	6.31
728.878	-5.69
728.903	-10.69
728.929	-12.69
728.954	-19.69
728.979	6.31
729.004	-0.69
729.03	-17.69
729.055	-1.69
729.08	-22.69
729.105	-7.69
729.13	6.31
729.156	-3.69
729.181	-1.69
729.206	-0.69
729.231	-0.69
729.256	14.31
729.282	1.31
729.307	-4.69
729.332	-18.69
729.357	-8.69
729.382	1.31
729.408	3.31
729.433	-1.69
729.458	-0.69
729.483	-0.69
729.508	9.31
729.533	9.31
729.559	-0.69
729.584	-18.69
729.609	0.31
729.634	1.31
729.659	7.31
729.684	-2.69
729.71	28.31
729.735	-10.69
729.76	9.31
729.785	14.31
729.81	0.31
729.835	-9.69
729.86	-2.69
729.886	13.31
729.911	8.31
729.936	7.31
729.961	11.31
729.986	16.31
730.011	71.31
730.036	207.31
730.061	988.31
730.086	2672.31
730.112	3359.31
730.137	2846.31
730.162	2092.31
730.187	1669.31
730.212	1295.31
730.237	787.31
730.262	461.31
730.287	214.31
730.312	125.31
730.337	67.31
730.362	63.31
730.387	47.31
730.413	27.31
730.438	15.31
730.463	20.31
730.488	17.31
730.513	16.31
730.538	13.31
730.563	21.31
730.588	-3.69
730.613	3.31
730.638	-2.69
730.663	7.31
730.688	18.31
730.713	7.31
730.738	3.31
730.763	11.31
730.788	-3.69
730.813	2.31
730.838	2.31
730.863	3.31
730.888	-8.69
730.913	-10.69
730.938	-8.69
730.963	21.31
730.988	108.31
731.013	395.31
731.038	611.31
731.063	590.31
731.088	445.31
731.113	333.31
731.138	261.31
731.163	182.31
731.188	99.31
731.213	62.31
731.238	36.31
731.263	9.31
731.288	11.31
731.313	12.31
731.338	13.31
731.363	-7.69
731.388	-8.69
731.413	7.31
731.438	25.31
731.463	7.31
731.487	2.31
731.512	-0.69
731.537	-7.69
731.562	-0.69
731.587	-4.69
731.612	-5.69
731.637	-9.69
731.662	-3.69
731.687	-3.69
731.712	-6.69
731.737	12.31
731.762	-1.69
731.786	-3.69
731.811	6.31
731.836	5.31
731.861	1.31
731.886	-14.69
731.911	0.31
731.936	-2.69
731.961	1.31
731.986	-7.69
732.01	-8.69
732.035	2.31
732.06	8.31
732.085	6.31
732.11	7.31
732.135	-7.69
732.16	-11.69
732.184	-4.69
732.209	-0.69
732.234	15.31
732.259	-3.69
732.284	20.31
732.309	9.31
732.334	-9.69
732.358	-22.69
732.383	-18.69
732.408	5.31
732.433	-2.69
732.458	-1.69
732.482	-3.69
732.507	1.31
732.532	-1.69
732.557	21.31
732.582	23.31
732.607	15.31
732.631	49.31
732.656	88.31
732.681	147.31
732.706	319.31
732.73	448.31
732.755	387.31
732.78	300.31
732.805	238.31
732.83	173.31
732.854	126.31
732.879	79.31
732.904	19.31
732.929	10.31
732.953	12.31
732.978	15.31
733.003	12.31
733.028	-7.69
733.052	4.31
733.077	13.31
733.102	13.31
733.127	1.31
733.151	-8.69
733.176	3.31
733.201	3.31
733.226	0.31
733.25	-8.69
733.275	3.31
733.3	4.31
733.324	11.31
733.349	2.31
733.374	5.31
733.399	6.31
733.423	-4.69
733.448	-20.69
733.473	-4.69
733.497	0.31
733.522	-1.69
733.547	5.31
733.571	12.31
733.596	-2.69
733.621	-13.69
733.646	-14.69
733.67	-6.69
733.695	-4.69
733.72	3.31
733.744	5.31
733.769	9.31
733.794	31.31
733.818	-3.69
733.843	5.31
733.867	10.31
733.892	0.31
733.917	-0.69
733.941	2.31
733.966	-6.69
733.991	-16.69
734.015	12.31
734.04	8.31
734.065	9.31
734.089	4.31
734.114	1.31
734.138	10.31
734.163	0.31
734.188	9.31
734.212	6.31
734.237	15.31
734.261	3.31
734.286	-7.69
734.311	4.31
734.335	16.31
734.36	0.31
734.384	2.31
734.409	0.31
734.434	2.31
734.458	-7.69
734.483	-14.69
734.507	-9.69
734.532	-2.69
734.556	-7.69
734.581	-5.69
734.606	-2.69
734.63	-7.69
734.655	6.31
734.679	13.31
734.704	-0.69
734.728	-7.69
734.753	-8.69
734.777	-0.69
734.802	-6.69
734.826	0.31
734.851	12.31
734.876	14.31
734.9	9.31
734.925	0.31
734.949	-7.69
734.974	0.31
734.998	4.31
735.023	7.31
735.047	-19.69
735.072	18.31
735.096	-3.69
735.121	-1.69
735.145	0.31
735.17	-4.69
735.194	-3.69
735.219	-8.69
735.243	0.31
735.268	4.31
735.292	13.31
735.317	1.31
735.341	7.31
735.365	-12.69
735.39	15.31
735.414	1.31
735.439	1.31
735.463	7.31
735.488	16.31
735.512	-2.69
735.537	1.31
735.561	2.31
735.586	-11.69
735.61	-7.69
735.634	-11.69
735.659	19.31
735.683	17.31
735.708	16.31
735.732	7.31
735.757	-13.69
735.781	6.31
735.805	-1.69
735.83	-12.69
735.854	-6.69
735.879	-4.69
735.903	7.31
735.927	0.31
735.952	6.31
735.976	-3.69
736.001	-0.69
736.025	-7.69
736.049	1.31
736.074	-1.69
736.098	-2.69
736.123	0.31
736.147	14.31
736.171	13.31
736.196	20.31
736.22	4.31
736.244	-0.69
736.269	-12.69
736.293	-8.69
736.317	-2.69
736.342	-7.69
736.366	9.31
736.39	-8.69
736.415	4.31
736.439	4.31
736.463	5.31
736.488	3.31
736.512	5.31
736.536	14.31
736.561	19.31
736.585	3.31
736.609	1.31
736.634	-6.69
736.658	1.31
736.682	-7.69
736.707	-14.69
736.731	-18.69
736.755	-26.69
736.78	0.31
736.804	3.31
736.828	11.31
736.852	-8.69
736.877	-10.69
736.901	-1.69
736.925	-10.69
736.949	4.31
736.974	-6.69
736.998	-17.69
737.022	-18.69
737.047	7.31
737.071	-3.69
737.095	13.31
737.119	31.31
737.144	19.31
737.168	2.31
737.192	-2.69
737.216	8.31
737.241	11.31
737.265	12.31
737.289	-4.69
737.313	0.31
737.337	15.31
737.362	9.31
737.386	4.31
737.41	-0.69
737.434	10.31
737.459	8.31
737.483	7.31
737.507	12.31
737.531	8.31
737.555	8.31
737.58	17.31
737.604	10.31
737.628	-2.69
737.652	-18.69
737.676	-13.69
737.701	6.31
737.725	-4.69
737.749	6.31
737.773	4.31
737.797	-4.69
737.821	-0.69
737.846	-3.69
737.87	14.31
737.894	2.31
737.918	4.31
737.942	-9.69
737.966	-4.69
737.99	6.31
738.015	2.31
738.039	-3.69
738.063	-15.69
738.087	17.31
738.111	12.31
738.135	8.31
738.159	-9.69
738.184	12.31
738.208	-1.69
738.232	-2.69
738.256	22.31
738.28	-0.69
738.304	12.31
738.328	-7.69
738.352	10.31
738.376	9.31
738.4	17.31
738.425	18.31
738.449	-6.69
738.473	17.31
738.497	20.31
738.521	1.31
738.545	10.31
738.569	15.31
738.593	7.31
738.617	6.31
738.641	-6.69
738.665	-5.69
738.689	9.31
738.713	5.31
738.737	9.31
738.762	5.31
738.786	5.31
738.81	1.31
738.834	1.31
738.858	-1.69
738.882	-2.69
738.906	-3.69
738.93	-2.69
738.954	-0.69
738.978	13.31
739.002	-3.69
739.026	-4.69
739.05	17.31
739.074	-4.69
739.098	22.31
739.122	6.31
739.146	14.31
739.17	19.31
739.194	20.31
739.218	-3.69
739.242	9.31
739.266	-1.69
739.29	17.31
739.314	8.31
739.338	-5.69
739.362	-6.69
739.386	4.31
739.41	-12.69
739.434	-4.69
739.458	7.31
739.482	6.31
739.506	8.31
739.53	7.31
739.554	6.31
739.577	-6.69
739.601	27.31
739.625	-2.69
739.649	-2.69
739.673	0.31
739.697	1.31
739.721	-4.69
739.745	4.31
739.769	13.31
739.793	22.31
739.817	13.31
739.841	-4.69
739.865	3.31
739.889	-7.69
739.912	3.31
739.936	7.31
739.96	-0.69
739.984	22.31
740.008	5.31
740.032	-11.69
740.056	-7.69
740.08	7.31
740.104	-12.69
740.127	6.31
740.151	1.31
740.175	7.31
740.199	2.31
740.223	45.31
740.247	19.31
740.271	2.31
740.295	-10.69
740.318	-15.69
740.342	-14.69
740.366	0.31
740.39	9.31
740.414	3.31
740.438	-7.69
740.461	3.31
740.485	-0.69
740.509	-24.69
740.533	0.31
740.557	-14.69
740.581	-4.69
740.604	-14.69
740.628	4.31
740.652	4.31
740.676	-7.69
740.7	13.31
740.723	0.31
740.747	7.31
740.771	-6.69
740.795	2.31
740.819	5.31
740.842	-0.69
740.866	23.31
740.89	1.31
740.914	-0.69
740.938	-20.69
740.961	11.31
740.985	9.31
741.009	-5.69
741.033	-2.69
741.056	-3.69
741.08	1.31
741.104	-4.69
741.128	-18.69
741.151	8.31
741.175	8.31
741.199	0.31
741.223	0.31
741.246	-4.69
741.27	-0.69
741.294	-1.69
741.318	-5.69
741.341	-2.69
741.365	-9.69
741.389	3.31
741.413	27.31
741.436	15.31
741.46	4.31
741.484	24.31
741.507	9.31
741.531	27.31
741.555	20.31
741.579	-3.69
741.602	-3.69
741.626	10.31
741.65	-10.69
741.673	-1.69
741.697	10.31
741.721	7.31
741.744	-17.69
741.768	-3.69
741.792	17.31
741.815	-3.69
741.839	-2.69
741.863	16.31
741.886	8.31
741.91	2.31
741.934	6.31
741.957	-13.69
741.981	7.31
742.005	0.31
742.028	-6.69
742.052	-6.69
742.075	7.31
742.099	23.31
742.123	9.31
742.146	5.31
742.17	-7.69
742.194	-18.69
742.217	-3.69
742.241	1.31
742.264	-3.69
742.288	19.31
742.312	18.31
742.335	-1.69
742.359	-19.69
742.382	-2.69
742.406	12.31
742.43	1.31
742.453	15.31
742.477	-8.69
742.5	-2.69
742.524	2.31
742.548	-13.69
742.571	-11.69
742.595	-10.69
742.618	-3.69
742.642	-4.69
742.665	8.31
742.689	-0.69
742.712	29.31
742.736	-10.69
742.76	5.31
742.783	-12.69
742.807	12.31
742.83	13.31
742.854	-2.69
742.877	1.31
742.901	-7.69
742.924	-4.69
742.948	-0.69
742.971	3.31
742.995	-2.69
743.018	-10.69
743.042	-11.69
743.065	5.31
743.089	-22.69
743.112	-11.69
743.136	-3.69
743.159	3.31
743.183	-2.69
743.206	14.31
743.23	2.31
743.253	16.31
743.277	6.31
743.3	-7.69
743.324	-0.69
743.347	3.31
743.371	9.31
743.394	0.31
743.418	7.31
743.441	6.31
743.465	0.31
743.488	-0.69
743.512	-0.69
743.535	-8.69
743.558	2.31
743.582	3.31
743.605	3.31
743.629	13.31
743.652	-8.69
743.676	-4.69
743.699	15.31
743.723	4.31
743.746	11.31
743.769	-6.69
743.793	-7.69
743.816	-7.69
743.84	17.31
743.863	-6.69
743.886	-2.69
743.91	16.31
743.933	4.31
743.957	14.31
743.98	-9.69
744.003	-9.69
744.027	4.31
744.05	1.31
744.074	4.31
744.097	-8.69
744.12	-19.69
744.144	-8.69
744.167	6.31
744.19	-4.69
744.214	-3.69
744.237	6.31
744.26	-2.69
744.284	-11.69
744.307	-15.69
744.331	1.31
744.354	-8.69
744.377	-7.69
744.401	0.31
744.424	-6.69
744.447	-13.69
744.471	2.31
