Data from HighRes_mercury_15_13_11_07_2024_HR4C61891__40__15-14-27-186.txt Node

Date: Thu Nov 07 15:14:27 EST 2024
User: crc00042
Spectrometer: HR4C6189
Trigger mode: 4
Integration Time (sec): 1.000000E-1
Scans to average: 1
Electric dark correction enabled: true
Nonlinearity correction enabled: false
Boxcar width: 0
XAxis mode: Wavelengths
Number of Pixels in Spectrum: 3648
>>>>>Begin Spectral Data<<<<<
639.567	-57.31
639.602	-57.31
639.636	-57.31
639.67	-34.31
639.704	-10.31
639.738	1.69
639.773	0.69
639.807	-16.31
639.841	2.69
639.875	7.69
639.909	11.69
639.943	-15.31
639.978	4.69
640.012	3.69
640.046	10.69
640.08	1.69
640.114	-11.31
640.148	-2.31
640.182	-5.31
640.217	-0.31
640.251	22.69
640.285	5.69
640.319	-4.31
640.353	10.69
640.387	-2.31
640.421	-7.31
640.455	-10.31
640.49	-6.31
640.524	1.69
640.558	-3.31
640.592	0.69
640.626	17.69
640.66	6.69
640.694	-0.31
640.728	18.69
640.762	11.69
640.796	28.69
640.83	16.69
640.865	-9.31
640.899	8.69
640.933	-1.31
640.967	-0.31
641.001	8.69
641.035	19.69
641.069	4.69
641.103	-14.31
641.137	11.69
641.171	-7.31
641.205	19.69
641.239	17.69
641.273	7.69
641.307	17.69
641.341	17.69
641.375	-2.31
641.409	0.69
641.443	3.69
641.477	-0.31
641.511	11.69
641.545	14.69
641.579	6.69
641.614	29.69
641.648	27.69
641.682	6.69
641.716	15.69
641.75	20.69
641.784	30.69
641.818	5.69
641.852	2.69
641.886	5.69
641.919	22.69
641.953	9.69
641.987	-4.31
642.021	14.69
642.055	31.69
642.089	24.69
642.123	-10.31
642.157	3.69
642.191	3.69
642.225	-3.31
642.259	-11.31
642.293	40.69
642.327	12.69
642.361	-7.31
642.395	9.69
642.429	27.69
642.463	23.69
642.497	13.69
642.531	8.69
642.565	-0.31
642.599	10.69
642.633	-19.31
642.666	5.69
642.7	7.69
642.734	25.69
642.768	-13.31
642.802	4.69
642.836	6.69
642.87	2.69
642.904	19.69
642.938	5.69
642.972	8.69
643.005	14.69
643.039	12.69
643.073	21.69
643.107	14.69
643.141	-7.31
643.175	11.69
643.209	-3.31
643.243	0.69
643.276	12.69
643.31	0.69
643.344	-4.31
643.378	6.69
643.412	26.69
643.446	11.69
643.48	-7.31
643.513	-4.31
643.547	14.69
643.581	-6.31
643.615	4.69
643.649	16.69
643.683	1.69
643.716	-6.31
643.75	12.69
643.784	-11.31
643.818	14.69
643.852	-2.31
643.886	-4.31
643.919	10.69
643.953	-12.31
643.987	-9.31
644.021	22.69
644.055	7.69
644.088	-8.31
644.122	-5.31
644.156	-9.31
644.19	12.69
644.224	2.69
644.257	13.69
644.291	9.69
644.325	7.69
644.359	0.69
644.392	24.69
644.426	8.69
644.46	9.69
644.494	1.69
644.527	15.69
644.561	9.69
644.595	0.69
644.629	-22.31
644.662	3.69
644.696	12.69
644.73	-5.31
644.764	2.69
644.797	-9.31
644.831	7.69
644.865	25.69
644.899	19.69
644.932	28.69
644.966	11.69
645	-4.31
645.033	5.69
645.067	4.69
645.101	13.69
645.135	7.69
645.168	-19.31
645.202	-14.31
645.236	-0.31
645.269	5.69
645.303	3.69
645.337	-10.31
645.37	0.69
645.404	-7.31
645.438	-6.31
645.471	-2.31
645.505	0.69
645.539	-15.31
645.572	-10.31
645.606	-10.31
645.64	0.69
645.673	0.69
645.707	18.69
645.741	1.69
645.774	-3.31
645.808	-1.31
645.842	3.69
645.875	4.69
645.909	-5.31
645.943	3.69
645.976	3.69
646.01	12.69
646.043	18.69
646.077	13.69
646.111	17.69
646.144	8.69
646.178	1.69
646.212	-5.31
646.245	2.69
646.279	4.69
646.312	10.69
646.346	6.69
646.38	-12.31
646.413	-7.31
646.447	8.69
646.48	2.69
646.514	2.69
646.547	7.69
646.581	-1.31
646.615	5.69
646.648	-11.31
646.682	7.69
646.715	10.69
646.749	1.69
646.782	4.69
646.816	-16.31
646.85	13.69
646.883	-6.31
646.917	6.69
646.95	-0.31
646.984	3.69
647.017	-2.31
647.051	-5.31
647.084	-5.31
647.118	-5.31
647.151	9.69
647.185	6.69
647.218	-4.31
647.252	4.69
647.285	-0.31
647.319	2.69
647.353	4.69
647.386	7.69
647.42	5.69
647.453	7.69
647.487	2.69
647.52	-4.31
647.553	11.69
647.587	8.69
647.62	-0.31
647.654	12.69
647.687	7.69
647.721	2.69
647.754	3.69
647.788	14.69
647.821	20.69
647.855	19.69
647.888	13.69
647.922	14.69
647.955	-6.31
647.989	0.69
648.022	-6.31
648.055	18.69
648.089	5.69
648.122	25.69
648.156	3.69
648.189	7.69
648.223	9.69
648.256	28.69
648.29	12.69
648.323	3.69
648.356	14.69
648.39	6.69
648.423	5.69
648.457	-0.31
648.49	15.69
648.523	13.69
648.557	6.69
648.59	10.69
648.624	8.69
648.657	16.69
648.69	19.69
648.724	6.69
648.757	7.69
648.791	12.69
648.824	21.69
648.857	34.69
648.891	16.69
648.924	-4.31
648.957	6.69
648.991	4.69
649.024	27.69
649.057	12.69
649.091	5.69
649.124	13.69
649.158	6.69
649.191	27.69
649.224	6.69
649.258	7.69
649.291	9.69
649.324	-2.31
649.358	5.69
649.391	-1.31
649.424	-9.31
649.458	7.69
649.491	5.69
649.524	-10.31
649.557	-7.31
649.591	-13.31
649.624	23.69
649.657	-3.31
649.691	4.69
649.724	15.69
649.757	8.69
649.791	-2.31
649.824	11.69
649.857	19.69
649.89	-1.31
649.924	-8.31
649.957	-7.31
649.99	-1.31
650.023	-7.31
650.057	-20.31
650.09	18.69
650.123	1.69
650.157	18.69
650.19	6.69
650.223	-4.31
650.256	1.69
650.29	13.69
650.323	-6.31
650.356	-5.31
650.389	-15.31
650.423	-12.31
650.456	0.69
650.489	12.69
650.522	9.69
650.555	26.69
650.589	15.69
650.622	6.69
650.655	32.69
650.688	4.69
650.721	4.69
650.755	4.69
650.788	11.69
650.821	-11.31
650.854	5.69
650.887	-6.31
650.921	-12.31
650.954	4.69
650.987	0.69
651.02	-8.31
651.053	-0.31
651.087	-0.31
651.12	24.69
651.153	-4.31
651.186	3.69
651.219	-15.31
651.252	11.69
651.286	6.69
651.319	-17.31
651.352	8.69
651.385	-2.31
651.418	9.69
651.451	20.69
651.484	12.69
651.518	-8.31
651.551	14.69
651.584	3.69
651.617	22.69
651.65	3.69
651.683	17.69
651.716	-2.31
651.749	-0.31
651.783	-16.31
651.816	0.69
651.849	8.69
651.882	4.69
651.915	0.69
651.948	4.69
651.981	1.69
652.014	-12.31
652.047	-6.31
652.08	-0.31
652.114	-0.31
652.147	6.69
652.18	8.69
652.213	27.69
652.246	1.69
652.279	-8.31
652.312	14.69
652.345	0.69
652.378	5.69
652.411	19.69
652.444	17.69
652.477	9.69
652.51	2.69
652.543	-14.31
652.576	-9.31
652.609	-1.31
652.642	14.69
652.675	9.69
652.709	2.69
652.742	20.69
652.775	20.69
652.808	16.69
652.841	11.69
652.874	-5.31
652.907	-4.31
652.94	-6.31
652.973	3.69
653.006	-1.31
653.039	-9.31
653.072	-8.31
653.105	-8.31
653.138	-4.31
653.171	-1.31
653.204	-4.31
653.237	-6.31
653.27	-14.31
653.303	0.69
653.336	3.69
653.368	-0.31
653.401	8.69
653.434	-6.31
653.467	-4.31
653.5	-6.31
653.533	-6.31
653.566	11.69
653.599	7.69
653.632	-4.31
653.665	6.69
653.698	-2.31
653.731	-16.31
653.764	-5.31
653.797	-6.31
653.83	5.69
653.863	-0.31
653.896	13.69
653.929	1.69
653.961	16.69
653.994	-5.31
654.027	4.69
654.06	-4.31
654.093	8.69
654.126	5.69
654.159	-3.31
654.192	-0.31
654.225	1.69
654.258	3.69
654.29	0.69
654.323	5.69
654.356	-9.31
654.389	10.69
654.422	-2.31
654.455	19.69
654.488	17.69
654.521	-8.31
654.553	1.69
654.586	19.69
654.619	-7.31
654.652	9.69
654.685	1.69
654.718	0.69
654.751	14.69
654.783	3.69
654.816	9.69
654.849	7.69
654.882	-6.31
654.915	-16.31
654.948	11.69
654.98	-0.31
655.013	-12.31
655.046	-4.31
655.079	-12.31
655.112	10.69
655.144	-12.31
655.177	5.69
655.21	5.69
655.243	9.69
655.276	19.69
655.308	2.69
655.341	-13.31
655.374	0.69
655.407	0.69
655.44	6.69
655.472	21.69
655.505	-3.31
655.538	-1.31
655.571	27.69
655.603	-1.31
655.636	-3.31
655.669	10.69
655.702	20.69
655.734	-1.31
655.767	6.69
655.8	4.69
655.833	21.69
655.865	6.69
655.898	-7.31
655.931	4.69
655.964	3.69
655.996	-12.31
656.029	4.69
656.062	2.69
656.095	0.69
656.127	-3.31
656.16	4.69
656.193	-6.31
656.225	8.69
656.258	7.69
656.291	-1.31
656.324	5.69
656.356	15.69
656.389	1.69
656.422	2.69
656.454	-7.31
656.487	-3.31
656.52	9.69
656.552	0.69
656.585	-2.31
656.618	8.69
656.65	7.69
656.683	3.69
656.716	10.69
656.748	3.69
656.781	-9.31
656.814	-7.31
656.846	14.69
656.879	-16.31
656.912	2.69
656.944	-16.31
656.977	-3.31
657.01	-5.31
657.042	3.69
657.075	15.69
657.108	-3.31
657.14	11.69
657.173	16.69
657.205	38.69
657.238	10.69
657.271	-6.31
657.303	-7.31
657.336	-10.31
657.369	-20.31
657.401	-16.31
657.434	8.69
657.466	-1.31
657.499	-6.31
657.532	-3.31
657.564	8.69
657.597	6.69
657.629	8.69
657.662	-10.31
657.694	3.69
657.727	0.69
657.76	4.69
657.792	-10.31
657.825	-11.31
657.857	0.69
657.89	-22.31
657.922	6.69
657.955	-19.31
657.987	4.69
658.02	18.69
658.053	22.69
658.085	1.69
658.118	9.69
658.15	17.69
658.183	22.69
658.215	4.69
658.248	5.69
658.28	-5.31
658.313	31.69
658.345	10.69
658.378	10.69
658.41	7.69
658.443	4.69
658.475	4.69
658.508	-1.31
658.54	-6.31
658.573	-17.31
658.605	-10.31
658.638	-8.31
658.67	6.69
658.703	3.69
658.735	-12.31
658.768	-1.31
658.8	-22.31
658.833	6.69
658.865	-18.31
658.898	2.69
658.93	-2.31
658.963	7.69
658.995	-5.31
659.028	3.69
659.06	-1.31
659.092	11.69
659.125	-6.31
659.157	-2.31
659.19	-3.31
659.222	-11.31
659.255	4.69
659.287	-4.31
659.32	-7.31
659.352	-0.31
659.384	7.69
659.417	-3.31
659.449	5.69
659.482	2.69
659.514	-1.31
659.546	7.69
659.579	-2.31
659.611	15.69
659.644	-3.31
659.676	-6.31
659.708	-6.31
659.741	-3.31
659.773	13.69
659.806	-2.31
659.838	10.69
659.87	5.69
659.903	-8.31
659.935	7.69
659.967	5.69
660	-0.31
660.032	-24.31
660.065	12.69
660.097	-0.31
660.129	4.69
660.162	-9.31
660.194	5.69
660.226	3.69
660.259	10.69
660.291	-7.31
660.323	-2.31
660.356	6.69
660.388	-4.31
660.42	-12.31
660.453	2.69
660.485	1.69
660.517	7.69
660.55	4.69
660.582	-9.31
660.614	7.69
660.647	-4.31
660.679	-16.31
660.711	4.69
660.743	-7.31
660.776	-0.31
660.808	-16.31
660.84	-6.31
660.873	-0.31
660.905	-4.31
660.937	-14.31
660.969	2.69
661.002	-1.31
661.034	16.69
661.066	4.69
661.099	-1.31
661.131	6.69
661.163	-9.31
661.195	3.69
661.228	6.69
661.26	-3.31
661.292	2.69
661.324	22.69
661.357	14.69
661.389	5.69
661.421	6.69
661.453	-3.31
661.485	9.69
661.518	6.69
661.55	-5.31
661.582	-4.31
661.614	-0.31
661.647	6.69
661.679	8.69
661.711	0.69
661.743	2.69
661.775	10.69
661.808	16.69
661.84	-13.31
661.872	17.69
661.904	2.69
661.936	-9.31
661.969	-16.31
662.001	-10.31
662.033	2.69
662.065	10.69
662.097	14.69
662.129	8.69
662.162	-18.31
662.194	0.69
662.226	13.69
662.258	6.69
662.29	7.69
662.322	-14.31
662.355	4.69
662.387	31.69
662.419	4.69
662.451	11.69
662.483	11.69
662.515	12.69
662.547	-0.31
662.58	13.69
662.612	-7.31
662.644	-15.31
662.676	-0.31
662.708	21.69
662.74	-3.31
662.772	-0.31
662.804	5.69
662.836	9.69
662.869	9.69
662.901	0.69
662.933	0.69
662.965	2.69
662.997	9.69
663.029	-4.31
663.061	25.69
663.093	8.69
663.125	11.69
663.157	23.69
663.189	7.69
663.221	-1.31
663.254	5.69
663.286	18.69
663.318	-10.31
663.35	-10.31
663.382	3.69
663.414	-4.31
663.446	5.69
663.478	-17.31
663.51	25.69
663.542	-5.31
663.574	-2.31
663.606	10.69
663.638	-6.31
663.67	-11.31
663.702	-3.31
663.734	10.69
663.766	21.69
663.798	-13.31
663.83	-9.31
663.862	1.69
663.894	-10.31
663.926	-2.31
663.958	4.69
663.99	-4.31
664.022	-7.31
664.054	16.69
664.086	-6.31
664.118	-14.31
664.15	-8.31
664.182	-7.31
664.214	-4.31
664.246	16.69
664.278	11.69
664.31	27.69
664.342	-3.31
664.374	-5.31
664.406	2.69
664.438	17.69
664.47	2.69
664.502	-2.31
664.534	-3.31
664.566	-17.31
664.598	15.69
664.63	-5.31
664.662	4.69
664.693	5.69
664.725	3.69
664.757	6.69
664.789	-0.31
664.821	-10.31
664.853	6.69
664.885	1.69
664.917	-9.31
664.949	12.69
664.981	2.69
665.013	-8.31
665.045	8.69
665.076	2.69
665.108	-6.31
665.14	1.69
665.172	12.69
665.204	4.69
665.236	4.69
665.268	20.69
665.3	14.69
665.331	-9.31
665.363	-7.31
665.395	-3.31
665.427	-4.31
665.459	-2.31
665.491	5.69
665.523	2.69
665.555	14.69
665.586	4.69
665.618	9.69
665.65	-4.31
665.682	18.69
665.714	-5.31
665.746	-12.31
665.777	-3.31
665.809	-7.31
665.841	-8.31
665.873	4.69
665.905	10.69
665.937	5.69
665.968	9.69
666	-0.31
666.032	0.69
666.064	-4.31
666.096	-3.31
666.127	13.69
666.159	4.69
666.191	-0.31
666.223	-3.31
666.255	-1.31
666.286	8.69
666.318	7.69
666.35	13.69
666.382	3.69
666.413	-3.31
666.445	0.69
666.477	5.69
666.509	6.69
666.54	9.69
666.572	16.69
666.604	6.69
666.636	10.69
666.667	25.69
666.699	19.69
666.731	20.69
666.763	-4.31
666.794	9.69
666.826	-3.31
666.858	-18.31
666.89	10.69
666.921	6.69
666.953	8.69
666.985	11.69
667.017	22.69
667.048	19.69
667.08	-1.31
667.112	0.69
667.143	-24.31
667.175	5.69
667.207	9.69
667.238	15.69
667.27	4.69
667.302	2.69
667.334	-8.31
667.365	0.69
667.397	-4.31
667.429	7.69
667.46	20.69
667.492	27.69
667.524	14.69
667.555	3.69
667.587	22.69
667.619	3.69
667.65	-11.31
667.682	7.69
667.714	19.69
667.745	-4.31
667.777	-0.31
667.808	3.69
667.84	6.69
667.872	6.69
667.903	16.69
667.935	-4.31
667.967	4.69
667.998	-0.31
668.03	5.69
668.061	4.69
668.093	-1.31
668.125	-1.31
668.156	1.69
668.188	8.69
668.22	-0.31
668.251	17.69
668.283	19.69
668.314	15.69
668.346	6.69
668.377	26.69
668.409	22.69
668.441	28.69
668.472	8.69
668.504	17.69
668.535	21.69
668.567	8.69
668.599	10.69
668.63	-0.31
668.662	19.69
668.693	17.69
668.725	3.69
668.756	11.69
668.788	0.69
668.819	3.69
668.851	-6.31
668.882	-15.31
668.914	-13.31
668.946	-8.31
668.977	8.69
669.009	-7.31
669.04	-9.31
669.072	-4.31
669.103	-3.31
669.135	0.69
669.166	7.69
669.198	6.69
669.229	11.69
669.261	7.69
669.292	18.69
669.324	-0.31
669.355	7.69
669.387	-0.31
669.418	-0.31
669.45	-5.31
669.481	2.69
669.513	2.69
669.544	13.69
669.576	4.69
669.607	26.69
669.639	20.69
669.67	-0.31
669.701	3.69
669.733	-6.31
669.764	-9.31
669.796	2.69
669.827	-5.31
669.859	8.69
669.89	7.69
669.922	5.69
669.953	-1.31
669.985	22.69
670.016	21.69
670.047	8.69
670.079	0.69
670.11	-5.31
670.142	2.69
670.173	-0.31
670.204	-8.31
670.236	11.69
670.267	-0.31
670.299	-7.31
670.33	-5.31
670.362	19.69
670.393	-15.31
670.424	3.69
670.456	-4.31
670.487	-3.31
670.518	3.69
670.55	7.69
670.581	11.69
670.613	6.69
670.644	2.69
670.675	-22.31
670.707	-10.31
670.738	9.69
670.769	10.69
670.801	-8.31
670.832	10.69
670.864	-6.31
670.895	5.69
670.926	12.69
670.958	7.69
670.989	-4.31
671.02	-11.31
671.052	1.69
671.083	5.69
671.114	1.69
671.146	7.69
671.177	13.69
671.208	-8.31
671.24	-13.31
671.271	4.69
671.302	17.69
671.333	-9.31
671.365	-7.31
671.396	-0.31
671.427	13.69
671.459	11.69
671.49	14.69
671.521	-7.31
671.553	1.69
671.584	4.69
671.615	9.69
671.646	-1.31
671.678	-3.31
671.709	-9.31
671.74	-2.31
671.771	-3.31
671.803	6.69
671.834	14.69
671.865	-2.31
671.896	-9.31
671.928	-7.31
671.959	-10.31
671.99	-0.31
672.021	5.69
672.053	1.69
672.084	7.69
672.115	3.69
672.146	-1.31
672.178	-15.31
672.209	-0.31
672.24	19.69
672.271	18.69
672.303	0.69
672.334	1.69
672.365	-8.31
672.396	-1.31
672.427	3.69
672.459	-1.31
672.49	19.69
672.521	-2.31
672.552	6.69
672.583	10.69
672.615	11.69
672.646	18.69
672.677	-10.31
672.708	-3.31
672.739	3.69
672.77	20.69
672.802	7.69
672.833	-7.31
672.864	0.69
672.895	-0.31
672.926	0.69
672.957	-10.31
672.989	-11.31
673.02	-3.31
673.051	4.69
673.082	8.69
673.113	4.69
673.144	6.69
673.175	8.69
673.206	0.69
673.238	-3.31
673.269	9.69
673.3	7.69
673.331	10.69
673.362	4.69
673.393	-4.31
673.424	11.69
673.455	22.69
673.487	13.69
673.518	6.69
673.549	-5.31
673.58	-2.31
673.611	9.69
673.642	2.69
673.673	-16.31
673.704	3.69
673.735	2.69
673.766	-13.31
673.797	2.69
673.828	0.69
673.86	-11.31
673.891	-10.31
673.922	-6.31
673.953	-6.31
673.984	2.69
674.015	9.69
674.046	8.69
674.077	-4.31
674.108	-9.31
674.139	-1.31
674.17	-10.31
674.201	-5.31
674.232	-8.31
674.263	5.69
674.294	12.69
674.325	-14.31
674.356	10.69
674.387	9.69
674.418	1.69
674.449	-4.31
674.48	-1.31
674.511	-5.31
674.542	10.69
674.573	10.69
674.604	9.69
674.635	3.69
674.666	19.69
674.697	14.69
674.728	-10.31
674.759	-0.31
674.79	-12.31
674.821	-24.31
674.852	-3.31
674.883	-23.31
674.914	-0.31
674.945	-6.31
674.976	-10.31
675.007	-9.31
675.038	-5.31
675.069	-1.31
675.1	-6.31
675.131	-4.31
675.162	-19.31
675.193	2.69
675.224	-11.31
675.254	5.69
675.285	2.69
675.316	12.69
675.347	-5.31
675.378	-13.31
675.409	-3.31
675.44	6.69
675.471	9.69
675.502	6.69
675.533	0.69
675.564	8.69
675.595	-3.31
675.625	19.69
675.656	15.69
675.687	8.69
675.718	-11.31
675.749	18.69
675.78	3.69
675.811	3.69
675.842	-3.31
675.873	3.69
675.903	2.69
675.934	1.69
675.965	-1.31
675.996	-6.31
676.027	5.69
676.058	-9.31
676.089	-13.31
676.119	13.69
676.15	9.69
676.181	7.69
676.212	-13.31
676.243	16.69
676.274	-3.31
676.304	20.69
676.335	0.69
676.366	9.69
676.397	-6.31
676.428	0.69
676.459	-0.31
676.489	17.69
676.52	4.69
676.551	-0.31
676.582	4.69
676.613	-2.31
676.643	-8.31
676.674	10.69
676.705	-10.31
676.736	9.69
676.767	24.69
676.797	13.69
676.828	12.69
676.859	15.69
676.89	-8.31
676.92	20.69
676.951	4.69
676.982	-0.31
677.013	5.69
677.044	17.69
677.074	36.69
677.105	-16.31
677.136	0.69
677.167	-3.31
677.197	22.69
677.228	10.69
677.259	-18.31
677.289	3.69
677.32	-22.31
677.351	-7.31
677.382	-4.31
677.412	-3.31
677.443	2.69
677.474	19.69
677.505	-25.31
677.535	-6.31
677.566	0.69
677.597	-8.31
677.627	-12.31
677.658	6.69
677.689	3.69
677.72	9.69
677.75	-7.31
677.781	-2.31
677.812	0.69
677.842	2.69
677.873	7.69
677.904	-5.31
677.934	0.69
677.965	-4.31
677.996	-18.31
678.026	7.69
678.057	-12.31
678.088	-14.31
678.118	-1.31
678.149	-4.31
678.18	-0.31
678.21	1.69
678.241	6.69
678.272	0.69
678.302	-0.31
678.333	5.69
678.363	9.69
678.394	3.69
678.425	-10.31
678.455	-7.31
678.486	19.69
678.517	3.69
678.547	2.69
678.578	-7.31
678.608	-14.31
678.639	2.69
678.67	2.69
678.7	-12.31
678.731	2.69
678.761	-4.31
678.792	3.69
678.823	0.69
678.853	4.69
678.884	-3.31
678.914	0.69
678.945	9.69
678.975	-5.31
679.006	2.69
679.037	-5.31
679.067	20.69
679.098	8.69
679.128	-10.31
679.159	-8.31
679.189	19.69
679.22	-5.31
679.25	22.69
679.281	1.69
679.312	5.69
679.342	1.69
679.373	27.69
679.403	6.69
679.434	21.69
679.464	-9.31
679.495	8.69
679.525	0.69
679.556	-8.31
679.586	1.69
679.617	15.69
679.647	3.69
679.678	-8.31
679.708	-5.31
679.739	-11.31
679.769	6.69
679.8	-20.31
679.83	-12.31
679.861	-0.31
679.891	-14.31
679.922	-16.31
679.952	0.69
679.983	6.69
680.013	-1.31
680.044	-19.31
680.074	17.69
680.105	6.69
680.135	-7.31
680.165	6.69
680.196	15.69
680.226	-0.31
680.257	9.69
680.287	7.69
680.318	-6.31
680.348	-16.31
680.379	7.69
680.409	2.69
680.439	-3.31
680.47	7.69
680.5	7.69
680.531	-8.31
680.561	10.69
680.592	9.69
680.622	12.69
680.652	-4.31
680.683	12.69
680.713	11.69
680.744	-4.31
680.774	-6.31
680.804	11.69
680.835	0.69
680.865	-11.31
680.896	2.69
680.926	16.69
680.956	-1.31
680.987	7.69
681.017	-10.31
681.047	-12.31
681.078	6.69
681.108	-6.31
681.139	-2.31
681.169	-0.31
681.199	5.69
681.23	-4.31
681.26	10.69
681.29	7.69
681.321	-11.31
681.351	5.69
681.381	7.69
681.412	4.69
681.442	14.69
681.472	15.69
681.503	10.69
681.533	-10.31
681.563	-1.31
681.594	-1.31
681.624	6.69
681.654	-1.31
681.685	0.69
681.715	-5.31
681.745	3.69
681.775	3.69
681.806	4.69
681.836	8.69
681.866	-18.31
681.897	11.69
681.927	21.69
681.957	-25.31
681.987	6.69
682.018	-3.31
682.048	9.69
682.078	-0.31
682.109	20.69
682.139	32.69
682.169	3.69
682.199	5.69
682.23	-2.31
682.26	0.69
682.29	-3.31
682.32	-9.31
682.351	-16.31
682.381	4.69
682.411	-0.31
682.441	-1.31
682.472	-6.31
682.502	2.69
682.532	6.69
682.562	-8.31
682.592	1.69
682.623	2.69
682.653	-0.31
682.683	2.69
682.713	3.69
682.743	-6.31
682.774	1.69
682.804	-0.31
682.834	0.69
682.864	-7.31
682.894	0.69
682.925	12.69
682.955	5.69
682.985	13.69
683.015	6.69
683.045	19.69
683.076	-17.31
683.106	-25.31
683.136	7.69
683.166	6.69
683.196	-16.31
683.226	7.69
683.257	-11.31
683.287	-4.31
683.317	-4.31
683.347	2.69
683.377	11.69
683.407	7.69
683.437	-6.31
683.468	13.69
683.498	-10.31
683.528	-3.31
683.558	2.69
683.588	0.69
683.618	1.69
683.648	-11.31
683.678	4.69
683.708	16.69
683.739	5.69
683.769	-5.31
683.799	-1.31
683.829	11.69
683.859	4.69
683.889	2.69
683.919	-2.31
683.949	-1.31
683.979	1.69
684.009	-3.31
684.039	6.69
684.07	-13.31
684.1	5.69
684.13	2.69
684.16	3.69
684.19	2.69
684.22	-3.31
684.25	-8.31
684.28	-10.31
684.31	12.69
684.34	0.69
684.37	14.69
684.4	-7.31
684.43	7.69
684.46	0.69
684.49	5.69
684.52	19.69
684.55	18.69
684.58	7.69
684.61	3.69
684.64	19.69
684.67	-5.31
684.7	-10.31
684.73	-7.31
684.76	10.69
684.79	24.69
684.82	3.69
684.85	-15.31
684.88	16.69
684.91	5.69
684.94	2.69
684.97	-6.31
685	6.69
685.03	-6.31
685.06	-6.31
685.09	-4.31
685.12	29.69
685.15	-4.31
685.18	8.69
685.21	6.69
685.24	23.69
685.27	14.69
685.3	-0.31
685.33	0.69
685.36	-8.31
685.39	7.69
685.42	-4.31
685.45	1.69
685.48	-16.31
685.51	-7.31
685.54	7.69
685.569	9.69
685.599	10.69
685.629	5.69
685.659	6.69
685.689	3.69
685.719	21.69
685.749	15.69
685.779	9.69
685.809	7.69
685.839	-12.31
685.869	3.69
685.898	13.69
685.928	0.69
685.958	2.69
685.988	9.69
686.018	-0.31
686.048	-0.31
686.078	11.69
686.108	10.69
686.137	-0.31
686.167	9.69
686.197	-9.31
686.227	1.69
686.257	36.69
686.287	25.69
686.317	10.69
686.346	-3.31
686.376	-8.31
686.406	-4.31
686.436	5.69
686.466	5.69
686.496	-4.31
686.525	1.69
686.555	-7.31
686.585	13.69
686.615	36.69
686.645	2.69
686.675	16.69
686.704	18.69
686.734	2.69
686.764	-3.31
686.794	-7.31
686.824	-15.31
686.853	8.69
686.883	7.69
686.913	16.69
686.943	10.69
686.973	2.69
687.002	14.69
687.032	12.69
687.062	1.69
687.092	13.69
687.121	0.69
687.151	1.69
687.181	-13.31
687.211	15.69
687.24	1.69
687.27	-4.31
687.3	2.69
687.33	5.69
687.359	-8.31
687.389	11.69
687.419	8.69
687.449	4.69
687.478	22.69
687.508	-9.31
687.538	11.69
687.568	17.69
687.597	-4.31
687.627	-4.31
687.657	-1.31
687.686	15.69
687.716	13.69
687.746	-1.31
687.776	8.69
687.805	2.69
687.835	12.69
687.865	23.69
687.894	21.69
687.924	0.69
687.954	-0.31
687.983	10.69
688.013	10.69
688.043	21.69
688.072	2.69
688.102	-1.31
688.132	-11.31
688.161	-15.31
688.191	8.69
688.221	30.69
688.25	-0.31
688.28	7.69
688.31	9.69
688.339	17.69
688.369	-7.31
688.399	-5.31
688.428	0.69
688.458	2.69
688.488	-0.31
688.517	8.69
688.547	-8.31
688.576	23.69
688.606	10.69
688.636	-3.31
688.665	-0.31
688.695	18.69
688.725	3.69
688.754	-5.31
688.784	1.69
688.813	18.69
688.843	2.69
688.873	1.69
688.902	2.69
688.932	2.69
688.961	-6.31
688.991	21.69
689.02	14.69
689.05	1.69
689.08	13.69
689.109	15.69
689.139	12.69
689.168	11.69
689.198	-1.31
689.227	-19.31
689.257	9.69
689.287	6.69
689.316	-2.31
689.346	-1.31
689.375	-10.31
689.405	11.69
689.434	10.69
689.464	0.69
689.493	-0.31
689.523	-13.31
689.552	-5.31
689.582	14.69
689.611	-0.31
689.641	15.69
689.67	7.69
689.7	7.69
689.73	13.69
689.759	17.69
689.789	2.69
689.818	-0.31
689.848	12.69
689.877	15.69
689.906	1.69
689.936	1.69
689.965	2.69
689.995	5.69
690.024	7.69
690.054	12.69
690.083	9.69
690.113	-4.31
690.142	1.69
690.172	4.69
690.201	14.69
690.231	6.69
690.26	11.69
690.29	2.69
690.319	20.69
690.348	-1.31
690.378	5.69
690.407	3.69
690.437	3.69
690.466	-7.31
690.496	-1.31
690.525	8.69
690.555	6.69
690.584	3.69
690.613	2.69
690.643	28.69
690.672	21.69
690.702	15.69
690.731	4.69
690.76	12.69
690.79	49.69
690.819	28.69
690.849	45.69
690.878	34.69
690.907	19.69
690.937	15.69
690.966	19.69
690.996	13.69
691.025	-6.31
691.054	-0.31
691.084	4.69
691.113	8.69
691.142	1.69
691.172	7.69
691.201	18.69
691.23	1.69
691.26	18.69
691.289	12.69
691.319	3.69
691.348	3.69
691.377	24.69
691.407	21.69
691.436	18.69
691.465	13.69
691.495	-3.31
691.524	-1.31
691.553	4.69
691.583	-8.31
691.612	10.69
691.641	12.69
691.67	7.69
691.7	3.69
691.729	-9.31
691.758	3.69
691.788	6.69
691.817	16.69
691.846	-3.31
691.876	8.69
691.905	19.69
691.934	-3.31
691.963	20.69
691.993	14.69
692.022	1.69
692.051	-5.31
692.081	25.69
692.11	36.69
692.139	12.69
692.168	3.69
692.198	13.69
692.227	11.69
692.256	-2.31
692.285	11.69
692.315	3.69
692.344	10.69
692.373	2.69
692.402	-7.31
692.432	-0.31
692.461	-0.31
692.49	-11.31
692.519	4.69
692.548	16.69
692.578	16.69
692.607	-0.31
692.636	0.69
692.665	17.69
692.694	3.69
692.724	4.69
692.753	15.69
692.782	13.69
692.811	-12.31
692.84	2.69
692.87	1.69
692.899	-4.31
692.928	1.69
692.957	3.69
692.986	11.69
693.016	-3.31
693.045	-2.31
693.074	10.69
693.103	-1.31
693.132	16.69
693.161	24.69
693.191	-9.31
693.22	-3.31
693.249	16.69
693.278	13.69
693.307	18.69
693.336	-12.31
693.365	-13.31
693.395	-1.31
693.424	1.69
693.453	19.69
693.482	3.69
693.511	8.69
693.54	8.69
693.569	14.69
693.598	1.69
693.628	14.69
693.657	18.69
693.686	30.69
693.715	12.69
693.744	26.69
693.773	15.69
693.802	17.69
693.831	7.69
693.86	16.69
693.889	-1.31
693.919	11.69
693.948	1.69
693.977	9.69
694.006	6.69
694.035	-4.31
694.064	-10.31
694.093	8.69
694.122	-0.31
694.151	3.69
694.18	12.69
694.209	34.69
694.238	19.69
694.267	19.69
694.296	28.69
694.325	11.69
694.354	18.69
694.383	15.69
694.412	0.69
694.441	-7.31
694.471	-14.31
694.5	-5.31
694.529	13.69
694.558	36.69
694.587	18.69
694.616	1.69
694.645	3.69
694.674	7.69
694.703	4.69
694.732	5.69
694.761	7.69
694.79	29.69
694.819	-12.31
694.848	15.69
694.877	26.69
694.906	16.69
694.935	3.69
694.963	18.69
694.992	7.69
695.021	15.69
695.05	20.69
695.079	14.69
695.108	12.69
695.137	30.69
695.166	0.69
695.195	5.69
695.224	16.69
695.253	-1.31
695.282	-10.31
695.311	18.69
695.34	-6.31
695.369	19.69
695.398	6.69
695.427	26.69
695.456	5.69
695.485	13.69
695.513	6.69
695.542	4.69
695.571	7.69
695.6	23.69
695.629	19.69
695.658	20.69
695.687	0.69
695.716	-6.31
695.745	24.69
695.774	-16.31
695.802	-7.31
695.831	12.69
695.86	11.69
695.889	26.69
695.918	6.69
695.947	-1.31
695.976	-0.31
696.005	5.69
696.033	0.69
696.062	24.69
696.091	5.69
696.12	24.69
696.149	20.69
696.178	6.69
696.207	3.69
696.235	-10.31
696.264	6.69
696.293	11.69
696.322	16.69
696.351	14.69
696.38	0.69
696.408	13.69
696.437	7.69
696.466	16.69
696.495	24.69
696.524	23.69
696.553	6.69
696.581	25.69
696.61	14.69
696.639	-4.31
696.668	4.69
696.697	-10.31
696.725	14.69
696.754	-9.31
696.783	9.69
696.812	3.69
696.84	5.69
696.869	11.69
696.898	0.69
696.927	2.69
696.956	17.69
696.984	14.69
697.013	14.69
697.042	3.69
697.071	12.69
697.099	20.69
697.128	20.69
697.157	18.69
697.186	9.69
697.214	-5.31
697.243	-1.31
697.272	-1.31
697.301	2.69
697.329	21.69
697.358	18.69
697.387	14.69
697.415	7.69
697.444	2.69
697.473	3.69
697.502	-1.31
697.53	9.69
697.559	-1.31
697.588	6.69
697.616	-3.31
697.645	-5.31
697.674	23.69
697.703	-1.31
697.731	12.69
697.76	26.69
697.789	9.69
697.817	24.69
697.846	22.69
697.875	9.69
697.903	27.69
697.932	12.69
697.961	5.69
697.989	16.69
698.018	19.69
698.047	8.69
698.075	11.69
698.104	0.69
698.133	3.69
698.161	4.69
698.19	-2.31
698.218	-1.31
698.247	4.69
698.276	4.69
698.304	13.69
698.333	13.69
698.362	17.69
698.39	10.69
698.419	4.69
698.447	2.69
698.476	16.69
698.505	9.69
698.533	3.69
698.562	8.69
698.591	3.69
698.619	8.69
698.648	12.69
698.676	7.69
698.705	4.69
698.733	-3.31
698.762	-1.31
698.791	-1.31
698.819	18.69
698.848	19.69
698.876	8.69
698.905	34.69
698.933	33.69
698.962	18.69
698.991	11.69
699.019	32.69
699.048	11.69
699.076	18.69
699.105	2.69
699.133	3.69
699.162	10.69
699.19	20.69
699.219	9.69
699.248	-0.31
699.276	-3.31
699.305	0.69
699.333	11.69
699.362	11.69
699.39	8.69
699.419	18.69
699.447	15.69
699.476	21.69
699.504	19.69
699.533	10.69
699.561	2.69
699.59	-3.31
699.618	-0.31
699.647	0.69
699.675	17.69
699.704	11.69
699.732	-5.31
699.761	1.69
699.789	5.69
699.818	25.69
699.846	3.69
699.874	-7.31
699.903	5.69
699.931	1.69
699.96	28.69
699.988	-5.31
700.017	-3.31
700.045	3.69
700.074	9.69
700.102	16.69
700.13	-3.31
700.159	14.69
700.187	8.69
700.216	-13.31
700.244	-10.31
700.273	-17.31
700.301	0.69
700.329	8.69
700.358	0.69
700.386	-15.31
700.415	10.69
700.443	-1.31
700.472	8.69
700.5	7.69
700.528	10.69
700.557	1.69
700.585	-2.31
700.614	8.69
700.642	13.69
700.67	11.69
700.699	0.69
700.727	-6.31
700.755	1.69
700.784	20.69
700.812	11.69
700.841	20.69
700.869	4.69
700.897	-10.31
700.926	-4.31
700.954	4.69
700.982	11.69
701.011	1.69
701.039	-15.31
701.067	3.69
701.096	0.69
701.124	-15.31
701.152	-0.31
701.181	2.69
701.209	-8.31
701.237	-2.31
701.266	-9.31
701.294	-2.31
701.322	9.69
701.351	10.69
701.379	15.69
701.407	5.69
701.435	-14.31
701.464	15.69
701.492	9.69
701.52	-7.31
701.549	9.69
701.577	-8.31
701.605	6.69
701.634	-0.31
701.662	19.69
701.69	2.69
701.718	18.69
701.747	20.69
701.775	5.69
701.803	-0.31
701.831	14.69
701.86	-0.31
701.888	4.69
701.916	2.69
701.944	11.69
701.973	-10.31
702.001	-0.31
702.029	4.69
702.057	-0.31
702.086	-6.31
702.114	-5.31
702.142	0.69
702.17	-4.31
702.199	-1.31
702.227	-18.31
702.255	-6.31
702.283	-2.31
702.311	21.69
702.34	3.69
702.368	-11.31
702.396	7.69
702.424	2.69
702.452	-7.31
702.481	-0.31
702.509	4.69
702.537	12.69
702.565	18.69
702.593	-6.31
702.621	-0.31
702.65	25.69
702.678	9.69
702.706	11.69
702.734	-4.31
702.762	19.69
702.79	1.69
702.819	3.69
702.847	-5.31
702.875	18.69
702.903	22.69
702.931	-0.31
702.959	2.69
702.988	13.69
703.016	-10.31
703.044	2.69
703.072	-3.31
703.1	-1.31
703.128	-3.31
703.156	-7.31
703.184	5.69
703.212	24.69
703.241	9.69
703.269	-0.31
703.297	10.69
703.325	2.69
703.353	-15.31
703.381	-2.31
703.409	6.69
703.437	-10.31
703.465	3.69
703.493	0.69
703.522	-3.31
703.55	13.69
703.578	12.69
703.606	-5.31
703.634	-3.31
703.662	1.69
703.69	-8.31
703.718	5.69
703.746	12.69
703.774	0.69
703.802	26.69
703.83	0.69
703.858	-0.31
703.886	-7.31
703.914	5.69
703.942	23.69
703.97	4.69
703.998	3.69
704.027	23.69
704.055	11.69
704.083	-3.31
704.111	-5.31
704.139	3.69
704.167	-5.31
704.195	-2.31
704.223	-4.31
704.251	-7.31
704.279	11.69
704.307	11.69
704.335	-7.31
704.363	8.69
704.391	-0.31
704.419	-6.31
704.447	-5.31
704.475	-12.31
704.503	-7.31
704.531	6.69
704.558	2.69
704.586	-11.31
704.614	0.69
704.642	2.69
704.67	-8.31
704.698	-0.31
704.726	-3.31
704.754	-4.31
704.782	-5.31
704.81	-2.31
704.838	20.69
704.866	11.69
704.894	-5.31
704.922	0.69
704.95	13.69
704.978	15.69
705.006	9.69
705.034	2.69
705.061	-1.31
705.089	0.69
705.117	-11.31
705.145	-11.31
705.173	5.69
705.201	2.69
705.229	19.69
705.257	-8.31
705.285	15.69
705.313	6.69
705.34	-3.31
705.368	-2.31
705.396	6.69
705.424	2.69
705.452	8.69
705.48	4.69
705.508	-2.31
705.536	2.69
705.563	4.69
705.591	-4.31
705.619	3.69
705.647	8.69
705.675	11.69
705.703	1.69
705.731	0.69
705.758	3.69
705.786	-0.31
705.814	11.69
705.842	8.69
705.87	20.69
705.898	15.69
705.925	4.69
705.953	15.69
705.981	-7.31
706.009	-13.31
706.037	-3.31
706.065	-1.31
706.092	-1.31
706.12	17.69
706.148	-2.31
706.176	2.69
706.204	10.69
706.231	-5.31
706.259	-4.31
706.287	-12.31
706.315	4.69
706.342	1.69
706.37	12.69
706.398	-0.31
706.426	-11.31
706.454	6.69
706.481	8.69
706.509	-11.31
706.537	13.69
706.565	0.69
706.592	7.69
706.62	-3.31
706.648	-0.31
706.676	-16.31
706.703	0.69
706.731	-6.31
706.759	-10.31
706.787	-0.31
706.814	15.69
706.842	-7.31
706.87	13.69
706.897	3.69
706.925	3.69
706.953	7.69
706.981	11.69
707.008	1.69
707.036	-0.31
707.064	6.69
707.091	-10.31
707.119	6.69
707.147	8.69
707.174	-8.31
707.202	13.69
707.23	-12.31
707.258	8.69
707.285	-10.31
707.313	11.69
707.341	-0.31
707.368	-6.31
707.396	-5.31
707.424	7.69
707.451	-8.31
707.479	-2.31
707.507	5.69
707.534	-10.31
707.562	3.69
707.59	-9.31
707.617	-9.31
707.645	2.69
707.672	11.69
707.7	-5.31
707.728	-6.31
707.755	9.69
707.783	-11.31
707.811	8.69
707.838	14.69
707.866	3.69
707.893	2.69
707.921	0.69
707.949	-0.31
707.976	17.69
708.004	8.69
708.031	10.69
708.059	7.69
708.087	5.69
708.114	-8.31
708.142	-3.31
708.169	-2.31
708.197	-1.31
708.225	14.69
708.252	3.69
708.28	14.69
708.307	-4.31
708.335	5.69
708.362	-1.31
708.39	-3.31
708.418	0.69
708.445	-8.31
708.473	-7.31
708.5	-7.31
708.528	2.69
708.555	-6.31
708.583	3.69
708.61	-6.31
708.638	8.69
708.665	-1.31
708.693	2.69
708.72	-22.31
708.748	-15.31
708.776	-8.31
708.803	14.69
708.831	3.69
708.858	6.69
708.886	-3.31
708.913	-5.31
708.941	-14.31
708.968	16.69
708.996	4.69
709.023	21.69
709.051	-5.31
709.078	21.69
709.105	-1.31
709.133	7.69
709.16	-2.31
709.188	19.69
709.215	18.69
709.243	10.69
709.27	-13.31
709.298	1.69
709.325	-4.31
709.353	-3.31
709.38	-1.31
709.408	4.69
709.435	16.69
709.462	5.69
709.49	11.69
709.517	14.69
709.545	4.69
709.572	-13.31
709.6	-23.31
709.627	-12.31
709.655	-6.31
709.682	-3.31
709.709	-0.31
709.737	-0.31
709.764	3.69
709.792	13.69
709.819	-0.31
709.846	-3.31
709.874	13.69
709.901	9.69
709.929	38.69
709.956	15.69
709.983	1.69
710.011	0.69
710.038	-11.31
710.066	15.69
710.093	7.69
710.12	-1.31
710.148	-7.31
710.175	-2.31
710.202	-1.31
710.23	2.69
710.257	9.69
710.284	6.69
710.312	4.69
710.339	-0.31
710.366	9.69
710.394	2.69
710.421	-1.31
710.448	10.69
710.476	-4.31
710.503	10.69
710.53	9.69
710.558	18.69
710.585	19.69
710.612	-4.31
710.64	5.69
710.667	11.69
710.694	-11.31
710.722	5.69
710.749	1.69
710.776	0.69
710.804	21.69
710.831	9.69
710.858	14.69
710.885	8.69
710.913	-2.31
710.94	21.69
710.967	2.69
710.995	8.69
711.022	10.69
711.049	1.69
711.076	-3.31
711.104	-0.31
711.131	-2.31
711.158	18.69
711.185	3.69
711.213	-11.31
711.24	-7.31
711.267	-3.31
711.294	-4.31
711.322	9.69
711.349	-16.31
711.376	-3.31
711.403	3.69
711.431	4.69
711.458	-3.31
711.485	-0.31
711.512	0.69
711.54	-9.31
711.567	-0.31
711.594	-4.31
711.621	-5.31
711.648	-3.31
711.676	3.69
711.703	7.69
711.73	-23.31
711.757	12.69
711.784	0.69
711.812	9.69
711.839	7.69
711.866	-8.31
711.893	4.69
711.92	2.69
711.947	-3.31
711.975	3.69
712.002	10.69
712.029	12.69
712.056	19.69
712.083	6.69
712.11	-16.31
712.138	0.69
712.165	0.69
712.192	-6.31
712.219	-23.31
712.246	-7.31
712.273	-9.31
712.3	-5.31
712.328	8.69
712.355	18.69
712.382	0.69
712.409	29.69
712.436	1.69
712.463	34.69
712.49	6.69
712.517	4.69
712.544	1.69
712.572	5.69
712.599	-13.31
712.626	11.69
712.653	-5.31
712.68	-10.31
712.707	11.69
712.734	12.69
712.761	2.69
712.788	-5.31
712.815	10.69
712.842	36.69
712.87	2.69
712.897	-5.31
712.924	-5.31
712.951	-2.31
712.978	3.69
713.005	11.69
713.032	11.69
713.059	3.69
713.086	-6.31
713.113	-11.31
713.14	1.69
713.167	17.69
713.194	-5.31
713.221	-4.31
713.248	5.69
713.275	15.69
713.302	6.69
713.329	8.69
713.356	18.69
713.383	14.69
713.41	18.69
713.437	-6.31
713.464	0.69
713.491	3.69
713.518	6.69
713.545	-1.31
713.572	-7.31
713.599	13.69
713.626	8.69
713.653	-4.31
713.68	17.69
713.707	10.69
713.734	2.69
713.761	5.69
713.788	5.69
713.815	-0.31
713.842	-6.31
713.869	7.69
713.896	7.69
713.923	1.69
713.95	7.69
713.977	-4.31
714.004	-6.31
714.031	-7.31
714.058	0.69
714.085	-4.31
714.112	14.69
714.139	11.69
714.165	3.69
714.192	-0.31
714.219	2.69
714.246	2.69
714.273	1.69
714.3	1.69
714.327	0.69
714.354	-0.31
714.381	-13.31
714.408	0.69
714.435	-7.31
714.461	20.69
714.488	8.69
714.515	-0.31
714.542	-5.31
714.569	-8.31
714.596	9.69
714.623	-6.31
714.65	-19.31
714.677	10.69
714.703	6.69
714.73	4.69
714.757	-1.31
714.784	-3.31
714.811	-0.31
714.838	-5.31
714.865	-25.31
714.891	5.69
714.918	-6.31
714.945	-1.31
714.972	-5.31
714.999	7.69
715.026	-6.31
715.052	18.69
715.079	-4.31
715.106	-0.31
715.133	-0.31
715.16	-1.31
715.187	-3.31
715.213	16.69
715.24	-3.31
715.267	14.69
715.294	-3.31
715.321	-3.31
715.347	-12.31
715.374	-11.31
715.401	20.69
715.428	0.69
715.455	1.69
715.481	-1.31
715.508	13.69
715.535	10.69
715.562	21.69
715.588	-0.31
715.615	3.69
715.642	3.69
715.669	9.69
715.695	-7.31
715.722	-11.31
715.749	5.69
715.776	8.69
715.802	-3.31
715.829	3.69
715.856	-16.31
715.883	12.69
715.909	-7.31
715.936	-3.31
715.963	7.69
715.99	-0.31
716.016	15.69
716.043	0.69
716.07	-8.31
716.096	-15.31
716.123	2.69
716.15	2.69
716.177	-4.31
716.203	2.69
716.23	3.69
716.257	11.69
716.283	16.69
716.31	5.69
716.337	-0.31
716.363	-9.31
716.39	9.69
716.417	5.69
716.443	12.69
716.47	12.69
716.497	8.69
716.523	10.69
716.55	15.69
716.577	13.69
716.603	-6.31
716.63	0.69
716.657	9.69
716.683	-11.31
716.71	-7.31
716.737	11.69
716.763	5.69
716.79	11.69
716.817	15.69
716.843	4.69
716.87	-3.31
716.897	1.69
716.923	-2.31
716.95	4.69
716.976	4.69
717.003	-11.31
717.03	8.69
717.056	9.69
717.083	-7.31
717.109	4.69
717.136	0.69
717.163	-10.31
717.189	-11.31
717.216	-12.31
717.242	-3.31
717.269	-7.31
717.296	15.69
717.322	21.69
717.349	14.69
717.375	5.69
717.402	-0.31
717.428	-3.31
717.455	15.69
717.481	22.69
717.508	25.69
717.535	18.69
717.561	2.69
717.588	0.69
717.614	5.69
717.641	-5.31
717.667	8.69
717.694	-0.31
717.72	-2.31
717.747	-5.31
717.773	-5.31
717.8	7.69
717.826	8.69
717.853	0.69
717.88	3.69
717.906	9.69
717.933	9.69
717.959	8.69
717.986	15.69
718.012	0.69
718.039	0.69
718.065	6.69
718.092	10.69
718.118	-9.31
718.144	-12.31
718.171	10.69
718.197	5.69
718.224	-0.31
718.25	2.69
718.277	16.69
718.303	-2.31
718.33	1.69
718.356	8.69
718.383	3.69
718.409	-17.31
718.436	7.69
718.462	0.69
718.489	2.69
718.515	19.69
718.541	21.69
718.568	7.69
718.594	-3.31
718.621	11.69
718.647	10.69
718.674	13.69
718.7	24.69
718.726	2.69
718.753	5.69
718.779	20.69
718.806	-12.31
718.832	-7.31
718.858	-4.31
718.885	7.69
718.911	6.69
718.938	13.69
718.964	-7.31
718.99	3.69
719.017	-5.31
719.043	4.69
719.07	15.69
719.096	-1.31
719.122	0.69
719.149	5.69
719.175	10.69
719.201	7.69
719.228	15.69
719.254	-1.31
719.281	-9.31
719.307	5.69
719.333	-6.31
719.36	7.69
719.386	-8.31
719.412	19.69
719.439	-2.31
719.465	6.69
719.491	-7.31
719.518	10.69
719.544	4.69
719.57	8.69
719.597	-1.31
719.623	-1.31
719.649	9.69
719.675	-5.31
719.702	-4.31
719.728	16.69
719.754	-8.31
719.781	-1.31
719.807	0.69
719.833	0.69
719.86	-2.31
719.886	15.69
719.912	7.69
719.938	-2.31
719.965	-8.31
719.991	1.69
720.017	13.69
720.044	6.69
720.07	-5.31
720.096	8.69
720.122	10.69
720.149	3.69
720.175	21.69
720.201	12.69
720.227	8.69
720.254	15.69
720.28	11.69
720.306	-12.31
720.332	12.69
720.359	8.69
720.385	12.69
720.411	1.69
720.437	6.69
720.463	-4.31
720.49	6.69
720.516	-1.31
720.542	-0.31
720.568	-3.31
720.595	12.69
720.621	1.69
720.647	11.69
720.673	11.69
720.699	5.69
720.725	18.69
720.752	13.69
720.778	9.69
720.804	7.69
720.83	9.69
720.856	6.69
720.883	-1.31
720.909	0.69
720.935	-7.31
720.961	5.69
720.987	11.69
721.013	-3.31
721.04	3.69
721.066	-4.31
721.092	-11.31
721.118	4.69
721.144	3.69
721.17	-3.31
721.196	-3.31
721.223	-1.31
721.249	2.69
721.275	16.69
721.301	4.69
721.327	3.69
721.353	-1.31
721.379	10.69
721.405	-1.31
721.432	11.69
721.458	-4.31
721.484	7.69
721.51	-26.31
721.536	-1.31
721.562	-0.31
721.588	-5.31
721.614	-2.31
721.64	10.69
721.666	-10.31
721.693	3.69
721.719	-5.31
721.745	12.69
721.771	3.69
721.797	7.69
721.823	3.69
721.849	8.69
721.875	1.69
721.901	8.69
721.927	-6.31
721.953	9.69
721.979	13.69
722.005	15.69
722.031	-6.31
722.057	0.69
722.083	2.69
722.109	9.69
722.135	10.69
722.161	13.69
722.187	7.69
722.214	-7.31
722.24	13.69
722.266	-11.31
722.292	18.69
722.318	18.69
722.344	15.69
722.37	11.69
722.396	-4.31
722.422	10.69
722.448	-4.31
722.474	-4.31
722.5	11.69
722.526	-2.31
722.552	2.69
722.578	-1.31
722.603	7.69
722.629	3.69
722.655	-7.31
722.681	-11.31
722.707	1.69
722.733	4.69
722.759	-3.31
722.785	10.69
722.811	9.69
722.837	14.69
722.863	19.69
722.889	17.69
722.915	0.69
722.941	-4.31
722.967	8.69
722.993	26.69
723.019	13.69
723.045	2.69
723.071	0.69
723.097	14.69
723.122	9.69
723.148	-5.31
723.174	-1.31
723.2	6.69
723.226	-4.31
723.252	0.69
723.278	-8.31
723.304	2.69
723.33	10.69
723.356	-2.31
723.381	3.69
723.407	-7.31
723.433	19.69
723.459	-0.31
723.485	-8.31
723.511	3.69
723.537	-0.31
723.563	-2.31
723.588	1.69
723.614	15.69
723.64	-1.31
723.666	0.69
723.692	9.69
723.718	4.69
723.744	11.69
723.769	3.69
723.795	-6.31
723.821	17.69
723.847	-18.31
723.873	5.69
723.899	9.69
723.924	-5.31
723.95	2.69
723.976	-6.31
724.002	18.69
724.028	1.69
724.053	-2.31
724.079	-5.31
724.105	2.69
724.131	4.69
724.157	10.69
724.182	10.69
724.208	-3.31
724.234	3.69
724.26	-0.31
724.286	17.69
724.311	9.69
724.337	0.69
724.363	-1.31
724.389	13.69
724.415	4.69
724.44	13.69
724.466	5.69
724.492	6.69
724.518	-0.31
724.543	8.69
724.569	17.69
724.595	11.69
724.621	1.69
724.646	-8.31
724.672	-2.31
724.698	1.69
724.723	-2.31
724.749	3.69
724.775	11.69
724.801	7.69
724.826	-6.31
724.852	0.69
724.878	-1.31
724.904	-18.31
724.929	0.69
724.955	-15.31
724.981	-3.31
725.006	-4.31
725.032	4.69
725.058	13.69
725.083	2.69
725.109	-7.31
725.135	6.69
725.161	-1.31
725.186	0.69
725.212	-7.31
725.238	7.69
725.263	3.69
725.289	4.69
725.315	-6.31
725.34	7.69
725.366	12.69
725.392	11.69
725.417	-8.31
725.443	-8.31
725.468	4.69
725.494	-5.31
725.52	20.69
725.545	-2.31
725.571	-10.31
725.597	-1.31
725.622	9.69
725.648	4.69
725.674	7.69
725.699	9.69
725.725	12.69
725.75	33.69
725.776	9.69
725.802	16.69
725.827	3.69
725.853	-0.31
725.878	3.69
725.904	6.69
725.93	10.69
725.955	-0.31
725.981	-1.31
726.006	-5.31
726.032	15.69
726.057	6.69
726.083	8.69
726.109	-3.31
726.134	4.69
726.16	9.69
726.185	-0.31
726.211	-11.31
726.236	4.69
726.262	12.69
726.288	4.69
726.313	15.69
726.339	13.69
726.364	4.69
726.39	11.69
726.415	-4.31
726.441	-3.31
726.466	10.69
726.492	0.69
726.517	0.69
726.543	8.69
726.568	-8.31
726.594	-7.31
726.619	8.69
726.645	3.69
726.67	15.69
726.696	2.69
726.721	-2.31
726.747	2.69
726.772	-4.31
726.798	-5.31
726.823	-12.31
726.849	4.69
726.874	13.69
726.9	24.69
726.925	20.69
726.951	-4.31
726.976	-0.31
727.002	6.69
727.027	14.69
727.053	1.69
727.078	-1.31
727.104	4.69
727.129	-1.31
727.155	6.69
727.18	-1.31
727.205	-3.31
727.231	-5.31
727.256	-6.31
727.282	-2.31
727.307	19.69
727.333	27.69
727.358	-2.31
727.383	-19.31
727.409	-17.31
727.434	-2.31
727.46	-1.31
727.485	-5.31
727.511	-0.31
727.536	-10.31
727.561	-7.31
727.587	-8.31
727.612	-5.31
727.637	-6.31
727.663	-4.31
727.688	13.69
727.714	11.69
727.739	-1.31
727.764	-3.31
727.79	2.69
727.815	12.69
727.841	-0.31
727.866	-7.31
727.891	7.69
727.917	-7.31
727.942	-15.31
727.967	-8.31
727.993	-19.31
728.018	5.69
728.043	-9.31
728.069	17.69
728.094	14.69
728.119	-7.31
728.145	22.69
728.17	-5.31
728.195	17.69
728.221	27.69
728.246	15.69
728.271	-11.31
728.297	5.69
728.322	2.69
728.347	1.69
728.373	7.69
728.398	19.69
728.423	-6.31
728.448	-0.31
728.474	-1.31
728.499	-5.31
728.524	-15.31
728.55	6.69
728.575	-3.31
728.6	7.69
728.625	11.69
728.651	3.69
728.676	-8.31
728.701	0.69
728.727	3.69
728.752	-21.31
728.777	10.69
728.802	5.69
728.828	16.69
728.853	11.69
728.878	-4.31
728.903	-1.31
728.929	-8.31
728.954	9.69
728.979	2.69
729.004	6.69
729.03	11.69
729.055	11.69
729.08	5.69
729.105	6.69
729.13	18.69
729.156	14.69
729.181	-2.31
729.206	-20.31
729.231	-0.31
729.256	3.69
729.282	5.69
729.307	-6.31
729.332	-9.31
729.357	-1.31
729.382	-12.31
729.408	0.69
729.433	-1.31
729.458	-4.31
729.483	7.69
729.508	19.69
729.533	18.69
729.559	1.69
729.584	-1.31
729.609	16.69
729.634	15.69
729.659	-1.31
729.684	-5.31
729.71	22.69
729.735	3.69
729.76	2.69
729.785	-0.31
729.81	22.69
729.835	10.69
729.86	-9.31
729.886	15.69
729.911	10.69
729.936	11.69
729.961	31.69
729.986	25.69
730.011	60.69
730.036	193.69
730.061	1003.69
730.086	2753.69
730.112	3437.69
730.137	2892.69
730.162	2136.69
730.187	1677.69
730.212	1275.69
730.237	788.69
730.262	451.69
730.287	233.69
730.312	130.69
730.337	67.69
730.362	64.69
730.387	30.69
730.413	24.69
730.438	12.69
730.463	26.69
730.488	13.69
730.513	7.69
730.538	6.69
730.563	25.69
730.588	33.69
730.613	10.69
730.638	-5.31
730.663	9.69
730.688	23.69
730.713	16.69
730.738	4.69
730.763	6.69
730.788	-11.31
730.813	-3.31
730.838	3.69
730.863	7.69
730.888	8.69
730.913	3.69
730.938	-4.31
730.963	35.69
730.988	135.69
731.013	418.69
731.038	633.69
731.063	602.69
731.088	452.69
731.113	358.69
731.138	263.69
731.163	182.69
731.188	95.69
731.213	58.69
731.238	53.69
731.263	15.69
731.288	19.69
731.313	21.69
731.338	-0.31
731.363	7.69
731.388	4.69
731.413	6.69
731.438	14.69
731.463	2.69
731.487	6.69
731.512	-4.31
731.537	2.69
731.562	-5.31
731.587	12.69
731.612	0.69
731.637	-3.31
731.662	-1.31
731.687	7.69
731.712	-4.31
731.737	6.69
731.762	-4.31
731.786	-14.31
731.811	6.69
731.836	-1.31
731.861	9.69
731.886	-1.31
731.911	21.69
731.936	9.69
731.961	-3.31
731.986	-8.31
732.01	4.69
732.035	17.69
732.06	13.69
732.085	7.69
732.11	-8.31
732.135	-11.31
732.16	-4.31
732.184	-7.31
732.209	0.69
732.234	19.69
732.259	-3.31
732.284	19.69
732.309	-3.31
732.334	9.69
732.358	-5.31
732.383	-17.31
732.408	-7.31
732.433	9.69
732.458	-13.31
732.482	3.69
732.507	2.69
732.532	10.69
732.557	21.69
732.582	27.69
732.607	32.69
732.631	39.69
732.656	86.69
732.681	148.69
732.706	350.69
732.73	465.69
732.755	412.69
732.78	311.69
732.805	248.69
732.83	165.69
732.854	127.69
732.879	64.69
732.904	47.69
732.929	23.69
732.953	8.69
732.978	13.69
733.003	-1.31
733.028	-7.31
733.052	3.69
733.077	8.69
733.102	22.69
733.127	-0.31
733.151	-9.31
733.176	17.69
733.201	2.69
733.226	-3.31
733.25	-8.31
733.275	3.69
733.3	4.69
733.324	10.69
733.349	9.69
733.374	13.69
733.399	11.69
733.423	-0.31
733.448	-4.31
733.473	-7.31
733.497	-2.31
733.522	-4.31
733.547	18.69
733.571	20.69
733.596	10.69
733.621	13.69
733.646	-9.31
733.67	4.69
733.695	1.69
733.72	-6.31
733.744	5.69
733.769	16.69
733.794	21.69
733.818	-3.31
733.843	-12.31
733.867	-9.31
733.892	-9.31
733.917	4.69
733.941	3.69
733.966	-3.31
733.991	9.69
734.015	21.69
734.04	5.69
734.065	14.69
734.089	11.69
734.114	5.69
734.138	4.69
734.163	-9.31
734.188	0.69
734.212	1.69
734.237	9.69
734.261	17.69
734.286	2.69
734.311	9.69
734.335	-3.31
734.36	-8.31
734.384	24.69
734.409	-5.31
734.434	-1.31
734.458	-2.31
734.483	7.69
734.507	-10.31
734.532	10.69
734.556	8.69
734.581	-8.31
734.606	3.69
734.63	-7.31
734.655	1.69
734.679	-4.31
734.704	-13.31
734.728	0.69
734.753	-6.31
734.777	-7.31
734.802	-12.31
734.826	-6.31
734.851	6.69
734.876	13.69
734.9	-0.31
734.925	8.69
734.949	4.69
734.974	-15.31
734.998	7.69
735.023	-8.31
735.047	-7.31
735.072	8.69
735.096	-0.31
735.121	-7.31
735.145	6.69
735.17	0.69
735.194	4.69
735.219	0.69
735.243	9.69
735.268	17.69
735.292	5.69
735.317	7.69
735.341	11.69
735.365	-7.31
735.39	12.69
735.414	10.69
735.439	13.69
735.463	6.69
735.488	3.69
735.512	-7.31
735.537	0.69
735.561	5.69
735.586	1.69
735.61	19.69
735.634	-0.31
735.659	12.69
735.683	14.69
735.708	-20.31
735.732	-2.31
735.757	-4.31
735.781	2.69
735.805	2.69
735.83	-0.31
735.854	2.69
735.879	-1.31
735.903	8.69
735.927	0.69
735.952	3.69
735.976	-7.31
736.001	-3.31
736.025	18.69
736.049	5.69
736.074	18.69
736.098	3.69
736.123	0.69
736.147	11.69
736.171	0.69
736.196	3.69
736.22	-3.31
736.244	1.69
736.269	1.69
736.293	4.69
736.317	19.69
736.342	16.69
736.366	18.69
736.39	12.69
736.415	12.69
736.439	-3.31
736.463	23.69
736.488	18.69
736.512	5.69
736.536	10.69
736.561	15.69
736.585	1.69
736.609	10.69
736.634	-10.31
736.658	7.69
736.682	-9.31
736.707	-3.31
736.731	-13.31
736.755	-9.31
736.78	17.69
736.804	3.69
736.828	-1.31
736.852	-0.31
736.877	-0.31
736.901	3.69
736.925	13.69
736.949	16.69
736.974	5.69
736.998	-5.31
737.022	-10.31
737.047	-2.31
737.071	-7.31
737.095	7.69
737.119	29.69
737.144	5.69
737.168	-17.31
737.192	-9.31
737.216	19.69
737.241	2.69
737.265	-2.31
737.289	3.69
737.313	-7.31
737.337	15.69
737.362	8.69
737.386	5.69
737.41	-7.31
737.434	-1.31
737.459	13.69
737.483	3.69
737.507	9.69
737.531	4.69
737.555	3.69
737.58	15.69
737.604	7.69
737.628	11.69
737.652	6.69
737.676	0.69
737.701	10.69
737.725	-3.31
737.749	6.69
737.773	-4.31
737.797	14.69
737.821	-5.31
737.846	-13.31
737.87	21.69
737.894	15.69
737.918	-4.31
737.942	0.69
737.966	39.69
737.99	23.69
738.015	7.69
738.039	8.69
738.063	-11.31
738.087	6.69
738.111	4.69
738.135	12.69
738.159	-15.31
738.184	7.69
738.208	10.69
738.232	0.69
738.256	14.69
738.28	14.69
738.304	28.69
738.328	-4.31
738.352	11.69
738.376	8.69
738.4	11.69
738.425	18.69
738.449	5.69
738.473	20.69
738.497	19.69
738.521	14.69
738.545	2.69
738.569	8.69
738.593	13.69
738.617	15.69
738.641	6.69
738.665	11.69
738.689	23.69
738.713	-7.31
738.737	11.69
738.762	18.69
738.786	3.69
738.81	-6.31
738.834	10.69
738.858	3.69
738.882	11.69
738.906	-6.31
738.93	-0.31
738.954	-5.31
738.978	21.69
739.002	2.69
739.026	13.69
739.05	7.69
739.074	17.69
739.098	41.69
739.122	23.69
739.146	11.69
739.17	-10.31
739.194	10.69
739.218	0.69
739.242	-3.31
739.266	4.69
739.29	11.69
739.314	25.69
739.338	10.69
739.362	13.69
739.386	6.69
739.41	2.69
739.434	4.69
739.458	13.69
739.482	-5.31
739.506	20.69
739.53	1.69
739.554	15.69
739.577	-8.31
739.601	6.69
739.625	-12.31
739.649	-9.31
739.673	-7.31
739.697	12.69
739.721	19.69
739.745	5.69
739.769	14.69
739.793	8.69
739.817	7.69
739.841	-5.31
739.865	14.69
739.889	-0.31
739.912	14.69
739.936	10.69
739.96	0.69
739.984	12.69
740.008	6.69
740.032	3.69
740.056	1.69
740.08	2.69
740.104	-3.31
740.127	11.69
740.151	21.69
740.175	18.69
740.199	11.69
740.223	51.69
740.247	4.69
740.271	10.69
740.295	1.69
740.318	-14.31
740.342	-6.31
740.366	0.69
740.39	14.69
740.414	0.69
740.438	-5.31
740.461	17.69
740.485	11.69
740.509	1.69
740.533	3.69
740.557	11.69
740.581	-3.31
740.604	-13.31
740.628	1.69
740.652	1.69
740.676	-0.31
740.7	22.69
740.723	6.69
740.747	-7.31
740.771	-4.31
740.795	0.69
740.819	17.69
740.842	11.69
740.866	24.69
740.89	6.69
740.914	-7.31
740.938	2.69
740.961	19.69
740.985	3.69
741.009	-3.31
741.033	17.69
741.056	12.69
741.08	5.69
741.104	12.69
741.128	4.69
741.151	6.69
741.175	11.69
741.199	10.69
741.223	5.69
741.246	-11.31
741.27	23.69
741.294	-1.31
741.318	-2.31
741.341	-12.31
741.365	11.69
741.389	8.69
741.413	13.69
741.436	12.69
741.46	10.69
741.484	15.69
741.507	8.69
741.531	22.69
741.555	-0.31
741.579	2.69
741.602	10.69
741.626	-3.31
741.65	-4.31
741.673	16.69
741.697	14.69
741.721	7.69
741.744	3.69
741.768	-11.31
741.792	8.69
741.815	8.69
741.839	19.69
741.863	14.69
741.886	17.69
741.91	10.69
741.934	1.69
741.957	-15.31
741.981	-1.31
742.005	8.69
742.028	-6.31
742.052	-13.31
742.075	6.69
742.099	16.69
742.123	11.69
742.146	15.69
742.17	9.69
742.194	-6.31
742.217	9.69
742.241	-12.31
742.264	6.69
742.288	24.69
742.312	-0.31
742.335	3.69
742.359	15.69
742.382	31.69
742.406	22.69
742.43	-9.31
742.453	19.69
742.477	-4.31
742.5	0.69
742.524	-1.31
742.548	-0.31
742.571	9.69
742.595	3.69
742.618	1.69
742.642	3.69
742.665	15.69
742.689	-5.31
742.712	5.69
742.736	8.69
742.76	7.69
742.783	7.69
742.807	10.69
742.83	23.69
742.854	-7.31
742.877	-1.31
742.901	7.69
742.924	-3.31
742.948	16.69
742.971	7.69
742.995	0.69
743.018	-12.31
743.042	6.69
743.065	-5.31
743.089	-7.31
743.112	-0.31
743.136	-7.31
743.159	-2.31
743.183	0.69
743.206	18.69
743.23	6.69
743.253	7.69
743.277	3.69
743.3	5.69
743.324	2.69
743.347	-3.31
743.371	9.69
743.394	7.69
743.418	25.69
743.441	-1.31
743.465	14.69
743.488	3.69
743.512	5.69
743.535	4.69
743.558	14.69
743.582	4.69
743.605	6.69
743.629	5.69
743.652	10.69
743.676	11.69
743.699	10.69
743.723	4.69
743.746	5.69
743.769	-3.31
743.793	-5.31
743.816	-15.31
743.84	11.69
743.863	-3.31
743.886	3.69
743.91	3.69
743.933	10.69
743.957	11.69
743.98	4.69
744.003	7.69
744.027	10.69
744.05	1.69
744.074	-1.31
744.097	-17.31
744.12	-7.31
744.144	-13.31
744.167	15.69
744.19	6.69
744.214	-5.31
744.237	-1.31
744.26	10.69
744.284	8.69
744.307	8.69
744.331	-8.31
744.354	-17.31
744.377	-3.31
744.401	-2.31
744.424	3.69
744.447	-2.31
744.471	-18.31
