Data from HighRes_H2D2_15_04_11_07_2024_HR4C61891__41__15-05-38-543.txt Node

Date: Thu Nov 07 15:05:38 EST 2024
User: crc00042
Spectrometer: HR4C6189
Trigger mode: 4
Integration Time (sec): 1.000000E-1
Scans to average: 1
Electric dark correction enabled: true
Nonlinearity correction enabled: false
Boxcar width: 0
XAxis mode: Wavelengths
Number of Pixels in Spectrum: 3648
>>>>>Begin Spectral Data<<<<<
639.567	-73.31
639.602	-73.31
639.636	-73.31
639.67	-32.31
639.704	-7.31
639.738	12.69
639.773	13.69
639.807	-18.31
639.841	0.69
639.875	11.69
639.909	0.69
639.943	-16.31
639.978	-4.31
640.012	-0.31
640.046	5.69
640.08	-1.31
640.114	2.69
640.148	-7.31
640.182	-3.31
640.217	-0.31
640.251	18.69
640.285	13.69
640.319	-0.31
640.353	-0.31
640.387	19.69
640.421	12.69
640.455	-12.31
640.49	-1.31
640.524	-16.31
640.558	4.69
640.592	-7.31
640.626	17.69
640.66	8.69
640.694	1.69
640.728	0.69
640.762	9.69
640.796	22.69
640.83	17.69
640.865	-1.31
640.899	3.69
640.933	0.69
640.967	-6.31
641.001	4.69
641.035	-8.31
641.069	-3.31
641.103	-5.31
641.137	4.69
641.171	-7.31
641.205	13.69
641.239	4.69
641.273	8.69
641.307	23.69
641.341	4.69
641.375	3.69
641.409	14.69
641.443	4.69
641.477	-1.31
641.511	6.69
641.545	13.69
641.579	0.69
641.614	4.69
641.648	-2.31
641.682	-10.31
641.716	20.69
641.75	15.69
641.784	14.69
641.818	14.69
641.852	8.69
641.886	1.69
641.919	27.69
641.953	12.69
641.987	-9.31
642.021	3.69
642.055	14.69
642.089	2.69
642.123	11.69
642.157	-1.31
642.191	2.69
642.225	10.69
642.259	17.69
642.293	12.69
642.327	7.69
642.361	2.69
642.395	12.69
642.429	-0.31
642.463	1.69
642.497	11.69
642.531	11.69
642.565	22.69
642.599	20.69
642.633	-5.31
642.666	-0.31
642.7	12.69
642.734	16.69
642.768	3.69
642.802	-0.31
642.836	5.69
642.87	-4.31
642.904	9.69
642.938	12.69
642.972	2.69
643.005	12.69
643.039	12.69
643.073	1.69
643.107	2.69
643.141	2.69
643.175	8.69
643.209	4.69
643.243	-13.31
643.276	13.69
643.31	-9.31
643.344	-5.31
643.378	-2.31
643.412	17.69
643.446	7.69
643.48	12.69
643.513	18.69
643.547	-1.31
643.581	12.69
643.615	8.69
643.649	11.69
643.683	13.69
643.716	5.69
643.75	16.69
643.784	2.69
643.818	11.69
643.852	1.69
643.886	-1.31
643.919	10.69
643.953	6.69
643.987	3.69
644.021	9.69
644.055	18.69
644.088	13.69
644.122	-10.31
644.156	-4.31
644.19	-6.31
644.224	5.69
644.257	7.69
644.291	18.69
644.325	11.69
644.359	12.69
644.392	17.69
644.426	-8.31
644.46	-0.31
644.494	12.69
644.527	-4.31
644.561	1.69
644.595	-7.31
644.629	-1.31
644.662	9.69
644.696	19.69
644.73	5.69
644.764	9.69
644.797	-4.31
644.831	10.69
644.865	7.69
644.899	-8.31
644.932	24.69
644.966	5.69
645	1.69
645.033	13.69
645.067	-4.31
645.101	6.69
645.135	5.69
645.168	2.69
645.202	-2.31
645.236	-21.31
645.269	3.69
645.303	-8.31
645.337	-11.31
645.37	-6.31
645.404	10.69
645.438	8.69
645.471	-4.31
645.505	10.69
645.539	5.69
645.572	-17.31
645.606	-11.31
645.64	-9.31
645.673	15.69
645.707	23.69
645.741	-2.31
645.774	-6.31
645.808	-1.31
645.842	-3.31
645.875	10.69
645.909	-17.31
645.943	-0.31
645.976	1.69
646.01	8.69
646.043	10.69
646.077	13.69
646.111	-3.31
646.144	9.69
646.178	6.69
646.212	11.69
646.245	4.69
646.279	19.69
646.312	11.69
646.346	17.69
646.38	3.69
646.413	21.69
646.447	20.69
646.48	5.69
646.514	15.69
646.547	-0.31
646.581	6.69
646.615	11.69
646.648	-17.31
646.682	-3.31
646.715	0.69
646.749	8.69
646.782	-2.31
646.816	-18.31
646.85	0.69
646.883	-2.31
646.917	4.69
646.95	1.69
646.984	7.69
647.017	3.69
647.051	0.69
647.084	15.69
647.118	-18.31
647.151	-11.31
647.185	-5.31
647.218	-8.31
647.252	1.69
647.285	-4.31
647.319	15.69
647.353	5.69
647.386	12.69
647.42	13.69
647.453	2.69
647.487	-2.31
647.52	8.69
647.553	3.69
647.587	7.69
647.62	2.69
647.654	4.69
647.687	15.69
647.721	8.69
647.754	10.69
647.788	-4.31
647.821	0.69
647.855	13.69
647.888	8.69
647.922	1.69
647.955	-10.31
647.989	8.69
648.022	-9.31
648.055	10.69
648.089	2.69
648.122	16.69
648.156	5.69
648.189	-5.31
648.223	5.69
648.256	11.69
648.29	7.69
648.323	3.69
648.356	4.69
648.39	10.69
648.423	13.69
648.457	4.69
648.49	2.69
648.523	14.69
648.557	11.69
648.59	1.69
648.624	0.69
648.657	8.69
648.69	11.69
648.724	9.69
648.757	16.69
648.791	10.69
648.824	7.69
648.857	15.69
648.891	20.69
648.924	13.69
648.957	24.69
648.991	-3.31
649.024	6.69
649.057	4.69
649.091	-11.31
649.124	29.69
649.158	15.69
649.191	24.69
649.224	2.69
649.258	15.69
649.291	10.69
649.324	18.69
649.358	13.69
649.391	13.69
649.424	8.69
649.458	9.69
649.491	-11.31
649.524	1.69
649.557	7.69
649.591	-4.31
649.624	25.69
649.657	-16.31
649.691	6.69
649.724	-3.31
649.757	-12.31
649.791	2.69
649.824	16.69
649.857	15.69
649.89	0.69
649.924	-8.31
649.957	-4.31
649.99	-22.31
650.023	5.69
650.057	-6.31
650.09	2.69
650.123	-6.31
650.157	24.69
650.19	25.69
650.223	17.69
650.256	-13.31
650.29	-12.31
650.323	9.69
650.356	25.69
650.389	-1.31
650.423	7.69
650.456	-4.31
650.489	-4.31
650.522	2.69
650.555	11.69
650.589	6.69
650.622	7.69
650.655	7.69
650.688	1.69
650.721	-5.31
650.755	5.69
650.788	17.69
650.821	4.69
650.854	7.69
650.887	22.69
650.921	-5.31
650.954	-2.31
650.987	15.69
651.02	-0.31
651.053	-10.31
651.087	5.69
651.12	15.69
651.153	15.69
651.186	-4.31
651.219	-3.31
651.252	7.69
651.286	13.69
651.319	5.69
651.352	5.69
651.385	-3.31
651.418	15.69
651.451	18.69
651.484	7.69
651.518	12.69
651.551	25.69
651.584	-2.31
651.617	24.69
651.65	1.69
651.683	9.69
651.716	8.69
651.749	-15.31
651.783	-11.31
651.816	-0.31
651.849	-2.31
651.882	8.69
651.915	8.69
651.948	13.69
651.981	-7.31
652.014	-14.31
652.047	-19.31
652.08	1.69
652.114	-8.31
652.147	-25.31
652.18	-9.31
652.213	29.69
652.246	10.69
652.279	-4.31
652.312	11.69
652.345	4.69
652.378	6.69
652.411	15.69
652.444	9.69
652.477	-0.31
652.51	4.69
652.543	-5.31
652.576	10.69
652.609	3.69
652.642	-2.31
652.675	22.69
652.709	12.69
652.742	16.69
652.775	8.69
652.808	8.69
652.841	18.69
652.874	18.69
652.907	4.69
652.94	3.69
652.973	-20.31
653.006	-8.31
653.039	-17.31
653.072	17.69
653.105	-4.31
653.138	-8.31
653.171	5.69
653.204	18.69
653.237	-1.31
653.27	1.69
653.303	4.69
653.336	16.69
653.368	-7.31
653.401	17.69
653.434	19.69
653.467	27.69
653.5	-2.31
653.533	-0.31
653.566	11.69
653.599	-10.31
653.632	6.69
653.665	9.69
653.698	-8.31
653.731	-4.31
653.764	13.69
653.797	10.69
653.83	10.69
653.863	2.69
653.896	2.69
653.929	12.69
653.961	0.69
653.994	9.69
654.027	14.69
654.06	18.69
654.093	17.69
654.126	2.69
654.159	-11.31
654.192	11.69
654.225	9.69
654.258	-2.31
654.29	-0.31
654.323	3.69
654.356	2.69
654.389	12.69
654.422	18.69
654.455	26.69
654.488	2.69
654.521	-24.31
654.553	-13.31
654.586	19.69
654.619	-2.31
654.652	1.69
654.685	6.69
654.718	22.69
654.751	10.69
654.783	-3.31
654.816	10.69
654.849	9.69
654.882	8.69
654.915	-7.31
654.948	-1.31
654.98	15.69
655.013	3.69
655.046	0.69
655.079	-11.31
655.112	6.69
655.144	-16.31
655.177	1.69
655.21	21.69
655.243	14.69
655.276	-6.31
655.308	11.69
655.341	6.69
655.374	13.69
655.407	6.69
655.44	12.69
655.472	11.69
655.505	15.69
655.538	9.69
655.571	22.69
655.603	-10.31
655.636	6.69
655.669	12.69
655.702	19.69
655.734	-2.31
655.767	1.69
655.8	18.69
655.833	30.69
655.865	14.69
655.898	15.69
655.931	25.69
655.964	21.69
655.996	19.69
656.029	17.69
656.062	16.69
656.095	61.69
656.127	71.69
656.16	189.69
656.193	627.69
656.225	945.69
656.258	568.69
656.291	212.69
656.324	197.69
656.356	357.69
656.389	759.69
656.422	691.69
656.454	232.69
656.487	89.69
656.52	36.69
656.552	19.69
656.585	18.69
656.618	9.69
656.65	20.69
656.683	9.69
656.716	11.69
656.748	4.69
656.781	-2.31
656.814	0.69
656.846	2.69
656.879	4.69
656.912	3.69
656.944	-9.31
656.977	-25.31
657.01	-7.31
657.042	2.69
657.075	10.69
657.108	-3.31
657.14	5.69
657.173	8.69
657.205	13.69
657.238	8.69
657.271	3.69
657.303	4.69
657.336	1.69
657.369	8.69
657.401	2.69
657.434	3.69
657.466	1.69
657.499	4.69
657.532	12.69
657.564	4.69
657.597	-4.31
657.629	20.69
657.662	5.69
657.694	-11.31
657.727	-5.31
657.76	8.69
657.792	6.69
657.825	-0.31
657.857	-5.31
657.89	-0.31
657.922	18.69
657.955	-8.31
657.987	11.69
658.02	5.69
658.053	6.69
658.085	3.69
658.118	2.69
658.15	30.69
658.183	40.69
658.215	-0.31
658.248	-10.31
658.28	5.69
658.313	8.69
658.345	17.69
658.378	4.69
658.41	-6.31
658.443	35.69
658.475	3.69
658.508	3.69
658.54	-1.31
658.573	-4.31
658.605	7.69
658.638	-12.31
658.67	-2.31
658.703	12.69
658.735	7.69
658.768	10.69
658.8	14.69
658.833	19.69
658.865	15.69
658.898	7.69
658.93	-20.31
658.963	2.69
658.995	-8.31
659.028	8.69
659.06	4.69
659.092	-1.31
659.125	-11.31
659.157	9.69
659.19	-5.31
659.222	0.69
659.255	-0.31
659.287	-5.31
659.32	-13.31
659.352	8.69
659.384	8.69
659.417	-3.31
659.449	5.69
659.482	0.69
659.514	-1.31
659.546	3.69
659.579	0.69
659.611	14.69
659.644	10.69
659.676	-0.31
659.708	-8.31
659.741	-8.31
659.773	2.69
659.806	4.69
659.838	7.69
659.87	5.69
659.903	-1.31
659.935	3.69
659.967	10.69
660	12.69
660.032	-13.31
660.065	5.69
660.097	3.69
660.129	3.69
660.162	-16.31
660.194	14.69
660.226	3.69
660.259	-0.31
660.291	4.69
660.323	-4.31
660.356	9.69
660.388	-0.31
660.42	11.69
660.453	10.69
660.485	13.69
660.517	16.69
660.55	3.69
660.582	-12.31
660.614	19.69
660.647	6.69
660.679	0.69
660.711	11.69
660.743	1.69
660.776	-2.31
660.808	-0.31
660.84	1.69
660.873	4.69
660.905	-9.31
660.937	6.69
660.969	5.69
661.002	2.69
661.034	17.69
661.066	2.69
661.099	10.69
661.131	15.69
661.163	11.69
661.195	11.69
661.228	13.69
661.26	6.69
661.292	-8.31
661.324	12.69
661.357	21.69
661.389	6.69
661.421	1.69
661.453	0.69
661.485	9.69
661.518	-2.31
661.55	-11.31
661.582	-4.31
661.614	-4.31
661.647	21.69
661.679	13.69
661.711	8.69
661.743	-15.31
661.775	-3.31
661.808	24.69
661.84	7.69
661.872	10.69
661.904	15.69
661.936	0.69
661.969	-9.31
662.001	7.69
662.033	10.69
662.065	-11.31
662.097	15.69
662.129	10.69
662.162	7.69
662.194	0.69
662.226	-7.31
662.258	3.69
662.29	15.69
662.322	-6.31
662.355	-6.31
662.387	19.69
662.419	-0.31
662.451	2.69
662.483	12.69
662.515	16.69
662.547	-5.31
662.58	-18.31
662.612	4.69
662.644	-16.31
662.676	2.69
662.708	20.69
662.74	13.69
662.772	19.69
662.804	8.69
662.836	21.69
662.869	1.69
662.901	18.69
662.933	7.69
662.965	21.69
662.997	11.69
663.029	-1.31
663.061	1.69
663.093	-1.31
663.125	1.69
663.157	14.69
663.189	19.69
663.221	16.69
663.254	14.69
663.286	9.69
663.318	7.69
663.35	-7.31
663.382	2.69
663.414	-3.31
663.446	-7.31
663.478	-7.31
663.51	30.69
663.542	-1.31
663.574	12.69
663.606	0.69
663.638	-20.31
663.67	-0.31
663.702	0.69
663.734	12.69
663.766	16.69
663.798	5.69
663.83	10.69
663.862	18.69
663.894	22.69
663.926	-1.31
663.958	14.69
663.99	7.69
664.022	-7.31
664.054	3.69
664.086	-13.31
664.118	0.69
664.15	2.69
664.182	11.69
664.214	8.69
664.246	20.69
664.278	5.69
664.31	25.69
664.342	4.69
664.374	0.69
664.406	10.69
664.438	-8.31
664.47	4.69
664.502	-0.31
664.534	-16.31
664.566	-0.31
664.598	9.69
664.63	8.69
664.662	16.69
664.693	4.69
664.725	-20.31
664.757	-3.31
664.789	-1.31
664.821	-7.31
664.853	7.69
664.885	-1.31
664.917	1.69
664.949	7.69
664.981	8.69
665.013	-18.31
665.045	-11.31
665.076	-11.31
665.108	6.69
665.14	-4.31
665.172	12.69
665.204	5.69
665.236	-9.31
665.268	17.69
665.3	14.69
665.331	-3.31
665.363	7.69
665.395	-3.31
665.427	5.69
665.459	12.69
665.491	13.69
665.523	8.69
665.555	8.69
665.586	-1.31
665.618	-4.31
665.65	-3.31
665.682	15.69
665.714	7.69
665.746	2.69
665.777	4.69
665.809	-4.31
665.841	7.69
665.873	-15.31
665.905	1.69
665.937	3.69
665.968	5.69
666	3.69
666.032	10.69
666.064	-4.31
666.096	-4.31
666.127	17.69
666.159	21.69
666.191	12.69
666.223	-4.31
666.255	2.69
666.286	-15.31
666.318	-1.31
666.35	10.69
666.382	15.69
666.413	6.69
666.445	-4.31
666.477	-11.31
666.509	-14.31
666.54	6.69
666.572	-6.31
666.604	-6.31
666.636	4.69
666.667	6.69
666.699	35.69
666.731	20.69
666.763	6.69
666.794	-14.31
666.826	3.69
666.858	-2.31
666.89	4.69
666.921	4.69
666.953	6.69
666.985	8.69
667.017	15.69
667.048	12.69
667.08	-11.31
667.112	-10.31
667.143	-3.31
667.175	-8.31
667.207	-3.31
667.238	3.69
667.27	3.69
667.302	10.69
667.334	-23.31
667.365	2.69
667.397	-2.31
667.429	-14.31
667.46	14.69
667.492	16.69
667.524	3.69
667.555	-17.31
667.587	-2.31
667.619	12.69
667.65	-7.31
667.682	11.69
667.714	9.69
667.745	-8.31
667.777	7.69
667.808	15.69
667.84	17.69
667.872	4.69
667.903	40.69
667.935	1.69
667.967	-5.31
667.998	6.69
668.03	6.69
668.061	16.69
668.093	14.69
668.125	15.69
668.156	-11.31
668.188	0.69
668.22	9.69
668.251	30.69
668.283	17.69
668.314	17.69
668.346	-4.31
668.377	9.69
668.409	-13.31
668.441	3.69
668.472	21.69
668.504	6.69
668.535	11.69
668.567	30.69
668.599	6.69
668.63	6.69
668.662	8.69
668.693	11.69
668.725	6.69
668.756	2.69
668.788	1.69
668.819	-5.31
668.851	-5.31
668.882	8.69
668.914	-6.31
668.946	0.69
668.977	-17.31
669.009	-4.31
669.04	-24.31
669.072	13.69
669.103	5.69
669.135	0.69
669.166	1.69
669.198	-9.31
669.229	16.69
669.261	16.69
669.292	14.69
669.324	-12.31
669.355	4.69
669.387	-1.31
669.418	9.69
669.45	-3.31
669.481	5.69
669.513	9.69
669.544	10.69
669.576	-6.31
669.607	23.69
669.639	7.69
669.67	-0.31
669.701	20.69
669.733	-5.31
669.764	-4.31
669.796	1.69
669.827	-5.31
669.859	3.69
669.89	18.69
669.922	17.69
669.953	10.69
669.985	8.69
670.016	17.69
670.047	10.69
670.079	-3.31
670.11	21.69
670.142	6.69
670.173	-5.31
670.204	-0.31
670.236	18.69
670.267	-10.31
670.299	2.69
670.33	19.69
670.362	29.69
670.393	-4.31
670.424	12.69
670.456	-15.31
670.487	-3.31
670.518	7.69
670.55	1.69
670.581	-3.31
670.613	8.69
670.644	9.69
670.675	-5.31
670.707	-13.31
670.738	11.69
670.769	12.69
670.801	5.69
670.832	8.69
670.864	-1.31
670.895	4.69
670.926	7.69
670.958	4.69
670.989	7.69
671.02	-12.31
671.052	0.69
671.083	7.69
671.114	3.69
671.146	9.69
671.177	9.69
671.208	-25.31
671.24	-10.31
671.271	-10.31
671.302	3.69
671.333	-3.31
671.365	-10.31
671.396	-3.31
671.427	11.69
671.459	0.69
671.49	12.69
671.521	-2.31
671.553	-3.31
671.584	4.69
671.615	7.69
671.646	13.69
671.678	14.69
671.709	7.69
671.74	-13.31
671.771	16.69
671.803	4.69
671.834	12.69
671.865	-1.31
671.896	4.69
671.928	-0.31
671.959	7.69
671.99	7.69
672.021	-1.31
672.053	12.69
672.084	11.69
672.115	-5.31
672.146	10.69
672.178	-16.31
672.209	-8.31
672.24	7.69
672.271	29.69
672.303	10.69
672.334	-5.31
672.365	3.69
672.396	-7.31
672.427	-7.31
672.459	6.69
672.49	30.69
672.521	13.69
672.552	3.69
672.583	19.69
672.615	7.69
672.646	10.69
672.677	3.69
672.708	-2.31
672.739	9.69
672.77	10.69
672.802	3.69
672.833	8.69
672.864	-3.31
672.895	-8.31
672.926	5.69
672.957	-9.31
672.989	1.69
673.02	-2.31
673.051	21.69
673.082	21.69
673.113	6.69
673.144	14.69
673.175	4.69
673.206	0.69
673.238	-7.31
673.269	-13.31
673.3	3.69
673.331	8.69
673.362	5.69
673.393	10.69
673.424	19.69
673.455	20.69
673.487	1.69
673.518	22.69
673.549	3.69
673.58	2.69
673.611	-4.31
673.642	8.69
673.673	-12.31
673.704	3.69
673.735	-11.31
673.766	-3.31
673.797	-8.31
673.828	1.69
673.86	2.69
673.891	3.69
673.922	-0.31
673.953	-24.31
673.984	21.69
674.015	15.69
674.046	-7.31
674.077	15.69
674.108	-1.31
674.139	-4.31
674.17	13.69
674.201	18.69
674.232	10.69
674.263	-13.31
674.294	-8.31
674.325	-28.31
674.356	-1.31
674.387	18.69
674.418	7.69
674.449	20.69
674.48	3.69
674.511	12.69
674.542	29.69
674.573	-2.31
674.604	19.69
674.635	4.69
674.666	14.69
674.697	1.69
674.728	7.69
674.759	9.69
674.79	-8.31
674.821	-11.31
674.852	-4.31
674.883	8.69
674.914	6.69
674.945	10.69
674.976	11.69
675.007	-4.31
675.038	-1.31
675.069	-12.31
675.1	8.69
675.131	-18.31
675.162	-15.31
675.193	-2.31
675.224	-11.31
675.254	5.69
675.285	1.69
675.316	8.69
675.347	9.69
675.378	-17.31
675.409	-0.31
675.44	15.69
675.471	19.69
675.502	-2.31
675.533	-0.31
675.564	12.69
675.595	-3.31
675.625	15.69
675.656	7.69
675.687	-2.31
675.718	-8.31
675.749	8.69
675.78	19.69
675.811	10.69
675.842	-4.31
675.873	-4.31
675.903	-2.31
675.934	19.69
675.965	6.69
675.996	-2.31
676.027	-5.31
676.058	-12.31
676.089	-29.31
676.119	6.69
676.15	-4.31
676.181	0.69
676.212	1.69
676.243	12.69
676.274	4.69
676.304	27.69
676.335	-7.31
676.366	15.69
676.397	3.69
676.428	9.69
676.459	7.69
676.489	8.69
676.52	19.69
676.551	-1.31
676.582	1.69
676.613	7.69
676.643	-3.31
676.674	24.69
676.705	-2.31
676.736	1.69
676.767	16.69
676.797	-3.31
676.828	3.69
676.859	-9.31
676.89	-0.31
676.92	10.69
676.951	3.69
676.982	3.69
677.013	-2.31
677.044	12.69
677.074	7.69
677.105	-11.31
677.136	14.69
677.167	-2.31
677.197	16.69
677.228	26.69
677.259	11.69
677.289	10.69
677.32	0.69
677.351	2.69
677.382	-2.31
677.412	-1.31
677.443	16.69
677.474	2.69
677.505	-11.31
677.535	9.69
677.566	-8.31
677.597	-3.31
677.627	12.69
677.658	-10.31
677.689	-4.31
677.72	-7.31
677.75	1.69
677.781	3.69
677.812	0.69
677.842	10.69
677.873	6.69
677.904	9.69
677.934	11.69
677.965	-5.31
677.996	9.69
678.026	9.69
678.057	-4.31
678.088	-10.31
678.118	-12.31
678.149	-12.31
678.18	0.69
678.21	-0.31
678.241	-5.31
678.272	-10.31
678.302	11.69
678.333	9.69
678.363	15.69
678.394	2.69
678.425	7.69
678.455	4.69
678.486	-0.31
678.517	11.69
678.547	4.69
678.578	15.69
678.608	3.69
678.639	12.69
678.67	6.69
678.7	-3.31
678.731	5.69
678.761	4.69
678.792	7.69
678.823	9.69
678.853	3.69
678.884	-3.31
678.914	3.69
678.945	2.69
678.975	-1.31
679.006	0.69
679.037	-2.31
679.067	13.69
679.098	16.69
679.128	0.69
679.159	13.69
679.189	8.69
679.22	1.69
679.25	-3.31
679.281	2.69
679.312	-9.31
679.342	7.69
679.373	40.69
679.403	17.69
679.434	14.69
679.464	0.69
679.495	-3.31
679.525	6.69
679.556	20.69
679.586	9.69
679.617	12.69
679.647	3.69
679.678	1.69
679.708	10.69
679.739	-7.31
679.769	8.69
679.8	-6.31
679.83	-7.31
679.861	22.69
679.891	2.69
679.922	-14.31
679.952	7.69
679.983	14.69
680.013	18.69
680.044	-14.31
680.074	28.69
680.105	10.69
680.135	-0.31
680.165	-3.31
680.196	16.69
680.226	7.69
680.257	3.69
680.287	2.69
680.318	5.69
680.348	-3.31
680.379	10.69
680.409	14.69
680.439	3.69
680.47	-7.31
680.5	7.69
680.531	9.69
680.561	0.69
680.592	8.69
680.622	21.69
680.652	10.69
680.683	9.69
680.713	-6.31
680.744	-8.31
680.774	-3.31
680.804	35.69
680.835	0.69
680.865	-8.31
680.896	19.69
680.926	6.69
680.956	20.69
680.987	2.69
681.017	7.69
681.047	0.69
681.078	-8.31
681.108	2.69
681.139	11.69
681.169	1.69
681.199	1.69
681.23	13.69
681.26	1.69
681.29	-2.31
681.321	-13.31
681.351	-3.31
681.381	-15.31
681.412	11.69
681.442	3.69
681.472	3.69
681.503	0.69
681.533	0.69
681.563	-1.31
681.594	-7.31
681.624	13.69
681.654	-6.31
681.685	4.69
681.715	11.69
681.745	0.69
681.775	-5.31
681.806	-3.31
681.836	-8.31
681.866	-2.31
681.897	-3.31
681.927	5.69
681.957	-17.31
681.987	17.69
682.018	3.69
682.048	15.69
682.078	5.69
682.109	0.69
682.139	9.69
682.169	8.69
682.199	-1.31
682.23	-1.31
682.26	11.69
682.29	-5.31
682.32	5.69
682.351	2.69
682.381	4.69
682.411	0.69
682.441	2.69
682.472	0.69
682.502	-7.31
682.532	3.69
682.562	3.69
682.592	6.69
682.623	15.69
682.653	11.69
682.683	-11.31
682.713	15.69
682.743	9.69
682.774	3.69
682.804	-2.31
682.834	6.69
682.864	-19.31
682.894	2.69
682.925	4.69
682.955	-6.31
682.985	2.69
683.015	7.69
683.045	15.69
683.076	-13.31
683.106	-0.31
683.136	-8.31
683.166	-13.31
683.196	4.69
683.226	-2.31
683.257	-5.31
683.287	-2.31
683.317	3.69
683.347	-11.31
683.377	-13.31
683.407	-0.31
683.437	23.69
683.468	13.69
683.498	-19.31
683.528	-3.31
683.558	6.69
683.588	-6.31
683.618	-19.31
683.648	5.69
683.678	14.69
683.708	29.69
683.739	1.69
683.769	-7.31
683.799	-0.31
683.829	-4.31
683.859	11.69
683.889	11.69
683.919	-0.31
683.949	7.69
683.979	-11.31
684.009	10.69
684.039	11.69
684.07	-6.31
684.1	10.69
684.13	11.69
684.16	10.69
684.19	-6.31
684.22	-0.31
684.25	6.69
684.28	1.69
684.31	26.69
684.34	-5.31
684.37	14.69
684.4	-6.31
684.43	7.69
684.46	3.69
684.49	-1.31
684.52	-9.31
684.55	-2.31
684.58	4.69
684.61	-9.31
684.64	3.69
684.67	1.69
684.7	10.69
684.73	26.69
684.76	-2.31
684.79	15.69
684.82	27.69
684.85	-3.31
684.88	11.69
684.91	19.69
684.94	10.69
684.97	-11.31
685	15.69
685.03	0.69
685.06	2.69
685.09	12.69
685.12	19.69
685.15	-12.31
685.18	-0.31
685.21	3.69
685.24	8.69
685.27	26.69
685.3	5.69
685.33	10.69
685.36	7.69
685.39	4.69
685.42	3.69
685.45	8.69
685.48	3.69
685.51	8.69
685.54	17.69
685.569	10.69
685.599	6.69
685.629	13.69
685.659	3.69
685.689	8.69
685.719	2.69
685.749	-5.31
685.779	9.69
685.809	27.69
685.839	8.69
685.869	-7.31
685.898	14.69
685.928	12.69
685.958	8.69
685.988	15.69
686.018	-3.31
686.048	13.69
686.078	22.69
686.108	18.69
686.137	11.69
686.167	14.69
686.197	3.69
686.227	15.69
686.257	29.69
686.287	18.69
686.317	6.69
686.346	-17.31
686.376	-11.31
686.406	7.69
686.436	7.69
686.466	7.69
686.496	15.69
686.525	7.69
686.555	0.69
686.585	17.69
686.615	34.69
686.645	14.69
686.675	5.69
686.704	7.69
686.734	3.69
686.764	17.69
686.794	22.69
686.824	6.69
686.853	10.69
686.883	28.69
686.913	24.69
686.943	10.69
686.973	8.69
687.002	-0.31
687.032	9.69
687.062	-6.31
687.092	23.69
687.121	7.69
687.151	11.69
687.181	2.69
687.211	19.69
687.24	4.69
687.27	10.69
687.3	8.69
687.33	16.69
687.359	-4.31
687.389	14.69
687.419	8.69
687.449	-3.31
687.478	10.69
687.508	-9.31
687.538	7.69
687.568	23.69
687.597	-9.31
687.627	8.69
687.657	14.69
687.686	6.69
687.716	9.69
687.746	2.69
687.776	7.69
687.805	11.69
687.835	3.69
687.865	18.69
687.894	26.69
687.924	7.69
687.954	8.69
687.983	-9.31
688.013	10.69
688.043	22.69
688.072	8.69
688.102	14.69
688.132	7.69
688.161	-7.31
688.191	-1.31
688.221	26.69
688.25	3.69
688.28	11.69
688.31	10.69
688.339	22.69
688.369	-8.31
688.399	16.69
688.428	0.69
688.458	2.69
688.488	-6.31
688.517	8.69
688.547	6.69
688.576	41.69
688.606	17.69
688.636	7.69
688.665	12.69
688.695	15.69
688.725	14.69
688.754	5.69
688.784	9.69
688.813	19.69
688.843	10.69
688.873	9.69
688.902	-10.31
688.932	-16.31
688.961	-6.31
688.991	15.69
689.02	8.69
689.05	-6.31
689.08	20.69
689.109	12.69
689.139	4.69
689.168	15.69
689.198	9.69
689.227	-8.31
689.257	1.69
689.287	10.69
689.316	-9.31
689.346	-3.31
689.375	-3.31
689.405	18.69
689.434	-10.31
689.464	11.69
689.493	0.69
689.523	-4.31
689.552	17.69
689.582	7.69
689.611	15.69
689.641	18.69
689.67	13.69
689.7	-1.31
689.73	10.69
689.759	8.69
689.789	16.69
689.818	-0.31
689.848	2.69
689.877	30.69
689.906	7.69
689.936	-16.31
689.965	13.69
689.995	5.69
690.024	6.69
690.054	0.69
690.083	4.69
690.113	0.69
690.142	7.69
690.172	-2.31
690.201	11.69
690.231	10.69
690.26	5.69
690.29	5.69
690.319	6.69
690.348	9.69
690.378	13.69
690.407	11.69
690.437	10.69
690.466	6.69
690.496	5.69
690.525	9.69
690.555	-8.31
690.584	0.69
690.613	8.69
690.643	15.69
690.672	18.69
690.702	19.69
690.731	8.69
690.76	23.69
690.79	-9.31
690.819	-2.31
690.849	16.69
690.878	4.69
690.907	7.69
690.937	31.69
690.966	7.69
690.996	7.69
691.025	5.69
691.054	2.69
691.084	1.69
691.113	9.69
691.142	12.69
691.172	11.69
691.201	23.69
691.23	-11.31
691.26	6.69
691.289	10.69
691.319	1.69
691.348	14.69
691.377	26.69
691.407	-1.31
691.436	21.69
691.465	11.69
691.495	-2.31
691.524	-1.31
691.553	8.69
691.583	7.69
691.612	14.69
691.641	1.69
691.67	3.69
691.7	4.69
691.729	7.69
691.758	18.69
691.788	14.69
691.817	-0.31
691.846	1.69
691.876	11.69
691.905	9.69
691.934	-3.31
691.963	12.69
691.993	3.69
692.022	1.69
692.051	-5.31
692.081	6.69
692.11	24.69
692.139	-1.31
692.168	-4.31
692.198	13.69
692.227	19.69
692.256	4.69
692.285	3.69
692.315	3.69
692.344	-0.31
692.373	-5.31
692.402	-2.31
692.432	-3.31
692.461	4.69
692.49	-4.31
692.519	4.69
692.548	5.69
692.578	16.69
692.607	-11.31
692.636	-8.31
692.665	25.69
692.694	12.69
692.724	14.69
692.753	4.69
692.782	0.69
692.811	-1.31
692.84	-13.31
692.87	6.69
692.899	1.69
692.928	7.69
692.957	25.69
692.986	10.69
693.016	21.69
693.045	18.69
693.074	20.69
693.103	11.69
693.132	22.69
693.161	14.69
693.191	4.69
693.22	-5.31
693.249	19.69
693.278	12.69
693.307	21.69
693.336	-0.31
693.365	1.69
693.395	-8.31
693.424	15.69
693.453	16.69
693.482	4.69
693.511	18.69
693.54	4.69
693.569	18.69
693.598	10.69
693.628	9.69
693.657	10.69
693.686	16.69
693.715	14.69
693.744	9.69
693.773	24.69
693.802	5.69
693.831	-1.31
693.86	20.69
693.889	-13.31
693.919	14.69
693.948	25.69
693.977	4.69
694.006	-8.31
694.035	1.69
694.064	8.69
694.093	-3.31
694.122	5.69
694.151	12.69
694.18	10.69
694.209	31.69
694.238	15.69
694.267	19.69
694.296	16.69
694.325	15.69
694.354	20.69
694.383	24.69
694.412	-2.31
694.441	-2.31
694.471	0.69
694.5	7.69
694.529	26.69
694.558	35.69
694.587	24.69
694.616	1.69
694.645	10.69
694.674	7.69
694.703	29.69
694.732	22.69
694.761	15.69
694.79	15.69
694.819	-9.31
694.848	6.69
694.877	13.69
694.906	33.69
694.935	10.69
694.963	22.69
694.992	20.69
695.021	-11.31
695.05	11.69
695.079	16.69
695.108	0.69
695.137	13.69
695.166	28.69
695.195	-1.31
695.224	18.69
695.253	9.69
695.282	-0.31
695.311	19.69
695.34	-1.31
695.369	2.69
695.398	13.69
695.427	20.69
695.456	8.69
695.485	1.69
695.513	6.69
695.542	5.69
695.571	18.69
695.6	29.69
695.629	13.69
695.658	11.69
695.687	8.69
695.716	8.69
695.745	19.69
695.774	8.69
695.802	5.69
695.831	24.69
695.86	34.69
695.889	15.69
695.918	7.69
695.947	6.69
695.976	4.69
696.005	17.69
696.033	14.69
696.062	18.69
696.091	16.69
696.12	7.69
696.149	20.69
696.178	19.69
696.207	16.69
696.235	0.69
696.264	8.69
696.293	18.69
696.322	13.69
696.351	1.69
696.38	2.69
696.408	21.69
696.437	12.69
696.466	17.69
696.495	14.69
696.524	17.69
696.553	14.69
696.581	13.69
696.61	7.69
696.639	3.69
696.668	11.69
696.697	2.69
696.725	15.69
696.754	14.69
696.783	9.69
696.812	2.69
696.84	9.69
696.869	14.69
696.898	11.69
696.927	9.69
696.956	21.69
696.984	9.69
697.013	-3.31
697.042	9.69
697.071	8.69
697.099	13.69
697.128	12.69
697.157	9.69
697.186	11.69
697.214	4.69
697.243	8.69
697.272	12.69
697.301	9.69
697.329	27.69
697.358	22.69
697.387	15.69
697.415	11.69
697.444	9.69
697.473	1.69
697.502	6.69
697.53	14.69
697.559	-6.31
697.588	16.69
697.616	5.69
697.645	5.69
697.674	24.69
697.703	12.69
697.731	11.69
697.76	16.69
697.789	9.69
697.817	14.69
697.846	22.69
697.875	7.69
697.903	20.69
697.932	14.69
697.961	4.69
697.989	14.69
698.018	10.69
698.047	7.69
698.075	20.69
698.104	7.69
698.133	6.69
698.161	18.69
698.19	13.69
698.218	1.69
698.247	10.69
698.276	-4.31
698.304	20.69
698.333	5.69
698.362	7.69
698.39	3.69
698.419	11.69
698.447	-16.31
698.476	-6.31
698.505	14.69
698.533	11.69
698.562	8.69
698.591	9.69
698.619	11.69
698.648	1.69
698.676	4.69
698.705	0.69
698.733	2.69
698.762	7.69
698.791	-5.31
698.819	0.69
698.848	-0.31
698.876	11.69
698.905	22.69
698.933	14.69
698.962	0.69
698.991	15.69
699.019	40.69
699.048	18.69
699.076	34.69
699.105	-0.31
699.133	12.69
699.162	12.69
699.19	31.69
699.219	15.69
699.248	10.69
699.276	8.69
699.305	-2.31
699.333	15.69
699.362	4.69
699.39	40.69
699.419	-2.31
699.447	23.69
699.476	9.69
699.504	2.69
699.533	15.69
699.561	6.69
699.59	-3.31
699.618	-2.31
699.647	20.69
699.675	6.69
699.704	13.69
699.732	1.69
699.761	21.69
699.789	0.69
699.818	8.69
699.846	12.69
699.874	3.69
699.903	2.69
699.931	-6.31
699.96	15.69
699.988	8.69
700.017	10.69
700.045	8.69
700.074	10.69
700.102	9.69
700.13	10.69
700.159	7.69
700.187	5.69
700.216	0.69
700.244	-15.31
700.273	2.69
700.301	8.69
700.329	7.69
700.358	42.69
700.386	-6.31
700.415	2.69
700.443	6.69
700.472	6.69
700.5	18.69
700.528	8.69
700.557	11.69
700.585	5.69
700.614	4.69
700.642	23.69
700.67	26.69
700.699	19.69
700.727	12.69
700.755	17.69
700.784	23.69
700.812	7.69
700.841	21.69
700.869	4.69
700.897	3.69
700.926	3.69
700.954	-3.31
700.982	14.69
701.011	15.69
701.039	34.69
701.067	19.69
701.096	9.69
701.124	8.69
701.152	8.69
701.181	7.69
701.209	12.69
701.237	4.69
701.266	4.69
701.294	6.69
701.322	7.69
701.351	4.69
701.379	3.69
701.407	-16.31
701.435	13.69
701.464	22.69
701.492	23.69
701.52	14.69
701.549	2.69
701.577	8.69
701.605	6.69
701.634	8.69
701.662	12.69
701.69	1.69
701.718	2.69
701.747	3.69
701.775	0.69
701.803	-0.31
701.831	-1.31
701.86	-0.31
701.888	21.69
701.916	9.69
701.944	8.69
701.973	-4.31
702.001	-0.31
702.029	-1.31
702.057	-14.31
702.086	-17.31
702.114	-5.31
702.142	-2.31
702.17	8.69
702.199	12.69
702.227	9.69
702.255	0.69
702.283	-0.31
702.311	-1.31
702.34	0.69
702.368	3.69
702.396	7.69
702.424	6.69
702.452	-1.31
702.481	13.69
702.509	-11.31
702.537	25.69
702.565	24.69
702.593	-7.31
702.621	7.69
702.65	13.69
702.678	16.69
702.706	20.69
702.734	4.69
702.762	12.69
702.79	-1.31
702.819	8.69
702.847	-9.31
702.875	1.69
702.903	5.69
702.931	6.69
702.959	9.69
702.988	15.69
703.016	-3.31
703.044	5.69
703.072	3.69
703.1	3.69
703.128	16.69
703.156	6.69
703.184	-1.31
703.212	1.69
703.241	18.69
703.269	6.69
703.297	23.69
703.325	6.69
703.353	3.69
703.381	10.69
703.409	12.69
703.437	11.69
703.465	1.69
703.493	2.69
703.522	16.69
703.55	0.69
703.578	19.69
703.606	-3.31
703.634	-3.31
703.662	-2.31
703.69	3.69
703.718	18.69
703.746	9.69
703.774	-5.31
703.802	2.69
703.83	-9.31
703.858	3.69
703.886	-3.31
703.914	2.69
703.942	20.69
703.97	6.69
703.998	10.69
704.027	27.69
704.055	12.69
704.083	-1.31
704.111	11.69
704.139	2.69
704.167	3.69
704.195	11.69
704.223	4.69
704.251	8.69
704.279	16.69
704.307	15.69
704.335	-6.31
704.363	7.69
704.391	-11.31
704.419	-6.31
704.447	-1.31
704.475	-4.31
704.503	-7.31
704.531	12.69
704.558	9.69
704.586	8.69
704.614	11.69
704.642	8.69
704.67	-7.31
704.698	7.69
704.726	6.69
704.754	0.69
704.782	5.69
704.81	-3.31
704.838	23.69
704.866	1.69
704.894	-9.31
704.922	0.69
704.95	12.69
704.978	1.69
705.006	16.69
705.034	21.69
705.061	17.69
705.089	3.69
705.117	-3.31
705.145	9.69
705.173	10.69
705.201	11.69
705.229	24.69
705.257	-8.31
705.285	-9.31
705.313	-14.31
705.34	1.69
705.368	10.69
705.396	0.69
705.424	-1.31
705.452	-4.31
705.48	2.69
705.508	-8.31
705.536	15.69
705.563	4.69
705.591	18.69
705.619	6.69
705.647	-1.31
705.675	7.69
705.703	15.69
705.731	-7.31
705.758	6.69
705.786	26.69
705.814	28.69
705.842	10.69
705.87	21.69
705.898	16.69
705.925	3.69
705.953	17.69
705.981	5.69
706.009	17.69
706.037	1.69
706.065	2.69
706.092	2.69
706.12	16.69
706.148	0.69
706.176	4.69
706.204	1.69
706.231	10.69
706.259	-9.31
706.287	4.69
706.315	6.69
706.342	7.69
706.37	8.69
706.398	0.69
706.426	4.69
706.454	7.69
706.481	30.69
706.509	3.69
706.537	1.69
706.565	4.69
706.592	28.69
706.62	14.69
706.648	21.69
706.676	-13.31
706.703	12.69
706.731	-1.31
706.759	2.69
706.787	14.69
706.814	2.69
706.842	6.69
706.87	-4.31
706.897	18.69
706.925	-2.31
706.953	8.69
706.981	16.69
707.008	13.69
707.036	2.69
707.064	-16.31
707.091	-4.31
707.119	17.69
707.147	2.69
707.174	-5.31
707.202	5.69
707.23	6.69
707.258	9.69
707.285	10.69
707.313	-15.31
707.341	-1.31
707.368	-3.31
707.396	-6.31
707.424	18.69
707.451	9.69
707.479	12.69
707.507	5.69
707.534	-13.31
707.562	-13.31
707.59	-7.31
707.617	-5.31
707.645	4.69
707.672	-0.31
707.7	-6.31
707.728	12.69
707.755	12.69
707.783	-0.31
707.811	7.69
707.838	-5.31
707.866	6.69
707.893	7.69
707.921	-12.31
707.949	-3.31
707.976	2.69
708.004	1.69
708.031	4.69
708.059	-4.31
708.087	10.69
708.114	6.69
708.142	0.69
708.169	-0.31
708.197	2.69
708.225	-0.31
708.252	0.69
708.28	5.69
708.307	4.69
708.335	8.69
708.362	-5.31
708.39	-6.31
708.418	7.69
708.445	-4.31
708.473	-8.31
708.5	-6.31
708.528	6.69
708.555	6.69
708.583	-1.31
708.61	-5.31
708.638	4.69
708.665	-7.31
708.693	0.69
708.72	-0.31
708.748	-12.31
708.776	-4.31
708.803	4.69
708.831	13.69
708.858	19.69
708.886	8.69
708.913	10.69
708.941	2.69
708.968	0.69
708.996	3.69
709.023	36.69
709.051	4.69
709.078	-5.31
709.105	7.69
709.133	-2.31
709.16	-1.31
709.188	19.69
709.215	2.69
709.243	10.69
709.27	6.69
709.298	-2.31
709.325	-7.31
709.353	-2.31
709.38	8.69
709.408	25.69
709.435	14.69
709.462	9.69
709.49	-0.31
709.517	-3.31
709.545	-8.31
709.572	3.69
709.6	2.69
709.627	7.69
709.655	3.69
709.682	2.69
709.709	-2.31
709.737	-14.31
709.764	-13.31
709.792	7.69
709.819	7.69
709.846	3.69
709.874	15.69
709.901	0.69
709.929	27.69
709.956	1.69
709.983	-7.31
710.011	0.69
710.038	-5.31
710.066	6.69
710.093	14.69
710.12	19.69
710.148	19.69
710.175	12.69
710.202	-19.31
710.23	4.69
710.257	7.69
710.284	14.69
710.312	3.69
710.339	-0.31
710.366	-3.31
710.394	8.69
710.421	1.69
710.448	2.69
710.476	-4.31
710.503	5.69
710.53	12.69
710.558	17.69
710.585	11.69
710.612	2.69
710.64	8.69
710.667	12.69
710.694	-11.31
710.722	0.69
710.749	-0.31
710.776	4.69
710.804	23.69
710.831	-0.31
710.858	-1.31
710.885	12.69
710.913	-7.31
710.94	26.69
710.967	23.69
710.995	10.69
711.022	5.69
711.049	4.69
711.076	-16.31
711.104	3.69
711.131	2.69
711.158	-4.31
711.185	4.69
711.213	-3.31
711.24	1.69
711.267	3.69
711.294	12.69
711.322	11.69
711.349	-4.31
711.376	-7.31
711.403	0.69
711.431	-8.31
711.458	-11.31
711.485	2.69
711.512	-8.31
711.54	2.69
711.567	-0.31
711.594	-6.31
711.621	-15.31
711.648	-3.31
711.676	2.69
711.703	14.69
711.73	0.69
711.757	16.69
711.784	15.69
711.812	5.69
711.839	-4.31
711.866	7.69
711.893	-6.31
711.92	8.69
711.947	11.69
711.975	27.69
712.002	-12.31
712.029	21.69
712.056	11.69
712.083	4.69
712.11	-5.31
712.138	20.69
712.165	19.69
712.192	8.69
712.219	-4.31
712.246	-17.31
712.273	-8.31
712.3	11.69
712.328	18.69
712.355	11.69
712.382	1.69
712.409	10.69
712.436	9.69
712.463	14.69
712.49	6.69
712.517	16.69
712.544	1.69
712.572	2.69
712.599	-9.31
712.626	3.69
712.653	-4.31
712.68	0.69
712.707	11.69
712.734	6.69
712.761	-4.31
712.788	11.69
712.815	5.69
712.842	2.69
712.87	15.69
712.897	4.69
712.924	-0.31
712.951	-1.31
712.978	9.69
713.005	20.69
713.032	10.69
713.059	6.69
713.086	12.69
713.113	8.69
713.14	3.69
713.167	11.69
713.194	23.69
713.221	6.69
713.248	8.69
713.275	0.69
713.302	-5.31
713.329	1.69
713.356	28.69
713.383	15.69
713.41	11.69
713.437	-2.31
713.464	9.69
713.491	6.69
713.518	16.69
713.545	6.69
713.572	-3.31
713.599	19.69
713.626	-9.31
713.653	13.69
713.68	0.69
713.707	2.69
713.734	22.69
713.761	6.69
713.788	-8.31
713.815	15.69
713.842	5.69
713.869	6.69
713.896	9.69
713.923	14.69
713.95	6.69
713.977	-1.31
714.004	6.69
714.031	-6.31
714.058	7.69
714.085	14.69
714.112	19.69
714.139	4.69
714.165	-3.31
714.192	7.69
714.219	20.69
714.246	1.69
714.273	7.69
714.3	-5.31
714.327	3.69
714.354	9.69
714.381	8.69
714.408	0.69
714.435	-3.31
714.461	0.69
714.488	17.69
714.515	-0.31
714.542	11.69
714.569	-4.31
714.596	-5.31
714.623	10.69
714.65	0.69
714.677	-1.31
714.703	7.69
714.73	11.69
714.757	16.69
714.784	12.69
714.811	-1.31
714.838	15.69
714.865	5.69
714.891	2.69
714.918	16.69
714.945	-6.31
714.972	2.69
714.999	16.69
715.026	0.69
715.052	13.69
715.079	-5.31
715.106	15.69
715.133	13.69
715.16	-9.31
715.187	13.69
715.213	16.69
715.24	-7.31
715.267	1.69
715.294	6.69
715.321	2.69
715.347	-1.31
715.374	3.69
715.401	-4.31
715.428	13.69
715.455	19.69
715.481	1.69
715.508	20.69
715.535	2.69
715.562	32.69
715.588	14.69
715.615	4.69
715.642	3.69
715.669	12.69
715.695	-9.31
715.722	4.69
715.749	17.69
715.776	4.69
715.802	15.69
715.829	10.69
715.856	-9.31
715.883	12.69
715.909	-0.31
715.936	4.69
715.963	13.69
715.99	-8.31
716.016	-2.31
716.043	4.69
716.07	-6.31
716.096	-4.31
716.123	2.69
716.15	7.69
716.177	6.69
716.203	13.69
716.23	9.69
716.257	4.69
716.283	19.69
716.31	19.69
716.337	7.69
716.363	14.69
716.39	4.69
716.417	15.69
716.443	0.69
716.47	14.69
716.497	8.69
716.523	9.69
716.55	9.69
716.577	19.69
716.603	15.69
716.63	0.69
716.657	12.69
716.683	3.69
716.71	7.69
716.737	14.69
716.763	7.69
716.79	3.69
716.817	3.69
716.843	7.69
716.87	-1.31
716.897	7.69
716.923	19.69
716.95	4.69
716.976	-5.31
717.003	-5.31
717.03	4.69
717.056	1.69
717.083	-5.31
717.109	10.69
717.136	7.69
717.163	5.69
717.189	4.69
717.216	11.69
717.242	11.69
717.269	-7.31
717.296	-0.31
717.322	9.69
717.349	13.69
717.375	10.69
717.402	13.69
717.428	9.69
717.455	24.69
717.481	4.69
717.508	12.69
717.535	12.69
717.561	6.69
717.588	12.69
717.614	14.69
717.641	-4.31
717.667	0.69
717.694	-2.31
717.72	5.69
717.747	0.69
717.773	3.69
717.8	13.69
717.826	-1.31
717.853	2.69
717.88	12.69
717.906	4.69
717.933	-11.31
717.959	0.69
717.986	2.69
718.012	-2.31
718.039	7.69
718.065	12.69
718.092	7.69
718.118	-3.31
718.144	-4.31
718.171	8.69
718.197	13.69
718.224	2.69
718.25	1.69
718.277	8.69
718.303	11.69
718.33	-2.31
718.356	8.69
718.383	-8.31
718.409	-1.31
718.436	6.69
718.462	-0.31
718.489	8.69
718.515	27.69
718.541	25.69
718.568	16.69
718.594	1.69
718.621	3.69
718.647	8.69
718.674	14.69
718.7	5.69
718.726	3.69
718.753	1.69
718.779	9.69
718.806	2.69
718.832	11.69
718.858	0.69
718.885	3.69
718.911	15.69
718.938	10.69
718.964	-5.31
718.99	5.69
719.017	1.69
719.043	13.69
719.07	14.69
719.096	12.69
719.122	13.69
719.149	10.69
719.175	8.69
719.201	2.69
719.228	13.69
719.254	3.69
719.281	-9.31
719.307	-4.31
719.333	12.69
719.36	20.69
719.386	19.69
719.412	6.69
719.439	-3.31
719.465	-6.31
719.491	-5.31
719.518	-4.31
719.544	-12.31
719.57	24.69
719.597	6.69
719.623	0.69
719.649	9.69
719.675	2.69
719.702	6.69
719.728	14.69
719.754	2.69
719.781	11.69
719.807	4.69
719.833	4.69
719.86	-0.31
719.886	-8.31
719.912	2.69
719.938	4.69
719.965	2.69
719.991	14.69
720.017	-3.31
720.044	-11.31
720.07	5.69
720.096	19.69
720.122	4.69
720.149	10.69
720.175	18.69
720.201	7.69
720.227	7.69
720.254	14.69
720.28	7.69
720.306	-13.31
720.332	22.69
720.359	8.69
720.385	10.69
720.411	25.69
720.437	3.69
720.463	-6.31
720.49	24.69
720.516	-0.31
720.542	-6.31
720.568	-2.31
720.595	21.69
720.621	11.69
720.647	6.69
720.673	15.69
720.699	2.69
720.725	1.69
720.752	19.69
720.778	7.69
720.804	7.69
720.83	28.69
720.856	3.69
720.883	0.69
720.909	4.69
720.935	24.69
720.961	20.69
720.987	5.69
721.013	9.69
721.04	6.69
721.066	10.69
721.092	2.69
721.118	22.69
721.144	9.69
721.17	7.69
721.196	4.69
721.223	1.69
721.249	6.69
721.275	27.69
721.301	6.69
721.327	17.69
721.353	19.69
721.379	12.69
721.405	16.69
721.432	12.69
721.458	-4.31
721.484	10.69
721.51	11.69
721.536	23.69
721.562	-1.31
721.588	-6.31
721.614	1.69
721.64	2.69
721.666	14.69
721.693	6.69
721.719	8.69
721.745	-3.31
721.771	2.69
721.797	4.69
721.823	7.69
721.849	28.69
721.875	30.69
721.901	28.69
721.927	-0.31
721.953	11.69
721.979	30.69
722.005	30.69
722.031	4.69
722.057	8.69
722.083	1.69
722.109	13.69
722.135	31.69
722.161	15.69
722.187	2.69
722.214	6.69
722.24	0.69
722.266	-8.31
722.292	11.69
722.318	22.69
722.344	18.69
722.37	6.69
722.396	8.69
722.422	20.69
722.448	16.69
722.474	-4.31
722.5	13.69
722.526	2.69
722.552	18.69
722.578	-9.31
722.603	0.69
722.629	9.69
722.655	18.69
722.681	3.69
722.707	-0.31
722.733	-3.31
722.759	-11.31
722.785	7.69
722.811	-1.31
722.837	20.69
722.863	21.69
722.889	8.69
722.915	4.69
722.941	-0.31
722.967	-2.31
722.993	7.69
723.019	4.69
723.045	7.69
723.071	7.69
723.097	4.69
723.122	2.69
723.148	-0.31
723.174	1.69
723.2	10.69
723.226	-6.31
723.252	15.69
723.278	4.69
723.304	3.69
723.33	4.69
723.356	6.69
723.381	6.69
723.407	-2.31
723.433	4.69
723.459	1.69
723.485	-0.31
723.511	7.69
723.537	1.69
723.563	8.69
723.588	14.69
723.614	22.69
723.64	9.69
723.666	9.69
723.692	21.69
723.718	-3.31
723.744	15.69
723.769	12.69
723.795	7.69
723.821	10.69
723.847	5.69
723.873	16.69
723.899	17.69
723.924	2.69
723.95	-9.31
723.976	-0.31
724.002	17.69
724.028	15.69
724.053	11.69
724.079	-1.31
724.105	-6.31
724.131	15.69
724.157	14.69
724.182	7.69
724.208	15.69
724.234	9.69
724.26	-3.31
724.286	14.69
724.311	7.69
724.337	2.69
724.363	-8.31
724.389	3.69
724.415	-8.31
724.44	10.69
724.466	8.69
724.492	7.69
724.518	14.69
724.543	1.69
724.569	9.69
724.595	8.69
724.621	-9.31
724.646	-13.31
724.672	6.69
724.698	-5.31
724.723	3.69
724.749	15.69
724.775	2.69
724.801	24.69
724.826	5.69
724.852	-4.31
724.878	-1.31
724.904	-5.31
724.929	8.69
724.955	6.69
724.981	11.69
725.006	0.69
725.032	10.69
725.058	17.69
725.083	2.69
725.109	-6.31
725.135	8.69
725.161	17.69
725.186	0.69
725.212	8.69
725.238	7.69
725.263	16.69
725.289	-14.31
725.315	-0.31
725.34	7.69
725.366	4.69
725.392	7.69
725.417	0.69
725.443	7.69
725.468	29.69
725.494	11.69
725.52	10.69
725.545	1.69
725.571	0.69
725.597	7.69
725.622	9.69
725.648	12.69
725.674	16.69
725.699	21.69
725.725	14.69
725.75	20.69
725.776	-18.31
725.802	-12.31
725.827	15.69
725.853	-0.31
725.878	9.69
725.904	23.69
725.93	14.69
725.955	-8.31
725.981	-9.31
726.006	-6.31
726.032	2.69
726.057	-9.31
726.083	3.69
726.109	-0.31
726.134	6.69
726.16	14.69
726.185	7.69
726.211	1.69
726.236	10.69
726.262	3.69
726.288	8.69
726.313	16.69
726.339	17.69
726.364	9.69
726.39	21.69
726.415	-16.31
726.441	-6.31
726.466	6.69
726.492	1.69
726.517	0.69
726.543	11.69
726.568	-3.31
726.594	0.69
726.619	8.69
726.645	16.69
726.67	1.69
726.696	6.69
726.721	3.69
726.747	-9.31
726.772	8.69
726.798	7.69
726.823	3.69
726.849	0.69
726.874	9.69
726.9	21.69
726.925	18.69
726.951	-5.31
726.976	8.69
727.002	4.69
727.027	0.69
727.053	19.69
727.078	3.69
727.104	13.69
727.129	2.69
727.155	0.69
727.18	8.69
727.205	13.69
727.231	-2.31
727.256	20.69
727.282	1.69
727.307	12.69
727.333	6.69
727.358	-8.31
727.383	-9.31
727.409	-12.31
727.434	12.69
727.46	-0.31
727.485	11.69
727.511	6.69
727.536	-12.31
727.561	9.69
727.587	13.69
727.612	7.69
727.637	8.69
727.663	4.69
727.688	27.69
727.714	1.69
727.739	0.69
727.764	4.69
727.79	14.69
727.815	-2.31
727.841	15.69
727.866	10.69
727.891	24.69
727.917	-2.31
727.942	-8.31
727.967	3.69
727.993	-5.31
728.018	8.69
728.043	3.69
728.069	17.69
728.094	16.69
728.119	4.69
728.145	21.69
728.17	6.69
728.195	-5.31
728.221	12.69
728.246	-1.31
728.271	-8.31
728.297	2.69
728.322	9.69
728.347	3.69
728.373	4.69
728.398	13.69
728.423	12.69
728.448	4.69
728.474	10.69
728.499	10.69
728.524	-5.31
728.55	0.69
728.575	-12.31
728.6	7.69
728.625	-1.31
728.651	9.69
728.676	2.69
728.701	-0.31
728.727	11.69
728.752	6.69
728.777	6.69
728.802	9.69
728.828	25.69
728.853	17.69
728.878	11.69
728.903	-0.31
728.929	8.69
728.954	-2.31
728.979	8.69
729.004	23.69
729.03	1.69
729.055	19.69
729.08	-5.31
729.105	2.69
729.13	17.69
729.156	13.69
729.181	4.69
729.206	-13.31
729.231	2.69
729.256	12.69
729.282	3.69
729.307	-2.31
729.332	-11.31
729.357	1.69
729.382	2.69
729.408	-0.31
729.433	-1.31
729.458	16.69
729.483	20.69
729.508	8.69
729.533	13.69
729.559	-3.31
729.584	-8.31
729.609	16.69
729.634	14.69
729.659	4.69
729.684	-11.31
729.71	40.69
729.735	22.69
729.76	14.69
729.785	14.69
729.81	18.69
729.835	-5.31
729.86	0.69
729.886	3.69
729.911	-5.31
729.936	4.69
729.961	20.69
729.986	-17.31
730.011	-4.31
730.036	3.69
730.061	18.69
730.086	22.69
730.112	5.69
730.137	20.69
730.162	10.69
730.187	1.69
730.212	13.69
730.237	0.69
730.262	12.69
730.287	7.69
730.312	6.69
730.337	-5.31
730.362	21.69
730.387	3.69
730.413	-6.31
730.438	-1.31
730.463	10.69
730.488	-3.31
730.513	2.69
730.538	18.69
730.563	28.69
730.588	8.69
730.613	12.69
730.638	9.69
730.663	7.69
730.688	7.69
730.713	-7.31
730.738	-0.31
730.763	2.69
730.788	-3.31
730.813	12.69
730.838	6.69
730.863	5.69
730.888	3.69
730.913	-0.31
730.938	1.69
730.963	18.69
730.988	3.69
731.013	14.69
731.038	5.69
731.063	-6.31
731.088	11.69
731.113	6.69
731.138	6.69
731.163	17.69
731.188	1.69
731.213	11.69
731.238	10.69
731.263	-3.31
731.288	1.69
731.313	16.69
731.338	5.69
731.363	16.69
731.388	7.69
731.413	-5.31
731.438	17.69
731.463	16.69
731.487	6.69
731.512	-13.31
731.537	3.69
731.562	2.69
731.587	9.69
731.612	3.69
731.637	-18.31
731.662	0.69
731.687	-5.31
731.712	-7.31
731.737	-2.31
731.762	12.69
731.786	-8.31
731.811	12.69
731.836	7.69
731.861	8.69
731.886	0.69
731.911	7.69
731.936	7.69
731.961	-11.31
731.986	11.69
732.01	-1.31
732.035	0.69
732.06	17.69
732.085	1.69
732.11	6.69
732.135	-1.31
732.16	-0.31
732.184	3.69
732.209	2.69
732.234	14.69
732.259	1.69
732.284	3.69
732.309	-5.31
732.334	-3.31
732.358	-8.31
732.383	0.69
732.408	-0.31
732.433	21.69
732.458	11.69
732.482	18.69
732.507	13.69
732.532	9.69
732.557	10.69
732.582	-9.31
732.607	-1.31
732.631	-15.31
732.656	-0.31
732.681	14.69
732.706	10.69
732.73	0.69
732.755	-4.31
732.78	-12.31
732.805	2.69
732.83	-2.31
732.854	10.69
732.879	19.69
732.904	10.69
732.929	4.69
732.953	11.69
732.978	-5.31
733.003	-5.31
733.028	-7.31
733.052	10.69
733.077	3.69
733.102	7.69
733.127	9.69
733.151	3.69
733.176	-3.31
733.201	-2.31
733.226	9.69
733.25	7.69
733.275	0.69
733.3	2.69
733.324	6.69
733.349	21.69
733.374	0.69
733.399	-0.31
733.423	-1.31
733.448	9.69
733.473	2.69
733.497	8.69
733.522	-1.31
733.547	32.69
733.571	41.69
733.596	-1.31
733.621	2.69
733.646	0.69
733.67	15.69
733.695	5.69
733.72	19.69
733.744	13.69
733.769	15.69
733.794	12.69
733.818	9.69
733.843	-0.31
733.867	-0.31
733.892	-5.31
733.917	1.69
733.941	15.69
733.966	3.69
733.991	-8.31
734.015	27.69
734.04	-1.31
734.065	2.69
734.089	14.69
734.114	4.69
734.138	11.69
734.163	-4.31
734.188	19.69
734.212	12.69
734.237	23.69
734.261	21.69
734.286	6.69
734.311	-2.31
734.335	-12.31
734.36	-3.31
734.384	14.69
734.409	22.69
734.434	4.69
734.458	3.69
734.483	2.69
734.507	1.69
734.532	-4.31
734.556	1.69
734.581	7.69
734.606	-2.31
734.63	7.69
734.655	14.69
734.679	10.69
734.704	4.69
734.728	1.69
734.753	1.69
734.777	10.69
734.802	2.69
734.826	4.69
734.851	10.69
734.876	25.69
734.9	15.69
734.925	12.69
734.949	14.69
734.974	1.69
734.998	12.69
735.023	-0.31
735.047	-5.31
735.072	27.69
735.096	1.69
735.121	6.69
735.145	7.69
735.17	3.69
735.194	20.69
735.219	10.69
735.243	2.69
735.268	7.69
735.292	6.69
735.317	8.69
735.341	9.69
735.365	-4.31
735.39	8.69
735.414	11.69
735.439	14.69
735.463	-4.31
735.488	20.69
735.512	25.69
735.537	23.69
735.561	6.69
735.586	4.69
735.61	2.69
735.634	0.69
735.659	11.69
735.683	18.69
735.708	3.69
735.732	3.69
735.757	-13.31
735.781	5.69
735.805	9.69
735.83	8.69
735.854	4.69
735.879	12.69
735.903	4.69
735.927	7.69
735.952	-1.31
735.976	0.69
736.001	6.69
736.025	6.69
736.049	17.69
736.074	9.69
736.098	11.69
736.123	10.69
736.147	15.69
736.171	6.69
736.196	4.69
736.22	-3.31
736.244	4.69
736.269	12.69
736.293	11.69
736.317	3.69
736.342	8.69
736.366	13.69
736.39	23.69
736.415	21.69
736.439	6.69
736.463	26.69
736.488	19.69
736.512	4.69
736.536	0.69
736.561	29.69
736.585	10.69
736.609	16.69
736.634	-5.31
736.658	9.69
736.682	-6.31
736.707	-3.31
736.731	0.69
736.755	0.69
736.78	16.69
736.804	3.69
736.828	9.69
736.852	-0.31
736.877	-8.31
736.901	4.69
736.925	5.69
736.949	10.69
736.974	-17.31
736.998	-1.31
737.022	6.69
737.047	1.69
737.071	2.69
737.095	11.69
737.119	29.69
737.144	10.69
737.168	-6.31
737.192	0.69
737.216	11.69
737.241	1.69
737.265	2.69
737.289	0.69
737.313	-4.31
737.337	-5.31
737.362	-1.31
737.386	-1.31
737.41	-8.31
737.434	1.69
737.459	4.69
737.483	11.69
737.507	17.69
737.531	14.69
737.555	-0.31
737.58	17.69
737.604	14.69
737.628	-14.31
737.652	-9.31
737.676	-4.31
737.701	8.69
737.725	-1.31
737.749	-2.31
737.773	-4.31
737.797	-9.31
737.821	1.69
737.846	23.69
737.87	20.69
737.894	4.69
737.918	6.69
737.942	6.69
737.966	13.69
737.99	13.69
738.015	16.69
738.039	1.69
738.063	7.69
738.087	10.69
738.111	5.69
738.135	15.69
738.159	-5.31
738.184	6.69
738.208	8.69
738.232	4.69
738.256	7.69
738.28	6.69
738.304	-0.31
738.328	-13.31
738.352	3.69
738.376	0.69
738.4	7.69
738.425	2.69
738.449	-0.31
738.473	15.69
738.497	4.69
738.521	12.69
738.545	-5.31
738.569	12.69
738.593	11.69
738.617	6.69
738.641	3.69
738.665	0.69
738.689	10.69
738.713	8.69
738.737	30.69
738.762	3.69
738.786	8.69
738.81	-0.31
738.834	13.69
738.858	8.69
738.882	1.69
738.906	-0.31
738.93	8.69
738.954	12.69
738.978	0.69
739.002	7.69
739.026	12.69
739.05	-9.31
739.074	-2.31
739.098	27.69
739.122	15.69
739.146	8.69
739.17	21.69
739.194	-2.31
739.218	-9.31
739.242	3.69
739.266	5.69
739.29	10.69
739.314	10.69
739.338	1.69
739.362	0.69
739.386	2.69
739.41	-0.31
739.434	3.69
739.458	5.69
739.482	-4.31
739.506	12.69
739.53	9.69
739.554	18.69
739.577	2.69
739.601	2.69
739.625	12.69
739.649	8.69
739.673	10.69
739.697	8.69
739.721	-16.31
739.745	19.69
739.769	12.69
739.793	9.69
739.817	12.69
739.841	1.69
739.865	-3.31
739.889	1.69
739.912	6.69
739.936	-8.31
739.96	3.69
739.984	7.69
740.008	12.69
740.032	22.69
740.056	16.69
740.08	11.69
740.104	-6.31
740.127	6.69
740.151	8.69
740.175	16.69
740.199	6.69
740.223	47.69
740.247	18.69
740.271	8.69
740.295	11.69
740.318	0.69
740.342	9.69
740.366	26.69
740.39	18.69
740.414	7.69
740.438	11.69
740.461	8.69
740.485	9.69
740.509	1.69
740.533	2.69
740.557	-0.31
740.581	12.69
740.604	3.69
740.628	7.69
740.652	17.69
740.676	6.69
740.7	19.69
740.723	12.69
740.747	8.69
740.771	7.69
740.795	-3.31
740.819	20.69
740.842	21.69
740.866	17.69
740.89	16.69
740.914	1.69
740.938	1.69
740.961	3.69
740.985	9.69
741.009	15.69
741.033	15.69
741.056	3.69
741.08	0.69
741.104	1.69
741.128	-10.31
741.151	14.69
741.175	8.69
741.199	-5.31
741.223	20.69
741.246	-13.31
741.27	19.69
741.294	23.69
741.318	-0.31
741.341	4.69
741.365	2.69
741.389	14.69
741.413	15.69
741.436	6.69
741.46	5.69
741.484	17.69
741.507	-10.31
741.531	12.69
741.555	13.69
741.579	23.69
741.602	14.69
741.626	29.69
741.65	11.69
741.673	14.69
741.697	6.69
741.721	-3.31
741.744	-2.31
741.768	8.69
741.792	14.69
741.815	-5.31
741.839	6.69
741.863	22.69
741.886	19.69
741.91	15.69
741.934	15.69
741.957	10.69
741.981	17.69
742.005	2.69
742.028	1.69
742.052	2.69
742.075	13.69
742.099	16.69
742.123	0.69
742.146	7.69
742.17	14.69
742.194	-9.31
742.217	15.69
742.241	15.69
742.264	-4.31
742.288	12.69
742.312	7.69
742.335	13.69
742.359	7.69
742.382	21.69
742.406	32.69
742.43	2.69
742.453	2.69
742.477	-1.31
742.5	6.69
742.524	-13.31
742.548	-13.31
742.571	-6.31
742.595	3.69
742.618	4.69
742.642	-0.31
742.665	7.69
742.689	-5.31
742.712	23.69
742.736	-4.31
742.76	17.69
742.783	-5.31
742.807	19.69
742.83	15.69
742.854	2.69
742.877	-1.31
742.901	14.69
742.924	12.69
742.948	15.69
742.971	4.69
742.995	6.69
743.018	-0.31
743.042	13.69
743.065	3.69
743.089	-8.31
743.112	-8.31
743.136	-13.31
743.159	-5.31
743.183	2.69
743.206	10.69
743.23	10.69
743.253	0.69
743.277	13.69
743.3	-17.31
743.324	13.69
743.347	-1.31
743.371	28.69
743.394	20.69
743.418	10.69
743.441	8.69
743.465	11.69
743.488	11.69
743.512	-4.31
743.535	9.69
743.558	-1.31
743.582	2.69
743.605	14.69
743.629	24.69
743.652	7.69
743.676	-6.31
743.699	14.69
743.723	22.69
743.746	23.69
743.769	19.69
743.793	4.69
743.816	13.69
743.84	7.69
743.863	8.69
743.886	11.69
743.91	11.69
743.933	19.69
743.957	-1.31
743.98	7.69
744.003	10.69
744.027	15.69
744.05	0.69
744.074	10.69
744.097	-2.31
744.12	-7.31
744.144	-4.31
744.167	14.69
744.19	3.69
744.214	-3.31
744.237	0.69
744.26	21.69
744.284	10.69
744.307	-13.31
744.331	-0.31
744.354	6.69
744.377	3.69
744.401	0.69
744.424	10.69
744.447	-14.31
744.471	-4.31
