Data from HighRes_H2D2_15_04_11_07_2024_HR4C61891__17__15-05-36-143.txt Node

Date: Thu Nov 07 15:05:36 EST 2024
User: crc00042
Spectrometer: HR4C6189
Trigger mode: 4
Integration Time (sec): 1.000000E-1
Scans to average: 1
Electric dark correction enabled: true
Nonlinearity correction enabled: false
Boxcar width: 0
XAxis mode: Wavelengths
Number of Pixels in Spectrum: 3648
>>>>>Begin Spectral Data<<<<<
639.567	-77.92
639.602	-77.92
639.636	-77.92
639.67	-39.92
639.704	-30.92
639.738	-5.92
639.773	13.08
639.807	3.08
639.841	0.08
639.875	5.08
639.909	-8.92
639.943	-4.92
639.978	-18.92
640.012	2.08
640.046	19.08
640.08	9.08
640.114	3.08
640.148	-15.92
640.182	-7.92
640.217	-9.92
640.251	13.08
640.285	7.08
640.319	-13.92
640.353	5.08
640.387	-2.92
640.421	-4.92
640.455	-4.92
640.49	-21.92
640.524	-7.92
640.558	10.08
640.592	-4.92
640.626	7.08
640.66	-16.92
640.694	-1.92
640.728	7.08
640.762	5.08
640.796	1.08
640.83	16.08
640.865	-7.92
640.899	-15.92
640.933	-0.92
640.967	0.08
641.001	-4.92
641.035	-0.92
641.069	5.08
641.103	-4.92
641.137	-4.92
641.171	-20.92
641.205	0.08
641.239	-9.92
641.273	14.08
641.307	-5.92
641.341	-6.92
641.375	3.08
641.409	-10.92
641.443	1.08
641.477	5.08
641.511	5.08
641.545	18.08
641.579	-2.92
641.614	13.08
641.648	4.08
641.682	-5.92
641.716	-7.92
641.75	6.08
641.784	-5.92
641.818	-17.92
641.852	5.08
641.886	-3.92
641.919	14.08
641.953	5.08
641.987	-4.92
642.021	-19.92
642.055	9.08
642.089	3.08
642.123	-12.92
642.157	-16.92
642.191	-12.92
642.225	10.08
642.259	-21.92
642.293	11.08
642.327	-0.92
642.361	-10.92
642.395	7.08
642.429	12.08
642.463	7.08
642.497	13.08
642.531	5.08
642.565	0.08
642.599	0.08
642.633	-11.92
642.666	0.08
642.7	11.08
642.734	20.08
642.768	-2.92
642.802	-7.92
642.836	2.08
642.87	3.08
642.904	-1.92
642.938	-4.92
642.972	1.08
643.005	5.08
643.039	13.08
643.073	-4.92
643.107	-3.92
643.141	13.08
643.175	-0.92
643.209	-8.92
643.243	6.08
643.276	13.08
643.31	-6.92
643.344	-7.92
643.378	7.08
643.412	18.08
643.446	-3.92
643.48	-5.92
643.513	-3.92
643.547	-1.92
643.581	-0.92
643.615	8.08
643.649	8.08
643.683	-0.92
643.716	-11.92
643.75	5.08
643.784	-11.92
643.818	7.08
643.852	2.08
643.886	2.08
643.919	16.08
643.953	-0.92
643.987	-9.92
644.021	7.08
644.055	9.08
644.088	-2.92
644.122	-19.92
644.156	-16.92
644.19	4.08
644.224	-9.92
644.257	-1.92
644.291	7.08
644.325	2.08
644.359	-1.92
644.392	26.08
644.426	6.08
644.46	-17.92
644.494	-6.92
644.527	7.08
644.561	-1.92
644.595	4.08
644.629	-11.92
644.662	4.08
644.696	4.08
644.73	0.08
644.764	10.08
644.797	10.08
644.831	-15.92
644.865	0.08
644.899	-8.92
644.932	25.08
644.966	5.08
645	-4.92
645.033	-0.92
645.067	-2.92
645.101	4.08
645.135	16.08
645.168	-9.92
645.202	-4.92
645.236	10.08
645.269	20.08
645.303	9.08
645.337	-13.92
645.37	0.08
645.404	-6.92
645.438	-5.92
645.471	6.08
645.505	5.08
645.539	-7.92
645.572	-3.92
645.606	-15.92
645.64	-0.92
645.673	2.08
645.707	14.08
645.741	15.08
645.774	5.08
645.808	13.08
645.842	1.08
645.875	4.08
645.909	-3.92
645.943	-17.92
645.976	-7.92
646.01	0.08
646.043	11.08
646.077	11.08
646.111	-0.92
646.144	11.08
646.178	11.08
646.212	-10.92
646.245	2.08
646.279	2.08
646.312	-4.92
646.346	12.08
646.38	6.08
646.413	17.08
646.447	-0.92
646.48	12.08
646.514	-1.92
646.547	-6.92
646.581	0.08
646.615	-3.92
646.648	-4.92
646.682	-1.92
646.715	-2.92
646.749	-1.92
646.782	2.08
646.816	0.08
646.85	-2.92
646.883	-20.92
646.917	0.08
646.95	3.08
646.984	3.08
647.017	11.08
647.051	15.08
647.084	6.08
647.118	-8.92
647.151	6.08
647.185	5.08
647.218	-11.92
647.252	6.08
647.285	-8.92
647.319	-8.92
647.353	-6.92
647.386	16.08
647.42	22.08
647.453	5.08
647.487	10.08
647.52	-3.92
647.553	11.08
647.587	7.08
647.62	-3.92
647.654	5.08
647.687	3.08
647.721	-2.92
647.754	1.08
647.788	4.08
647.821	-13.92
647.855	-2.92
647.888	11.08
647.922	7.08
647.955	-3.92
647.989	-6.92
648.022	-7.92
648.055	4.08
648.089	-9.92
648.122	11.08
648.156	-1.92
648.189	2.08
648.223	11.08
648.256	15.08
648.29	12.08
648.323	-16.92
648.356	9.08
648.39	7.08
648.423	8.08
648.457	3.08
648.49	11.08
648.523	-2.92
648.557	7.08
648.59	-9.92
648.624	-6.92
648.657	7.08
648.69	21.08
648.724	18.08
648.757	15.08
648.791	-4.92
648.824	7.08
648.857	18.08
648.891	8.08
648.924	1.08
648.957	10.08
648.991	-2.92
649.024	11.08
649.057	-18.92
649.091	-21.92
649.124	14.08
649.158	7.08
649.191	5.08
649.224	2.08
649.258	11.08
649.291	18.08
649.324	5.08
649.358	7.08
649.391	-0.92
649.424	7.08
649.458	-8.92
649.491	-7.92
649.524	-13.92
649.557	-3.92
649.591	-6.92
649.624	22.08
649.657	-0.92
649.691	-9.92
649.724	8.08
649.757	-0.92
649.791	-9.92
649.824	19.08
649.857	-0.92
649.89	1.08
649.924	-8.92
649.957	13.08
649.99	7.08
650.023	-6.92
650.057	-16.92
650.09	-8.92
650.123	-10.92
650.157	8.08
650.19	13.08
650.223	7.08
650.256	2.08
650.29	-7.92
650.323	5.08
650.356	-3.92
650.389	0.08
650.423	0.08
650.456	5.08
650.489	2.08
650.522	4.08
650.555	14.08
650.589	14.08
650.622	-3.92
650.655	-1.92
650.688	9.08
650.721	6.08
650.755	8.08
650.788	20.08
650.821	4.08
650.854	11.08
650.887	8.08
650.921	-3.92
650.954	-5.92
650.987	10.08
651.02	-3.92
651.053	-16.92
651.087	-3.92
651.12	21.08
651.153	1.08
651.186	4.08
651.219	-1.92
651.252	21.08
651.286	14.08
651.319	-11.92
651.352	1.08
651.385	9.08
651.418	2.08
651.451	9.08
651.484	15.08
651.518	-5.92
651.551	3.08
651.584	-7.92
651.617	9.08
651.65	1.08
651.683	10.08
651.716	-13.92
651.749	-10.92
651.783	-12.92
651.816	13.08
651.849	27.08
651.882	1.08
651.915	1.08
651.948	13.08
651.981	-3.92
652.014	-25.92
652.047	-5.92
652.08	-16.92
652.114	-10.92
652.147	-6.92
652.18	15.08
652.213	18.08
652.246	4.08
652.279	-14.92
652.312	-1.92
652.345	-1.92
652.378	1.08
652.411	17.08
652.444	9.08
652.477	-8.92
652.51	-11.92
652.543	-16.92
652.576	10.08
652.609	11.08
652.642	11.08
652.675	-2.92
652.709	-21.92
652.742	-5.92
652.775	-6.92
652.808	8.08
652.841	-6.92
652.874	-13.92
652.907	12.08
652.94	-11.92
652.973	-2.92
653.006	-7.92
653.039	6.08
653.072	7.08
653.105	-6.92
653.138	-15.92
653.171	-12.92
653.204	-5.92
653.237	11.08
653.27	-5.92
653.303	2.08
653.336	13.08
653.368	-9.92
653.401	7.08
653.434	3.08
653.467	14.08
653.5	-8.92
653.533	-11.92
653.566	-5.92
653.599	5.08
653.632	1.08
653.665	1.08
653.698	-12.92
653.731	-1.92
653.764	-0.92
653.797	8.08
653.83	9.08
653.863	8.08
653.896	-4.92
653.929	-19.92
653.961	7.08
653.994	-1.92
654.027	-17.92
654.06	-1.92
654.093	-11.92
654.126	4.08
654.159	7.08
654.192	-4.92
654.225	-28.92
654.258	-6.92
654.29	-2.92
654.323	1.08
654.356	6.08
654.389	4.08
654.422	-7.92
654.455	3.08
654.488	-1.92
654.521	-8.92
654.553	-0.92
654.586	-13.92
654.619	-2.92
654.652	4.08
654.685	7.08
654.718	5.08
654.751	-0.92
654.783	-6.92
654.816	2.08
654.849	2.08
654.882	-10.92
654.915	-36.92
654.948	-0.92
654.98	-2.92
655.013	-0.92
655.046	0.08
655.079	-5.92
655.112	11.08
655.144	-6.92
655.177	-4.92
655.21	14.08
655.243	16.08
655.276	4.08
655.308	-8.92
655.341	-1.92
655.374	-10.92
655.407	-14.92
655.44	4.08
655.472	13.08
655.505	3.08
655.538	5.08
655.571	5.08
655.603	-5.92
655.636	5.08
655.669	14.08
655.702	8.08
655.734	-14.92
655.767	9.08
655.8	18.08
655.833	11.08
655.865	6.08
655.898	4.08
655.931	-2.92
655.964	5.08
655.996	26.08
656.029	19.08
656.062	31.08
656.095	47.08
656.127	74.08
656.16	202.08
656.193	643.08
656.225	994.08
656.258	530.08
656.291	222.08
656.324	175.08
656.356	346.08
656.389	782.08
656.422	698.08
656.454	235.08
656.487	73.08
656.52	36.08
656.552	13.08
656.585	11.08
656.618	-0.92
656.65	8.08
656.683	-1.92
656.716	7.08
656.748	0.08
656.781	-6.92
656.814	0.08
656.846	7.08
656.879	3.08
656.912	-6.92
656.944	-9.92
656.977	1.08
657.01	-1.92
657.042	-3.92
657.075	-0.92
657.108	-12.92
657.14	16.08
657.173	16.08
657.205	23.08
657.238	11.08
657.271	5.08
657.303	-4.92
657.336	-3.92
657.369	3.08
657.401	10.08
657.434	0.08
657.466	16.08
657.499	5.08
657.532	8.08
657.564	0.08
657.597	6.08
657.629	-5.92
657.662	-0.92
657.694	-4.92
657.727	-18.92
657.76	-3.92
657.792	2.08
657.825	-6.92
657.857	-8.92
657.89	-9.92
657.922	16.08
657.955	-16.92
657.987	-2.92
658.02	8.08
658.053	3.08
658.085	-9.92
658.118	7.08
658.15	17.08
658.183	18.08
658.215	5.08
658.248	-5.92
658.28	1.08
658.313	27.08
658.345	9.08
658.378	-8.92
658.41	-5.92
658.443	5.08
658.475	0.08
658.508	4.08
658.54	9.08
658.573	-15.92
658.605	3.08
658.638	1.08
658.67	-5.92
658.703	-4.92
658.735	-11.92
658.768	10.08
658.8	-4.92
658.833	11.08
658.865	8.08
658.898	-10.92
658.93	-4.92
658.963	-0.92
658.995	-8.92
659.028	-3.92
659.06	-12.92
659.092	-16.92
659.125	-1.92
659.157	-0.92
659.19	-6.92
659.222	3.08
659.255	-1.92
659.287	8.08
659.32	-7.92
659.352	7.08
659.384	16.08
659.417	-4.92
659.449	26.08
659.482	10.08
659.514	1.08
659.546	-0.92
659.579	-1.92
659.611	-3.92
659.644	-22.92
659.676	-23.92
659.708	-20.92
659.741	-2.92
659.773	12.08
659.806	4.08
659.838	-9.92
659.87	-7.92
659.903	-3.92
659.935	7.08
659.967	1.08
660	3.08
660.032	-19.92
660.065	-5.92
660.097	6.08
660.129	-1.92
660.162	-8.92
660.194	-0.92
660.226	2.08
660.259	4.08
660.291	2.08
660.323	8.08
660.356	-8.92
660.388	-10.92
660.42	-11.92
660.453	7.08
660.485	-0.92
660.517	9.08
660.55	18.08
660.582	10.08
660.614	10.08
660.647	0.08
660.679	-2.92
660.711	10.08
660.743	-6.92
660.776	-8.92
660.808	-10.92
660.84	-15.92
660.873	-2.92
660.905	3.08
660.937	-0.92
660.969	-12.92
661.002	-8.92
661.034	8.08
661.066	-9.92
661.099	-1.92
661.131	23.08
661.163	-7.92
661.195	14.08
661.228	11.08
661.26	-8.92
661.292	-1.92
661.324	-0.92
661.357	2.08
661.389	-4.92
661.421	12.08
661.453	-1.92
661.485	3.08
661.518	3.08
661.55	-10.92
661.582	0.08
661.614	-2.92
661.647	11.08
661.679	4.08
661.711	10.08
661.743	-11.92
661.775	-15.92
661.808	18.08
661.84	-14.92
661.872	0.08
661.904	-6.92
661.936	-3.92
661.969	-1.92
662.001	-1.92
662.033	-8.92
662.065	6.08
662.097	3.08
662.129	-1.92
662.162	-11.92
662.194	2.08
662.226	-10.92
662.258	14.08
662.29	3.08
662.322	-7.92
662.355	-26.92
662.387	18.08
662.419	-1.92
662.451	7.08
662.483	9.08
662.515	-7.92
662.547	-7.92
662.58	-4.92
662.612	-3.92
662.644	-18.92
662.676	8.08
662.708	22.08
662.74	6.08
662.772	10.08
662.804	3.08
662.836	8.08
662.869	-21.92
662.901	7.08
662.933	4.08
662.965	8.08
662.997	0.08
663.029	-12.92
663.061	-0.92
663.093	-6.92
663.125	-2.92
663.157	-12.92
663.189	-14.92
663.221	-6.92
663.254	6.08
663.286	1.08
663.318	-4.92
663.35	-17.92
663.382	-17.92
663.414	6.08
663.446	4.08
663.478	-13.92
663.51	31.08
663.542	-19.92
663.574	-4.92
663.606	-9.92
663.638	-16.92
663.67	3.08
663.702	-6.92
663.734	-3.92
663.766	5.08
663.798	-9.92
663.83	3.08
663.862	8.08
663.894	11.08
663.926	-3.92
663.958	2.08
663.99	3.08
664.022	-18.92
664.054	1.08
664.086	-35.92
664.118	-9.92
664.15	-11.92
664.182	-1.92
664.214	-7.92
664.246	22.08
664.278	5.08
664.31	8.08
664.342	-5.92
664.374	-8.92
664.406	0.08
664.438	8.08
664.47	-1.92
664.502	-17.92
664.534	-12.92
664.566	-23.92
664.598	17.08
664.63	-15.92
664.662	-2.92
664.693	5.08
664.725	-12.92
664.757	-8.92
664.789	11.08
664.821	2.08
664.853	-1.92
664.885	4.08
664.917	-4.92
664.949	5.08
664.981	8.08
665.013	-16.92
665.045	-2.92
665.076	9.08
665.108	0.08
665.14	-1.92
665.172	-5.92
665.204	-3.92
665.236	-13.92
665.268	8.08
665.3	1.08
665.331	-4.92
665.363	-0.92
665.395	-14.92
665.427	-7.92
665.459	4.08
665.491	-3.92
665.523	11.08
665.555	9.08
665.586	9.08
665.618	-7.92
665.65	-12.92
665.682	13.08
665.714	2.08
665.746	-13.92
665.777	-8.92
665.809	-1.92
665.841	6.08
665.873	-3.92
665.905	1.08
665.937	13.08
665.968	2.08
666	0.08
666.032	7.08
666.064	-10.92
666.096	-20.92
666.127	9.08
666.159	18.08
666.191	3.08
666.223	-7.92
666.255	4.08
666.286	-0.92
666.318	-25.92
666.35	7.08
666.382	-10.92
666.413	-24.92
666.445	-2.92
666.477	-4.92
666.509	-20.92
666.54	-12.92
666.572	4.08
666.604	0.08
666.636	-7.92
666.667	-1.92
666.699	9.08
666.731	5.08
666.763	-3.92
666.794	4.08
666.826	6.08
666.858	-2.92
666.89	22.08
666.921	6.08
666.953	17.08
666.985	10.08
667.017	13.08
667.048	-15.92
667.08	8.08
667.112	-16.92
667.143	-18.92
667.175	8.08
667.207	-3.92
667.238	8.08
667.27	-15.92
667.302	-7.92
667.334	-2.92
667.365	19.08
667.397	-4.92
667.429	-7.92
667.46	7.08
667.492	11.08
667.524	-1.92
667.555	-7.92
667.587	4.08
667.619	3.08
667.65	6.08
667.682	16.08
667.714	2.08
667.745	12.08
667.777	1.08
667.808	9.08
667.84	0.08
667.872	-1.92
667.903	10.08
667.935	-14.92
667.967	-2.92
667.998	11.08
668.03	-13.92
668.061	0.08
668.093	-11.92
668.125	-9.92
668.156	-3.92
668.188	-6.92
668.22	-6.92
668.251	-13.92
668.283	5.08
668.314	8.08
668.346	-6.92
668.377	12.08
668.409	-1.92
668.441	10.08
668.472	14.08
668.504	24.08
668.535	11.08
668.567	-1.92
668.599	9.08
668.63	10.08
668.662	10.08
668.693	15.08
668.725	0.08
668.756	-2.92
668.788	-4.92
668.819	-4.92
668.851	9.08
668.882	-7.92
668.914	-9.92
668.946	5.08
668.977	-1.92
669.009	-2.92
669.04	-8.92
669.072	-0.92
669.103	11.08
669.135	1.08
669.166	8.08
669.198	-0.92
669.229	-0.92
669.261	-5.92
669.292	0.08
669.324	-2.92
669.355	5.08
669.387	0.08
669.418	11.08
669.45	-17.92
669.481	10.08
669.513	-1.92
669.544	-3.92
669.576	8.08
669.607	30.08
669.639	13.08
669.67	-20.92
669.701	-0.92
669.733	-4.92
669.764	-3.92
669.796	-4.92
669.827	2.08
669.859	-21.92
669.89	11.08
669.922	14.08
669.953	2.08
669.985	5.08
670.016	23.08
670.047	-2.92
670.079	-11.92
670.11	-3.92
670.142	1.08
670.173	7.08
670.204	-9.92
670.236	8.08
670.267	-6.92
670.299	-10.92
670.33	3.08
670.362	3.08
670.393	-1.92
670.424	3.08
670.456	-5.92
670.487	-13.92
670.518	3.08
670.55	-0.92
670.581	-5.92
670.613	-11.92
670.644	1.08
670.675	-13.92
670.707	-7.92
670.738	-17.92
670.769	-10.92
670.801	-4.92
670.832	3.08
670.864	-12.92
670.895	13.08
670.926	7.08
670.958	-2.92
670.989	14.08
671.02	-2.92
671.052	-9.92
671.083	-1.92
671.114	-13.92
671.146	10.08
671.177	1.08
671.208	-0.92
671.24	-12.92
671.271	-27.92
671.302	-6.92
671.333	6.08
671.365	-1.92
671.396	-23.92
671.427	3.08
671.459	-5.92
671.49	7.08
671.521	6.08
671.553	6.08
671.584	-3.92
671.615	-5.92
671.646	-0.92
671.678	5.08
671.709	1.08
671.74	-20.92
671.771	-8.92
671.803	-19.92
671.834	0.08
671.865	-1.92
671.896	1.08
671.928	3.08
671.959	5.08
671.99	-17.92
672.021	-8.92
672.053	-11.92
672.084	11.08
672.115	-7.92
672.146	-5.92
672.178	-15.92
672.209	-12.92
672.24	0.08
672.271	10.08
672.303	1.08
672.334	-8.92
672.365	-1.92
672.396	8.08
672.427	4.08
672.459	5.08
672.49	19.08
672.521	9.08
672.552	19.08
672.583	7.08
672.615	5.08
672.646	7.08
672.677	0.08
672.708	15.08
672.739	-7.92
672.77	17.08
672.802	-8.92
672.833	2.08
672.864	-19.92
672.895	-5.92
672.926	-10.92
672.957	-28.92
672.989	-16.92
673.02	2.08
673.051	-9.92
673.082	20.08
673.113	1.08
673.144	0.08
673.175	-2.92
673.206	-18.92
673.238	-1.92
673.269	1.08
673.3	0.08
673.331	-16.92
673.362	5.08
673.393	-5.92
673.424	9.08
673.455	30.08
673.487	3.08
673.518	12.08
673.549	18.08
673.58	-6.92
673.611	4.08
673.642	0.08
673.673	-27.92
673.704	-0.92
673.735	-4.92
673.766	-0.92
673.797	-3.92
673.828	-0.92
673.86	-13.92
673.891	-17.92
673.922	-3.92
673.953	2.08
673.984	2.08
674.015	5.08
674.046	-5.92
674.077	-9.92
674.108	-10.92
674.139	-10.92
674.17	-4.92
674.201	-3.92
674.232	-20.92
674.263	-3.92
674.294	-9.92
674.325	-15.92
674.356	7.08
674.387	16.08
674.418	5.08
674.449	-16.92
674.48	-6.92
674.511	14.08
674.542	2.08
674.573	-20.92
674.604	7.08
674.635	-17.92
674.666	-2.92
674.697	3.08
674.728	-4.92
674.759	-8.92
674.79	-12.92
674.821	-9.92
674.852	-2.92
674.883	-18.92
674.914	0.08
674.945	-0.92
674.976	5.08
675.007	-13.92
675.038	0.08
675.069	-6.92
675.1	-29.92
675.131	1.08
675.162	-11.92
675.193	-14.92
675.224	2.08
675.254	2.08
675.285	10.08
675.316	20.08
675.347	9.08
675.378	-9.92
675.409	-15.92
675.44	-0.92
675.471	7.08
675.502	-15.92
675.533	1.08
675.564	-0.92
675.595	-4.92
675.625	12.08
675.656	13.08
675.687	3.08
675.718	-26.92
675.749	-1.92
675.78	2.08
675.811	4.08
675.842	4.08
675.873	12.08
675.903	-0.92
675.934	-10.92
675.965	-11.92
675.996	10.08
676.027	9.08
676.058	-0.92
676.089	-17.92
676.119	11.08
676.15	3.08
676.181	4.08
676.212	-7.92
676.243	-1.92
676.274	-7.92
676.304	-0.92
676.335	-2.92
676.366	-8.92
676.397	-1.92
676.428	5.08
676.459	-4.92
676.489	15.08
676.52	4.08
676.551	8.08
676.582	-6.92
676.613	0.08
676.643	-12.92
676.674	16.08
676.705	5.08
676.736	7.08
676.767	21.08
676.797	8.08
676.828	18.08
676.859	3.08
676.89	-2.92
676.92	1.08
676.951	12.08
676.982	18.08
677.013	4.08
677.044	20.08
677.074	-8.92
677.105	-20.92
677.136	9.08
677.167	2.08
677.197	19.08
677.228	-11.92
677.259	-13.92
677.289	8.08
677.32	-13.92
677.351	-11.92
677.382	-4.92
677.412	-5.92
677.443	-2.92
677.474	0.08
677.505	-2.92
677.535	-8.92
677.566	-8.92
677.597	-8.92
677.627	-16.92
677.658	-16.92
677.689	-3.92
677.72	-20.92
677.75	-4.92
677.781	-11.92
677.812	4.08
677.842	3.08
677.873	-7.92
677.904	0.08
677.934	3.08
677.965	-2.92
677.996	-24.92
678.026	-19.92
678.057	2.08
678.088	-9.92
678.118	6.08
678.149	-8.92
678.18	-10.92
678.21	6.08
678.241	7.08
678.272	-20.92
678.302	12.08
678.333	2.08
678.363	-0.92
678.394	-0.92
678.425	-11.92
678.455	8.08
678.486	14.08
678.517	-11.92
678.547	-0.92
678.578	6.08
678.608	-11.92
678.639	10.08
678.67	1.08
678.7	-2.92
678.731	3.08
678.761	-0.92
678.792	15.08
678.823	0.08
678.853	2.08
678.884	-5.92
678.914	16.08
678.945	-2.92
678.975	1.08
679.006	7.08
679.037	-6.92
679.067	10.08
679.098	-6.92
679.128	-17.92
679.159	-15.92
679.189	13.08
679.22	0.08
679.25	-1.92
679.281	-10.92
679.312	2.08
679.342	-7.92
679.373	3.08
679.403	-2.92
679.434	-7.92
679.464	-1.92
679.495	8.08
679.525	14.08
679.556	3.08
679.586	0.08
679.617	-8.92
679.647	-3.92
679.678	4.08
679.708	-4.92
679.739	-6.92
679.769	1.08
679.8	1.08
679.83	-13.92
679.861	18.08
679.891	9.08
679.922	-0.92
679.952	11.08
679.983	12.08
680.013	4.08
680.044	-4.92
680.074	18.08
680.105	21.08
680.135	6.08
680.165	12.08
680.196	6.08
680.226	6.08
680.257	-4.92
680.287	8.08
680.318	6.08
680.348	5.08
680.379	2.08
680.409	-1.92
680.439	-1.92
680.47	0.08
680.5	-8.92
680.531	4.08
680.561	11.08
680.592	2.08
680.622	15.08
680.652	-4.92
680.683	8.08
680.713	3.08
680.744	2.08
680.774	-17.92
680.804	21.08
680.835	-9.92
680.865	-15.92
680.896	21.08
680.926	18.08
680.956	3.08
680.987	6.08
681.017	12.08
681.047	7.08
681.078	-3.92
681.108	14.08
681.139	2.08
681.169	3.08
681.199	-13.92
681.23	-5.92
681.26	-3.92
681.29	6.08
681.321	-16.92
681.351	0.08
681.381	-0.92
681.412	2.08
681.442	4.08
681.472	19.08
681.503	21.08
681.533	5.08
681.563	-4.92
681.594	-3.92
681.624	2.08
681.654	-8.92
681.685	-6.92
681.715	-5.92
681.745	-2.92
681.775	-9.92
681.806	1.08
681.836	-2.92
681.866	0.08
681.897	9.08
681.927	-5.92
681.957	-4.92
681.987	-0.92
682.018	9.08
682.048	-7.92
682.078	-3.92
682.109	-3.92
682.139	-1.92
682.169	-0.92
682.199	-0.92
682.23	-20.92
682.26	-8.92
682.29	-1.92
682.32	-2.92
682.351	4.08
682.381	11.08
682.411	-1.92
682.441	0.08
682.472	-0.92
682.502	4.08
682.532	-17.92
682.562	-4.92
682.592	3.08
682.623	8.08
682.653	-4.92
682.683	1.08
682.713	7.08
682.743	4.08
682.774	7.08
682.804	5.08
682.834	15.08
682.864	1.08
682.894	4.08
682.925	-10.92
682.955	0.08
682.985	-9.92
683.015	-2.92
683.045	12.08
683.076	-4.92
683.106	-5.92
683.136	8.08
683.166	1.08
683.196	3.08
683.226	-1.92
683.257	10.08
683.287	-12.92
683.317	-10.92
683.347	-13.92
683.377	4.08
683.407	14.08
683.437	6.08
683.468	5.08
683.498	-7.92
683.528	4.08
683.558	-8.92
683.588	-1.92
683.618	-13.92
683.648	-19.92
683.678	4.08
683.708	-15.92
683.739	-6.92
683.769	6.08
683.799	-2.92
683.829	-6.92
683.859	6.08
683.889	15.08
683.919	-3.92
683.949	10.08
683.979	-0.92
684.009	-8.92
684.039	2.08
684.07	0.08
684.1	4.08
684.13	-15.92
684.16	-12.92
684.19	1.08
684.22	2.08
684.25	3.08
684.28	-3.92
684.31	22.08
684.34	3.08
684.37	15.08
684.4	7.08
684.43	1.08
684.46	9.08
684.49	18.08
684.52	-0.92
684.55	15.08
684.58	13.08
684.61	-2.92
684.64	10.08
684.67	5.08
684.7	-6.92
684.73	7.08
684.76	7.08
684.79	25.08
684.82	7.08
684.85	-8.92
684.88	-4.92
684.91	-0.92
684.94	-3.92
684.97	-4.92
685	-8.92
685.03	5.08
685.06	-2.92
685.09	-2.92
685.12	7.08
685.15	-3.92
685.18	7.08
685.21	-5.92
685.24	5.08
685.27	-1.92
685.3	-10.92
685.33	6.08
685.36	-15.92
685.39	1.08
685.42	-5.92
685.45	2.08
685.48	-16.92
685.51	-7.92
685.54	6.08
685.569	6.08
685.599	21.08
685.629	8.08
685.659	-4.92
685.689	9.08
685.719	1.08
685.749	-10.92
685.779	-5.92
685.809	12.08
685.839	21.08
685.869	9.08
685.898	20.08
685.928	10.08
685.958	-7.92
685.988	3.08
686.018	10.08
686.048	12.08
686.078	14.08
686.108	31.08
686.137	-1.92
686.167	6.08
686.197	6.08
686.227	0.08
686.257	29.08
686.287	9.08
686.317	0.08
686.346	0.08
686.376	-11.92
686.406	-7.92
686.436	11.08
686.466	-12.92
686.496	2.08
686.525	10.08
686.555	-3.92
686.585	27.08
686.615	34.08
686.645	12.08
686.675	8.08
686.704	-5.92
686.734	12.08
686.764	9.08
686.794	-1.92
686.824	3.08
686.853	10.08
686.883	10.08
686.913	7.08
686.943	-2.92
686.973	-6.92
687.002	18.08
687.032	1.08
687.062	3.08
687.092	12.08
687.121	6.08
687.151	10.08
687.181	6.08
687.211	9.08
687.24	-1.92
687.27	-2.92
687.3	-9.92
687.33	5.08
687.359	-23.92
687.389	19.08
687.419	7.08
687.449	10.08
687.478	0.08
687.508	2.08
687.538	4.08
687.568	6.08
687.597	-11.92
687.627	0.08
687.657	13.08
687.686	4.08
687.716	30.08
687.746	-7.92
687.776	-1.92
687.805	5.08
687.835	10.08
687.865	12.08
687.894	13.08
687.924	-1.92
687.954	15.08
687.983	16.08
688.013	17.08
688.043	5.08
688.072	14.08
688.102	2.08
688.132	3.08
688.161	-0.92
688.191	-7.92
688.221	14.08
688.25	-12.92
688.28	-18.92
688.31	-10.92
688.339	15.08
688.369	3.08
688.399	-5.92
688.428	-14.92
688.458	-1.92
688.488	-6.92
688.517	14.08
688.547	-9.92
688.576	40.08
688.606	13.08
688.636	-10.92
688.665	-9.92
688.695	0.08
688.725	-7.92
688.754	-7.92
688.784	-6.92
688.813	7.08
688.843	12.08
688.873	-1.92
688.902	5.08
688.932	2.08
688.961	15.08
688.991	23.08
689.02	19.08
689.05	-5.92
689.08	8.08
689.109	5.08
689.139	-16.92
689.168	-1.92
689.198	14.08
689.227	-3.92
689.257	4.08
689.287	20.08
689.316	-2.92
689.346	-16.92
689.375	-10.92
689.405	8.08
689.434	-1.92
689.464	-1.92
689.493	-0.92
689.523	-2.92
689.552	7.08
689.582	-0.92
689.611	-9.92
689.641	-1.92
689.67	1.08
689.7	2.08
689.73	21.08
689.759	-1.92
689.789	10.08
689.818	11.08
689.848	-1.92
689.877	16.08
689.906	3.08
689.936	0.08
689.965	2.08
689.995	-2.92
690.024	3.08
690.054	3.08
690.083	4.08
690.113	4.08
690.142	-9.92
690.172	11.08
690.201	1.08
690.231	-2.92
690.26	6.08
690.29	-9.92
690.319	-2.92
690.348	0.08
690.378	15.08
690.407	9.08
690.437	3.08
690.466	4.08
690.496	4.08
690.525	8.08
690.555	-6.92
690.584	-13.92
690.613	-0.92
690.643	-4.92
690.672	4.08
690.702	9.08
690.731	-11.92
690.76	4.08
690.79	-7.92
690.819	-0.92
690.849	10.08
690.878	4.08
690.907	11.08
690.937	0.08
690.966	23.08
690.996	15.08
691.025	-6.92
691.054	6.08
691.084	0.08
691.113	9.08
691.142	3.08
691.172	15.08
691.201	14.08
691.23	-6.92
691.26	13.08
691.289	0.08
691.319	-7.92
691.348	10.08
691.377	15.08
691.407	6.08
691.436	17.08
691.465	-16.92
691.495	-4.92
691.524	-4.92
691.553	-10.92
691.583	-17.92
691.612	-6.92
691.641	-9.92
691.67	-1.92
691.7	0.08
691.729	-13.92
691.758	6.08
691.788	-6.92
691.817	7.08
691.846	-0.92
691.876	7.08
691.905	4.08
691.934	1.08
691.963	15.08
691.993	7.08
692.022	-1.92
692.051	-0.92
692.081	7.08
692.11	6.08
692.139	-9.92
692.168	5.08
692.198	8.08
692.227	13.08
692.256	3.08
692.285	6.08
692.315	6.08
692.344	6.08
692.373	1.08
692.402	-11.92
692.432	-8.92
692.461	4.08
692.49	-6.92
692.519	-4.92
692.548	5.08
692.578	12.08
692.607	-5.92
692.636	-15.92
692.665	-6.92
692.694	4.08
692.724	10.08
692.753	15.08
692.782	7.08
692.811	3.08
692.84	5.08
692.87	4.08
692.899	-1.92
692.928	0.08
692.957	8.08
692.986	7.08
693.016	12.08
693.045	19.08
693.074	12.08
693.103	1.08
693.132	4.08
693.161	7.08
693.191	1.08
693.22	-21.92
693.249	6.08
693.278	-9.92
693.307	0.08
693.336	-7.92
693.365	-8.92
693.395	-4.92
693.424	5.08
693.453	19.08
693.482	6.08
693.511	12.08
693.54	2.08
693.569	15.08
693.598	3.08
693.628	11.08
693.657	16.08
693.686	26.08
693.715	20.08
693.744	15.08
693.773	8.08
693.802	11.08
693.831	-5.92
693.86	17.08
693.889	-10.92
693.919	5.08
693.948	-1.92
693.977	6.08
694.006	0.08
694.035	2.08
694.064	-15.92
694.093	-8.92
694.122	11.08
694.151	-7.92
694.18	-10.92
694.209	22.08
694.238	5.08
694.267	13.08
694.296	-0.92
694.325	-9.92
694.354	7.08
694.383	9.08
694.412	-13.92
694.441	-4.92
694.471	-7.92
694.5	-10.92
694.529	10.08
694.558	27.08
694.587	4.08
694.616	-1.92
694.645	2.08
694.674	13.08
694.703	-1.92
694.732	-6.92
694.761	13.08
694.79	1.08
694.819	-11.92
694.848	4.08
694.877	10.08
694.906	5.08
694.935	12.08
694.963	27.08
694.992	4.08
695.021	-5.92
695.05	-3.92
695.079	3.08
695.108	-10.92
695.137	15.08
695.166	3.08
695.195	4.08
695.224	-0.92
695.253	3.08
695.282	8.08
695.311	-0.92
695.34	2.08
695.369	26.08
695.398	6.08
695.427	7.08
695.456	3.08
695.485	-11.92
695.513	-8.92
695.542	-2.92
695.571	-8.92
695.6	22.08
695.629	2.08
695.658	7.08
695.687	6.08
695.716	8.08
695.745	25.08
695.774	8.08
695.802	-0.92
695.831	17.08
695.86	17.08
695.889	14.08
695.918	6.08
695.947	14.08
695.976	-2.92
696.005	-21.92
696.033	0.08
696.062	3.08
696.091	5.08
696.12	8.08
696.149	27.08
696.178	-1.92
696.207	15.08
696.235	-10.92
696.264	2.08
696.293	3.08
696.322	-11.92
696.351	6.08
696.38	3.08
696.408	9.08
696.437	6.08
696.466	-2.92
696.495	27.08
696.524	3.08
696.553	0.08
696.581	4.08
696.61	-8.92
696.639	-5.92
696.668	14.08
696.697	-0.92
696.725	-3.92
696.754	-0.92
696.783	0.08
696.812	-1.92
696.84	13.08
696.869	3.08
696.898	-6.92
696.927	5.08
696.956	6.08
696.984	8.08
697.013	-2.92
697.042	-6.92
697.071	2.08
697.099	14.08
697.128	20.08
697.157	1.08
697.186	-2.92
697.214	-0.92
697.243	-8.92
697.272	6.08
697.301	13.08
697.329	-2.92
697.358	0.08
697.387	27.08
697.415	2.08
697.444	8.08
697.473	7.08
697.502	10.08
697.53	6.08
697.559	15.08
697.588	2.08
697.616	8.08
697.645	4.08
697.674	9.08
697.703	4.08
697.731	0.08
697.76	10.08
697.789	-4.92
697.817	12.08
697.846	26.08
697.875	2.08
697.903	11.08
697.932	-2.92
697.961	-7.92
697.989	3.08
698.018	17.08
698.047	-2.92
698.075	7.08
698.104	3.08
698.133	-11.92
698.161	-5.92
698.19	14.08
698.218	0.08
698.247	2.08
698.276	2.08
698.304	11.08
698.333	11.08
698.362	14.08
698.39	4.08
698.419	11.08
698.447	2.08
698.476	-12.92
698.505	1.08
698.533	8.08
698.562	11.08
698.591	8.08
698.619	-2.92
698.648	3.08
698.676	-1.92
698.705	-0.92
698.733	-4.92
698.762	12.08
698.791	4.08
698.819	6.08
698.848	0.08
698.876	14.08
698.905	8.08
698.933	4.08
698.962	5.08
698.991	-9.92
699.019	2.08
699.048	-1.92
699.076	7.08
699.105	-7.92
699.133	-9.92
699.162	12.08
699.19	23.08
699.219	16.08
699.248	5.08
699.276	-0.92
699.305	2.08
699.333	7.08
699.362	6.08
699.39	6.08
699.419	1.08
699.447	-0.92
699.476	4.08
699.504	-9.92
699.533	-1.92
699.561	-5.92
699.59	5.08
699.618	6.08
699.647	19.08
699.675	3.08
699.704	12.08
699.732	-12.92
699.761	3.08
699.789	6.08
699.818	15.08
699.846	3.08
699.874	-9.92
699.903	-16.92
699.931	-1.92
699.96	18.08
699.988	11.08
700.017	6.08
700.045	3.08
700.074	3.08
700.102	-5.92
700.13	-8.92
700.159	10.08
700.187	4.08
700.216	-0.92
700.244	-13.92
700.273	-4.92
700.301	1.08
700.329	12.08
700.358	10.08
700.386	10.08
700.415	4.08
700.443	-2.92
700.472	-2.92
700.5	-3.92
700.528	5.08
700.557	-1.92
700.585	6.08
700.614	12.08
700.642	18.08
700.67	11.08
700.699	13.08
700.727	2.08
700.755	2.08
700.784	-4.92
700.812	-4.92
700.841	3.08
700.869	-7.92
700.897	-29.92
700.926	-3.92
700.954	13.08
700.982	7.08
701.011	-6.92
701.039	7.08
701.067	-2.92
701.096	10.08
701.124	-1.92
701.152	-7.92
701.181	7.08
701.209	-10.92
701.237	5.08
701.266	-6.92
701.294	7.08
701.322	-4.92
701.351	0.08
701.379	-11.92
701.407	-3.92
701.435	-4.92
701.464	10.08
701.492	3.08
701.52	16.08
701.549	-3.92
701.577	-12.92
701.605	-1.92
701.634	3.08
701.662	0.08
701.69	-5.92
701.718	-5.92
701.747	3.08
701.775	3.08
701.803	-7.92
701.831	11.08
701.86	10.08
701.888	3.08
701.916	14.08
701.944	13.08
701.973	1.08
702.001	-1.92
702.029	-4.92
702.057	-6.92
702.086	-10.92
702.114	-4.92
702.142	9.08
702.17	-12.92
702.199	10.08
702.227	3.08
702.255	13.08
702.283	7.08
702.311	15.08
702.34	-7.92
702.368	-18.92
702.396	6.08
702.424	-0.92
702.452	-3.92
702.481	-11.92
702.509	19.08
702.537	16.08
702.565	-3.92
702.593	-10.92
702.621	6.08
702.65	-2.92
702.678	3.08
702.706	-2.92
702.734	-8.92
702.762	7.08
702.79	2.08
702.819	15.08
702.847	-6.92
702.875	17.08
702.903	11.08
702.931	-2.92
702.959	0.08
702.988	3.08
703.016	-7.92
703.044	8.08
703.072	10.08
703.1	-10.92
703.128	-11.92
703.156	3.08
703.184	-19.92
703.212	1.08
703.241	1.08
703.269	3.08
703.297	-0.92
703.325	-0.92
703.353	-19.92
703.381	1.08
703.409	10.08
703.437	-8.92
703.465	11.08
703.493	-13.92
703.522	-15.92
703.55	12.08
703.578	-0.92
703.606	-7.92
703.634	0.08
703.662	-3.92
703.69	-0.92
703.718	18.08
703.746	21.08
703.774	-3.92
703.802	14.08
703.83	0.08
703.858	-2.92
703.886	4.08
703.914	4.08
703.942	11.08
703.97	-16.92
703.998	-5.92
704.027	15.08
704.055	9.08
704.083	-3.92
704.111	-9.92
704.139	-7.92
704.167	-15.92
704.195	2.08
704.223	-8.92
704.251	4.08
704.279	10.08
704.307	10.08
704.335	-12.92
704.363	-4.92
704.391	-23.92
704.419	-4.92
704.447	-2.92
704.475	0.08
704.503	-11.92
704.531	9.08
704.558	4.08
704.586	5.08
704.614	-3.92
704.642	11.08
704.67	-7.92
704.698	-7.92
704.726	-1.92
704.754	7.08
704.782	-0.92
704.81	-11.92
704.838	24.08
704.866	9.08
704.894	-11.92
704.922	0.08
704.95	4.08
704.978	-2.92
705.006	15.08
705.034	23.08
705.061	-5.92
705.089	3.08
705.117	-10.92
705.145	-2.92
705.173	3.08
705.201	6.08
705.229	24.08
705.257	-8.92
705.285	13.08
705.313	13.08
705.34	5.08
705.368	-3.92
705.396	-5.92
705.424	-16.92
705.452	-4.92
705.48	10.08
705.508	7.08
705.536	19.08
705.563	6.08
705.591	-3.92
705.619	-1.92
705.647	-1.92
705.675	1.08
705.703	-3.92
705.731	7.08
705.758	10.08
705.786	-7.92
705.814	12.08
705.842	11.08
705.87	8.08
705.898	12.08
705.925	-4.92
705.953	15.08
705.981	-2.92
706.009	5.08
706.037	2.08
706.065	-15.92
706.092	-6.92
706.12	5.08
706.148	-5.92
706.176	4.08
706.204	8.08
706.231	-2.92
706.259	-22.92
706.287	-11.92
706.315	9.08
706.342	-0.92
706.37	11.08
706.398	3.08
706.426	-2.92
706.454	-8.92
706.481	14.08
706.509	8.08
706.537	0.08
706.565	-20.92
706.592	11.08
706.62	-8.92
706.648	9.08
706.676	-17.92
706.703	-2.92
706.731	-1.92
706.759	-1.92
706.787	11.08
706.814	4.08
706.842	-11.92
706.87	-10.92
706.897	-10.92
706.925	-4.92
706.953	-1.92
706.981	19.08
707.008	10.08
707.036	-0.92
707.064	-0.92
707.091	-9.92
707.119	1.08
707.147	0.08
707.174	-4.92
707.202	11.08
707.23	-0.92
707.258	9.08
707.285	-4.92
707.313	2.08
707.341	-9.92
707.368	-1.92
707.396	10.08
707.424	27.08
707.451	-16.92
707.479	-8.92
707.507	-9.92
707.534	-16.92
707.562	2.08
707.59	-9.92
707.617	-2.92
707.645	-5.92
707.672	-3.92
707.7	7.08
707.728	8.08
707.755	0.08
707.783	0.08
707.811	5.08
707.838	-24.92
707.866	-10.92
707.893	4.08
707.921	0.08
707.949	-11.92
707.976	6.08
708.004	4.08
708.031	3.08
708.059	-18.92
708.087	-1.92
708.114	-0.92
708.142	2.08
708.169	5.08
708.197	-2.92
708.225	-3.92
708.252	2.08
708.28	-0.92
708.307	0.08
708.335	8.08
708.362	14.08
708.39	-2.92
708.418	5.08
708.445	-16.92
708.473	-9.92
708.5	-6.92
708.528	-0.92
708.555	-15.92
708.583	2.08
708.61	-7.92
708.638	12.08
708.665	-15.92
708.693	-9.92
708.72	-13.92
708.748	-6.92
708.776	7.08
708.803	20.08
708.831	3.08
708.858	14.08
708.886	6.08
708.913	-3.92
708.941	-4.92
708.968	18.08
708.996	-3.92
709.023	28.08
709.051	-2.92
709.078	3.08
709.105	9.08
709.133	-13.92
709.16	-4.92
709.188	7.08
709.215	13.08
709.243	1.08
709.27	-5.92
709.298	-11.92
709.325	-10.92
709.353	-2.92
709.38	1.08
709.408	10.08
709.435	9.08
709.462	-3.92
709.49	3.08
709.517	-3.92
709.545	-4.92
709.572	-2.92
709.6	0.08
709.627	0.08
709.655	-4.92
709.682	5.08
709.709	0.08
709.737	-9.92
709.764	-9.92
709.792	3.08
709.819	1.08
709.846	-7.92
709.874	1.08
709.901	10.08
709.929	20.08
709.956	6.08
709.983	-14.92
710.011	3.08
710.038	2.08
710.066	8.08
710.093	11.08
710.12	-1.92
710.148	-2.92
710.175	-4.92
710.202	-5.92
710.23	-5.92
710.257	0.08
710.284	-1.92
710.312	10.08
710.339	3.08
710.366	-6.92
710.394	2.08
710.421	1.08
710.448	4.08
710.476	-8.92
710.503	-32.92
710.53	7.08
710.558	5.08
710.585	6.08
710.612	-5.92
710.64	-8.92
710.667	-7.92
710.694	-17.92
710.722	20.08
710.749	7.08
710.776	-1.92
710.804	14.08
710.831	5.08
710.858	3.08
710.885	-20.92
710.913	3.08
710.94	7.08
710.967	1.08
710.995	6.08
711.022	-0.92
711.049	0.08
711.076	-7.92
711.104	6.08
711.131	-8.92
711.158	-10.92
711.185	0.08
711.213	-24.92
711.24	-12.92
711.267	-7.92
711.294	2.08
711.322	13.08
711.349	-11.92
711.376	-10.92
711.403	6.08
711.431	-7.92
711.458	-10.92
711.485	7.08
711.512	15.08
711.54	1.08
711.567	6.08
711.594	2.08
711.621	-5.92
711.648	8.08
711.676	3.08
711.703	11.08
711.73	1.08
711.757	11.08
711.784	2.08
711.812	-5.92
711.839	-5.92
711.866	-1.92
711.893	-18.92
711.92	-0.92
711.947	-6.92
711.975	8.08
712.002	-10.92
712.029	8.08
712.056	-6.92
712.083	2.08
712.11	-4.92
712.138	3.08
712.165	7.08
712.192	-8.92
712.219	-6.92
712.246	-8.92
712.273	-8.92
712.3	-2.92
712.328	2.08
712.355	-0.92
712.382	0.08
712.409	12.08
712.436	-7.92
712.463	6.08
712.49	9.08
712.517	1.08
712.544	-1.92
712.572	-4.92
712.599	-12.92
712.626	9.08
712.653	-1.92
712.68	10.08
712.707	5.08
712.734	2.08
712.761	0.08
712.788	2.08
712.815	-5.92
712.842	14.08
712.87	-0.92
712.897	-8.92
712.924	-8.92
712.951	4.08
712.978	18.08
713.005	22.08
713.032	3.08
713.059	-2.92
713.086	-2.92
713.113	-2.92
713.14	-4.92
713.167	3.08
713.194	7.08
713.221	-2.92
713.248	8.08
713.275	-6.92
713.302	4.08
713.329	-0.92
713.356	10.08
713.383	14.08
713.41	12.08
713.437	-11.92
713.464	-0.92
713.491	12.08
713.518	1.08
713.545	-4.92
713.572	-8.92
713.599	14.08
713.626	0.08
713.653	17.08
713.68	4.08
713.707	0.08
713.734	-2.92
713.761	-4.92
713.788	0.08
713.815	10.08
713.842	-6.92
713.869	-1.92
713.896	-2.92
713.923	0.08
713.95	-5.92
713.977	-0.92
714.004	-9.92
714.031	-0.92
714.058	-9.92
714.085	-7.92
714.112	6.08
714.139	-16.92
714.165	-18.92
714.192	-14.92
714.219	-8.92
714.246	2.08
714.273	7.08
714.3	7.08
714.327	-3.92
714.354	3.08
714.381	6.08
714.408	11.08
714.435	2.08
714.461	-2.92
714.488	20.08
714.515	13.08
714.542	-0.92
714.569	2.08
714.596	-8.92
714.623	-20.92
714.65	-12.92
714.677	-11.92
714.703	-0.92
714.73	6.08
714.757	18.08
714.784	14.08
714.811	-8.92
714.838	2.08
714.865	-3.92
714.891	10.08
714.918	-2.92
714.945	-16.92
714.972	-11.92
714.999	-0.92
715.026	-6.92
715.052	15.08
715.079	9.08
715.106	3.08
715.133	7.08
715.16	-7.92
715.187	10.08
715.213	12.08
715.24	-5.92
715.267	4.08
715.294	-3.92
715.321	4.08
715.347	-1.92
715.374	-0.92
715.401	-11.92
715.428	4.08
715.455	6.08
715.481	-7.92
715.508	9.08
715.535	0.08
715.562	17.08
715.588	24.08
715.615	0.08
715.642	3.08
715.669	-0.92
715.695	-2.92
715.722	-16.92
715.749	-7.92
715.776	7.08
715.802	2.08
715.829	3.08
715.856	-9.92
715.883	8.08
715.909	-12.92
715.936	-0.92
715.963	-7.92
715.99	-29.92
716.016	-0.92
716.043	-4.92
716.07	-23.92
716.096	-3.92
716.123	-1.92
716.15	4.08
716.177	3.08
716.203	10.08
716.23	11.08
716.257	13.08
716.283	7.08
716.31	0.08
716.337	10.08
716.363	10.08
716.39	-5.92
716.417	13.08
716.443	-12.92
716.47	0.08
716.497	6.08
716.523	12.08
716.55	-1.92
716.577	7.08
716.603	-13.92
716.63	3.08
716.657	2.08
716.683	-8.92
716.71	3.08
716.737	4.08
716.763	9.08
716.79	13.08
716.817	13.08
716.843	10.08
716.87	-16.92
716.897	-18.92
716.923	13.08
716.95	-15.92
716.976	-15.92
717.003	5.08
717.03	8.08
717.056	6.08
717.083	-4.92
717.109	3.08
717.136	4.08
717.163	3.08
717.189	6.08
717.216	11.08
717.242	-7.92
717.269	-4.92
717.296	2.08
717.322	17.08
717.349	1.08
717.375	8.08
717.402	8.08
717.428	-10.92
717.455	20.08
717.481	1.08
717.508	13.08
717.535	15.08
717.561	9.08
717.588	2.08
717.614	-3.92
717.641	-5.92
717.667	-7.92
717.694	15.08
717.72	0.08
717.747	-6.92
717.773	-10.92
717.8	1.08
717.826	6.08
717.853	2.08
717.88	-4.92
717.906	1.08
717.933	1.08
717.959	0.08
717.986	-4.92
718.012	3.08
718.039	17.08
718.065	14.08
718.092	8.08
718.118	-8.92
718.144	2.08
718.171	22.08
718.197	13.08
718.224	-1.92
718.25	7.08
718.277	-2.92
718.303	-4.92
718.33	1.08
718.356	-15.92
718.383	-13.92
718.409	7.08
718.436	0.08
718.462	-6.92
718.489	0.08
718.515	10.08
718.541	2.08
718.568	3.08
718.594	12.08
718.621	14.08
718.647	10.08
718.674	-3.92
718.7	8.08
718.726	-11.92
718.753	-6.92
718.779	3.08
718.806	1.08
718.832	-3.92
718.858	4.08
718.885	-1.92
718.911	4.08
718.938	9.08
718.964	-13.92
718.99	7.08
719.017	13.08
719.043	4.08
719.07	25.08
719.096	-13.92
719.122	-1.92
719.149	5.08
719.175	3.08
719.201	-0.92
719.228	17.08
719.254	2.08
719.281	-1.92
719.307	5.08
719.333	-1.92
719.36	24.08
719.386	4.08
719.412	12.08
719.439	-7.92
719.465	-1.92
719.491	3.08
719.518	5.08
719.544	-3.92
719.57	-6.92
719.597	8.08
719.623	3.08
719.649	10.08
719.675	7.08
719.702	7.08
719.728	20.08
719.754	-2.92
719.781	-5.92
719.807	3.08
719.833	3.08
719.86	-3.92
719.886	-21.92
719.912	3.08
719.938	-3.92
719.965	-7.92
719.991	16.08
720.017	9.08
720.044	-9.92
720.07	2.08
720.096	14.08
720.122	-1.92
720.149	6.08
720.175	17.08
720.201	-4.92
720.227	0.08
720.254	7.08
720.28	2.08
720.306	-27.92
720.332	-4.92
720.359	-4.92
720.385	3.08
720.411	-6.92
720.437	7.08
720.463	-0.92
720.49	6.08
720.516	-7.92
720.542	-12.92
720.568	4.08
720.595	6.08
720.621	10.08
720.647	-3.92
720.673	4.08
720.699	-5.92
720.725	-1.92
720.752	-1.92
720.778	6.08
720.804	4.08
720.83	6.08
720.856	-1.92
720.883	-9.92
720.909	6.08
720.935	4.08
720.961	9.08
720.987	12.08
721.013	3.08
721.04	-6.92
721.066	4.08
721.092	-1.92
721.118	10.08
721.144	3.08
721.17	8.08
721.196	-9.92
721.223	-2.92
721.249	-0.92
721.275	12.08
721.301	9.08
721.327	21.08
721.353	-2.92
721.379	-4.92
721.405	7.08
721.432	11.08
721.458	0.08
721.484	23.08
721.51	-7.92
721.536	-8.92
721.562	9.08
721.588	-2.92
721.614	-5.92
721.64	-13.92
721.666	-3.92
721.693	-15.92
721.719	-9.92
721.745	-1.92
721.771	-17.92
721.797	7.08
721.823	11.08
721.849	33.08
721.875	9.08
721.901	10.08
721.927	-0.92
721.953	-2.92
721.979	22.08
722.005	4.08
722.031	-1.92
722.057	-1.92
722.083	-0.92
722.109	10.08
722.135	19.08
722.161	12.08
722.187	2.08
722.214	-6.92
722.24	14.08
722.266	-10.92
722.292	4.08
722.318	-0.92
722.344	-6.92
722.37	10.08
722.396	3.08
722.422	-2.92
722.448	-1.92
722.474	-16.92
722.5	23.08
722.526	0.08
722.552	4.08
722.578	2.08
722.603	7.08
722.629	-11.92
722.655	-1.92
722.681	-3.92
722.707	4.08
722.733	-7.92
722.759	0.08
722.785	5.08
722.811	-10.92
722.837	17.08
722.863	20.08
722.889	11.08
722.915	13.08
722.941	0.08
722.967	-5.92
722.993	-0.92
723.019	2.08
723.045	13.08
723.071	8.08
723.097	5.08
723.122	5.08
723.148	-0.92
723.174	-5.92
723.2	2.08
723.226	1.08
723.252	6.08
723.278	-10.92
723.304	-7.92
723.33	7.08
723.356	-2.92
723.381	0.08
723.407	-1.92
723.433	3.08
723.459	-1.92
723.485	-0.92
723.511	-0.92
723.537	0.08
723.563	-5.92
723.588	5.08
723.614	-2.92
723.64	-1.92
723.666	-11.92
723.692	-0.92
723.718	-8.92
723.744	-5.92
723.769	3.08
723.795	-1.92
723.821	-1.92
723.847	0.08
723.873	-1.92
723.899	13.08
723.924	0.08
723.95	18.08
723.976	-7.92
724.002	-5.92
724.028	10.08
724.053	-1.92
724.079	-0.92
724.105	11.08
724.131	0.08
724.157	-9.92
724.182	3.08
724.208	4.08
724.234	10.08
724.26	-11.92
724.286	16.08
724.311	2.08
724.337	0.08
724.363	-3.92
724.389	8.08
724.415	-15.92
724.44	17.08
724.466	-6.92
724.492	-7.92
724.518	4.08
724.543	12.08
724.569	1.08
724.595	8.08
724.621	-2.92
724.646	3.08
724.672	19.08
724.698	2.08
724.723	-0.92
724.749	12.08
724.775	5.08
724.801	9.08
724.826	-4.92
724.852	3.08
724.878	3.08
724.904	-5.92
724.929	13.08
724.955	-14.92
724.981	3.08
725.006	-11.92
725.032	-7.92
725.058	20.08
725.083	1.08
725.109	-5.92
725.135	4.08
725.161	12.08
725.186	5.08
725.212	-1.92
725.238	0.08
725.263	11.08
725.289	-3.92
725.315	-5.92
725.34	4.08
725.366	7.08
725.392	5.08
725.417	0.08
725.443	-2.92
725.468	-4.92
725.494	2.08
725.52	3.08
725.545	-2.92
725.571	-7.92
725.597	-11.92
725.622	3.08
725.648	-2.92
725.674	4.08
725.699	-10.92
725.725	-0.92
725.75	23.08
725.776	3.08
725.802	-12.92
725.827	18.08
725.853	-0.92
725.878	6.08
725.904	-5.92
725.93	4.08
725.955	-24.92
725.981	-13.92
726.006	-3.92
726.032	15.08
726.057	-3.92
726.083	-11.92
726.109	12.08
726.134	-9.92
726.16	-5.92
726.185	9.08
726.211	-14.92
726.236	1.08
726.262	-0.92
726.288	-2.92
726.313	3.08
726.339	-5.92
726.364	-5.92
726.39	31.08
726.415	6.08
726.441	-5.92
726.466	-9.92
726.492	17.08
726.517	8.08
726.543	-2.92
726.568	-14.92
726.594	-10.92
726.619	-0.92
726.645	-0.92
726.67	-0.92
726.696	5.08
726.721	-0.92
726.747	-5.92
726.772	8.08
726.798	9.08
726.823	12.08
726.849	8.08
726.874	8.08
726.9	22.08
726.925	16.08
726.951	1.08
726.976	8.08
727.002	3.08
727.027	16.08
727.053	10.08
727.078	3.08
727.104	0.08
727.129	0.08
727.155	-5.92
727.18	-1.92
727.205	7.08
727.231	7.08
727.256	-2.92
727.282	-4.92
727.307	13.08
727.333	-3.92
727.358	-13.92
727.383	-8.92
727.409	-7.92
727.434	16.08
727.46	6.08
727.485	7.08
727.511	9.08
727.536	-27.92
727.561	-5.92
727.587	0.08
727.612	-9.92
727.637	-5.92
727.663	-4.92
727.688	20.08
727.714	5.08
727.739	-11.92
727.764	-2.92
727.79	10.08
727.815	10.08
727.841	12.08
727.866	-4.92
727.891	14.08
727.917	8.08
727.942	-9.92
727.967	-17.92
727.993	-3.92
728.018	-3.92
728.043	5.08
728.069	12.08
728.094	8.08
728.119	5.08
728.145	5.08
728.17	1.08
728.195	11.08
728.221	6.08
728.246	4.08
728.271	-11.92
728.297	-1.92
728.322	-1.92
728.347	4.08
728.373	2.08
728.398	-0.92
728.423	-9.92
728.448	11.08
728.474	-7.92
728.499	3.08
728.524	-0.92
728.55	-19.92
728.575	2.08
728.6	-0.92
728.625	-3.92
728.651	-3.92
728.676	2.08
728.701	-0.92
728.727	4.08
728.752	-8.92
728.777	-5.92
728.802	-2.92
728.828	11.08
728.853	7.08
728.878	-5.92
728.903	-4.92
728.929	-8.92
728.954	-0.92
728.979	15.08
729.004	2.08
729.03	-4.92
729.055	12.08
729.08	-2.92
729.105	-12.92
729.13	16.08
729.156	7.08
729.181	10.08
729.206	-9.92
729.231	-9.92
729.256	14.08
729.282	-4.92
729.307	-17.92
729.332	1.08
729.357	-5.92
729.382	1.08
729.408	24.08
729.433	6.08
729.458	10.08
729.483	5.08
729.508	13.08
729.533	5.08
729.559	-3.92
729.584	-9.92
729.609	5.08
729.634	5.08
729.659	3.08
729.684	-2.92
729.71	22.08
729.735	17.08
729.76	4.08
729.785	2.08
729.81	0.08
729.835	-5.92
729.86	-7.92
729.886	11.08
729.911	-5.92
729.936	-5.92
729.961	7.08
729.986	-12.92
730.011	4.08
730.036	-11.92
730.061	7.08
730.086	23.08
730.112	8.08
730.137	11.08
730.162	-6.92
730.187	-25.92
730.212	12.08
730.237	-1.92
730.262	-15.92
730.287	-4.92
730.312	10.08
730.337	0.08
730.362	11.08
730.387	8.08
730.413	-4.92
730.438	2.08
730.463	-3.92
730.488	-11.92
730.513	-10.92
730.538	4.08
730.563	14.08
730.588	-4.92
730.613	1.08
730.638	2.08
730.663	-13.92
730.688	8.08
730.713	5.08
730.738	-0.92
730.763	6.08
730.788	-4.92
730.813	-8.92
730.838	-1.92
730.863	3.08
730.888	-10.92
730.913	-11.92
730.938	-17.92
730.963	-10.92
730.988	0.08
731.013	15.08
731.038	-8.92
731.063	2.08
731.088	5.08
731.113	-6.92
731.138	-4.92
731.163	-1.92
731.188	-18.92
731.213	15.08
731.238	16.08
731.263	0.08
731.288	-13.92
731.313	9.08
731.338	-9.92
731.363	-3.92
731.388	14.08
731.413	-6.92
731.438	13.08
731.463	3.08
731.487	11.08
731.512	-16.92
731.537	-1.92
731.562	-1.92
731.587	4.08
731.612	-2.92
731.637	-10.92
731.662	1.08
731.687	-5.92
731.712	-13.92
731.737	12.08
731.762	-3.92
731.786	-3.92
731.811	4.08
731.836	-10.92
731.861	-17.92
731.886	-5.92
731.911	-1.92
731.936	5.08
731.961	-6.92
731.986	6.08
732.01	-2.92
732.035	16.08
732.06	12.08
732.085	2.08
732.11	3.08
732.135	-6.92
732.16	10.08
732.184	3.08
732.209	-7.92
732.234	4.08
732.259	0.08
732.284	5.08
732.309	3.08
732.334	-3.92
732.358	-12.92
732.383	-7.92
732.408	0.08
732.433	2.08
732.458	6.08
732.482	11.08
732.507	0.08
732.532	12.08
732.557	10.08
732.582	10.08
732.607	-2.92
732.631	-14.92
732.656	-8.92
732.681	-1.92
732.706	-5.92
732.73	-0.92
732.755	-6.92
732.78	-0.92
732.805	2.08
732.83	-2.92
732.854	2.08
732.879	11.08
732.904	-0.92
732.929	6.08
732.953	-1.92
732.978	0.08
733.003	-8.92
733.028	-5.92
733.052	28.08
733.077	7.08
733.102	0.08
733.127	1.08
733.151	-9.92
733.176	-3.92
733.201	-13.92
733.226	-12.92
733.25	-5.92
733.275	4.08
733.3	13.08
733.324	15.08
733.349	1.08
733.374	9.08
733.399	-4.92
733.423	8.08
733.448	-2.92
733.473	-8.92
733.497	-1.92
733.522	4.08
733.547	23.08
733.571	15.08
733.596	3.08
733.621	4.08
733.646	4.08
733.67	-3.92
733.695	2.08
733.72	2.08
733.744	18.08
733.769	-0.92
733.794	13.08
733.818	-2.92
733.843	-5.92
733.867	-14.92
733.892	-1.92
733.917	-0.92
733.941	2.08
733.966	-0.92
733.991	-1.92
734.015	2.08
734.04	2.08
734.065	4.08
734.089	3.08
734.114	-6.92
734.138	10.08
734.163	-9.92
734.188	11.08
734.212	12.08
734.237	3.08
734.261	6.08
734.286	-0.92
734.311	-11.92
734.335	-5.92
734.36	-3.92
734.384	9.08
734.409	-7.92
734.434	-16.92
734.458	-5.92
734.483	4.08
734.507	4.08
734.532	0.08
734.556	-4.92
734.581	-3.92
734.606	-2.92
734.63	-19.92
734.655	8.08
734.679	11.08
734.704	-2.92
734.728	-5.92
734.753	-1.92
734.777	9.08
734.802	17.08
734.826	17.08
734.851	12.08
734.876	17.08
734.9	11.08
734.925	-4.92
734.949	7.08
734.974	-0.92
734.998	-3.92
735.023	-10.92
735.047	-13.92
735.072	23.08
735.096	9.08
735.121	3.08
735.145	-1.92
735.17	-4.92
735.194	2.08
735.219	0.08
735.243	6.08
735.268	13.08
735.292	14.08
735.317	2.08
735.341	23.08
735.365	-3.92
735.39	-0.92
735.414	4.08
735.439	3.08
735.463	-2.92
735.488	5.08
735.512	7.08
735.537	11.08
735.561	7.08
735.586	-0.92
735.61	18.08
735.634	-8.92
735.659	4.08
735.683	19.08
735.708	-5.92
735.732	3.08
735.757	-6.92
735.781	7.08
735.805	9.08
735.83	-2.92
735.854	5.08
735.879	-2.92
735.903	19.08
735.927	3.08
735.952	7.08
735.976	-2.92
736.001	-5.92
736.025	-20.92
736.049	11.08
736.074	10.08
736.098	0.08
736.123	17.08
736.147	6.08
736.171	-0.92
736.196	5.08
736.22	-17.92
736.244	-3.92
736.269	-2.92
736.293	-6.92
736.317	-1.92
736.342	3.08
736.366	10.08
736.39	13.08
736.415	-5.92
736.439	-3.92
736.463	11.08
736.488	7.08
736.512	11.08
736.536	-2.92
736.561	24.08
736.585	-11.92
736.609	5.08
736.634	-15.92
736.658	-12.92
736.682	-17.92
736.707	-15.92
736.731	-0.92
736.755	-1.92
736.78	15.08
736.804	2.08
736.828	6.08
736.852	-2.92
736.877	-9.92
736.901	-4.92
736.925	9.08
736.949	17.08
736.974	-3.92
736.998	-10.92
737.022	3.08
737.047	-1.92
737.071	7.08
737.095	16.08
737.119	19.08
737.144	-11.92
737.168	2.08
737.192	-12.92
737.216	16.08
737.241	7.08
737.265	-2.92
737.289	17.08
737.313	7.08
737.337	4.08
737.362	5.08
737.386	6.08
737.41	-0.92
737.434	-6.92
737.459	12.08
737.483	31.08
737.507	6.08
737.531	14.08
737.555	6.08
737.58	4.08
737.604	0.08
737.628	-29.92
737.652	-3.92
737.676	-9.92
737.701	16.08
737.725	3.08
737.749	9.08
737.773	2.08
737.797	5.08
737.821	-2.92
737.846	16.08
737.87	34.08
737.894	-1.92
737.918	8.08
737.942	-1.92
737.966	6.08
737.99	22.08
738.015	13.08
738.039	3.08
738.063	12.08
738.087	15.08
738.111	-12.92
738.135	-0.92
738.159	7.08
738.184	3.08
738.208	-3.92
738.232	-1.92
738.256	18.08
738.28	18.08
738.304	18.08
738.328	0.08
738.352	14.08
738.376	4.08
738.4	17.08
738.425	14.08
738.449	-9.92
738.473	6.08
738.497	-2.92
738.521	7.08
738.545	6.08
738.569	0.08
738.593	7.08
738.617	21.08
738.641	-6.92
738.665	-5.92
738.689	-2.92
738.713	-5.92
738.737	13.08
738.762	-0.92
738.786	0.08
738.81	-5.92
738.834	16.08
738.858	-1.92
738.882	10.08
738.906	-7.92
738.93	16.08
738.954	10.08
738.978	19.08
739.002	0.08
739.026	10.08
739.05	8.08
739.074	-6.92
739.098	9.08
739.122	17.08
739.146	-3.92
739.17	20.08
739.194	13.08
739.218	-16.92
739.242	3.08
739.266	-8.92
739.29	7.08
739.314	16.08
739.338	11.08
739.362	15.08
739.386	2.08
739.41	-4.92
739.434	3.08
739.458	9.08
739.482	2.08
739.506	10.08
739.53	5.08
739.554	8.08
739.577	11.08
739.601	15.08
739.625	-7.92
739.649	7.08
739.673	2.08
739.697	2.08
739.721	-3.92
739.745	1.08
739.769	11.08
739.793	-0.92
739.817	21.08
739.841	5.08
739.865	14.08
739.889	-5.92
739.912	13.08
739.936	2.08
739.96	8.08
739.984	16.08
740.008	3.08
740.032	-6.92
740.056	-3.92
740.08	-8.92
740.104	-1.92
740.127	2.08
740.151	3.08
740.175	8.08
740.199	2.08
740.223	45.08
740.247	6.08
740.271	14.08
740.295	4.08
740.318	-8.92
740.342	-0.92
740.366	9.08
740.39	11.08
740.414	-3.92
740.438	-0.92
740.461	17.08
740.485	5.08
740.509	-22.92
740.533	-0.92
740.557	-7.92
740.581	-5.92
740.604	0.08
740.628	-2.92
740.652	7.08
740.676	1.08
740.7	-4.92
740.723	-0.92
740.747	-2.92
740.771	9.08
740.795	-4.92
740.819	6.08
740.842	1.08
740.866	12.08
740.89	7.08
740.914	6.08
740.938	-18.92
740.961	15.08
740.985	2.08
741.009	-0.92
741.033	0.08
741.056	5.08
741.08	3.08
741.104	2.08
741.128	11.08
741.151	8.08
741.175	0.08
741.199	-11.92
741.223	12.08
741.246	0.08
741.27	-1.92
741.294	7.08
741.318	-1.92
741.341	-6.92
741.365	6.08
741.389	4.08
741.413	6.08
741.436	16.08
741.46	13.08
741.484	20.08
741.507	6.08
741.531	33.08
741.555	5.08
741.579	2.08
741.602	6.08
741.626	17.08
741.65	-24.92
741.673	-4.92
741.697	6.08
741.721	15.08
741.744	-13.92
741.768	-1.92
741.792	-2.92
741.815	6.08
741.839	13.08
741.863	18.08
741.886	6.08
741.91	24.08
741.934	8.08
741.957	-4.92
741.981	8.08
742.005	-6.92
742.028	-31.92
742.052	-25.92
742.075	8.08
742.099	15.08
742.123	11.08
742.146	6.08
742.17	16.08
742.194	-9.92
742.217	-7.92
742.241	-5.92
742.264	2.08
742.288	34.08
742.312	9.08
742.335	10.08
742.359	0.08
742.382	-2.92
742.406	6.08
742.43	-5.92
742.453	-7.92
742.477	-5.92
742.5	9.08
742.524	0.08
742.548	-0.92
742.571	-4.92
742.595	5.08
742.618	-1.92
742.642	-13.92
742.665	11.08
742.689	-12.92
742.712	9.08
742.736	1.08
742.76	6.08
742.783	-3.92
742.807	5.08
742.83	-1.92
742.854	1.08
742.877	-5.92
742.901	6.08
742.924	-5.92
742.948	4.08
742.971	11.08
742.995	-0.92
743.018	-17.92
743.042	-4.92
743.065	2.08
743.089	-8.92
743.112	5.08
743.136	-6.92
743.159	-2.92
743.183	9.08
743.206	14.08
743.23	-3.92
743.253	3.08
743.277	8.08
743.3	-3.92
743.324	-4.92
743.347	-2.92
743.371	18.08
743.394	10.08
743.418	15.08
743.441	6.08
743.465	4.08
743.488	7.08
743.512	-3.92
743.535	10.08
743.558	-1.92
743.582	-2.92
743.605	3.08
743.629	7.08
743.652	4.08
743.676	-5.92
743.699	22.08
743.723	3.08
743.746	5.08
743.769	-5.92
743.793	10.08
743.816	-1.92
743.84	7.08
743.863	-4.92
743.886	0.08
743.91	18.08
743.933	15.08
743.957	11.08
743.98	-2.92
744.003	3.08
744.027	15.08
744.05	10.08
744.074	3.08
744.097	-2.92
744.12	4.08
744.144	-5.92
744.167	19.08
744.19	-5.92
744.214	-19.92
744.237	-19.92
744.26	4.08
744.284	-7.92
744.307	-16.92
744.331	2.08
744.354	-11.92
744.377	-1.92
744.401	9.08
744.424	-5.92
744.447	-6.92
744.471	-20.92
