Data from HighRes_H2D2_15_04_11_07_2024_HR4C61891__38__15-05-38-243.txt Node

Date: Thu Nov 07 15:05:38 EST 2024
User: crc00042
Spectrometer: HR4C6189
Trigger mode: 4
Integration Time (sec): 1.000000E-1
Scans to average: 1
Electric dark correction enabled: true
Nonlinearity correction enabled: false
Boxcar width: 0
XAxis mode: Wavelengths
Number of Pixels in Spectrum: 3648
>>>>>Begin Spectral Data<<<<<
639.567	-74.69
639.602	-74.69
639.636	-74.69
639.67	-49.69
639.704	-3.69
639.738	-12.69
639.773	18.31
639.807	-15.69
639.841	-2.69
639.875	19.31
639.909	-12.69
639.943	-2.69
639.978	-2.69
640.012	-1.69
640.046	10.31
640.08	16.31
640.114	0.31
640.148	-13.69
640.182	-15.69
640.217	8.31
640.251	25.31
640.285	6.31
640.319	1.31
640.353	9.31
640.387	1.31
640.421	10.31
640.455	0.31
640.49	-10.69
640.524	3.31
640.558	9.31
640.592	-4.69
640.626	-3.69
640.66	11.31
640.694	-3.69
640.728	5.31
640.762	-0.69
640.796	18.31
640.83	10.31
640.865	-4.69
640.899	-0.69
640.933	-0.69
640.967	3.31
641.001	14.31
641.035	13.31
641.069	8.31
641.103	3.31
641.137	0.31
641.171	-15.69
641.205	24.31
641.239	17.31
641.273	17.31
641.307	5.31
641.341	11.31
641.375	-4.69
641.409	4.31
641.443	3.31
641.477	12.31
641.511	1.31
641.545	1.31
641.579	1.31
641.614	17.31
641.648	20.31
641.682	-9.69
641.716	-5.69
641.75	22.31
641.784	6.31
641.818	-1.69
641.852	1.31
641.886	-11.69
641.919	16.31
641.953	6.31
641.987	-2.69
642.021	-2.69
642.055	6.31
642.089	8.31
642.123	-14.69
642.157	-5.69
642.191	-17.69
642.225	14.31
642.259	-1.69
642.293	4.31
642.327	12.31
642.361	0.31
642.395	7.31
642.429	17.31
642.463	6.31
642.497	19.31
642.531	10.31
642.565	-7.69
642.599	1.31
642.633	1.31
642.666	13.31
642.7	-1.69
642.734	18.31
642.768	-6.69
642.802	7.31
642.836	6.31
642.87	6.31
642.904	10.31
642.938	9.31
642.972	-1.69
643.005	2.31
643.039	11.31
643.073	-5.69
643.107	3.31
643.141	-5.69
643.175	5.31
643.209	10.31
643.243	11.31
643.276	10.31
643.31	12.31
643.344	11.31
643.378	13.31
643.412	14.31
643.446	-7.69
643.48	-7.69
643.513	12.31
643.547	-4.69
643.581	-2.69
643.615	15.31
643.649	0.31
643.683	10.31
643.716	6.31
643.75	2.31
643.784	-3.69
643.818	9.31
643.852	0.31
643.886	11.31
643.919	4.31
643.953	-5.69
643.987	0.31
644.021	6.31
644.055	0.31
644.088	-0.69
644.122	-16.69
644.156	-12.69
644.19	6.31
644.224	-0.69
644.257	-3.69
644.291	8.31
644.325	-3.69
644.359	12.31
644.392	26.31
644.426	19.31
644.46	11.31
644.494	7.31
644.527	-6.69
644.561	-2.69
644.595	-5.69
644.629	-15.69
644.662	-5.69
644.696	27.31
644.73	-1.69
644.764	6.31
644.797	8.31
644.831	-0.69
644.865	8.31
644.899	12.31
644.932	18.31
644.966	-0.69
645	7.31
645.033	8.31
645.067	-2.69
645.101	-3.69
645.135	4.31
645.168	16.31
645.202	10.31
645.236	14.31
645.269	12.31
645.303	-1.69
645.337	-11.69
645.37	-6.69
645.404	9.31
645.438	9.31
645.471	-13.69
645.505	7.31
645.539	-2.69
645.572	-9.69
645.606	-2.69
645.64	-0.69
645.673	2.31
645.707	11.31
645.741	-3.69
645.774	-5.69
645.808	10.31
645.842	1.31
645.875	7.31
645.909	4.31
645.943	-2.69
645.976	-0.69
646.01	14.31
646.043	15.31
646.077	4.31
646.111	11.31
646.144	-5.69
646.178	4.31
646.212	-10.69
646.245	1.31
646.279	11.31
646.312	23.31
646.346	16.31
646.38	7.31
646.413	-6.69
646.447	-9.69
646.48	3.31
646.514	5.31
646.547	0.31
646.581	2.31
646.615	-12.69
646.648	-5.69
646.682	2.31
646.715	7.31
646.749	9.31
646.782	2.31
646.816	10.31
646.85	9.31
646.883	-7.69
646.917	11.31
646.95	-1.69
646.984	5.31
647.017	-2.69
647.051	-1.69
647.084	11.31
647.118	-6.69
647.151	13.31
647.185	17.31
647.218	-6.69
647.252	7.31
647.285	-14.69
647.319	1.31
647.353	12.31
647.386	18.31
647.42	5.31
647.453	4.31
647.487	16.31
647.52	1.31
647.553	10.31
647.587	11.31
647.62	-5.69
647.654	0.31
647.687	12.31
647.721	9.31
647.754	15.31
647.788	12.31
647.821	-14.69
647.855	-1.69
647.888	4.31
647.922	20.31
647.955	2.31
647.989	24.31
648.022	8.31
648.055	13.31
648.089	8.31
648.122	19.31
648.156	5.31
648.189	6.31
648.223	15.31
648.256	31.31
648.29	7.31
648.323	5.31
648.356	10.31
648.39	-10.69
648.423	6.31
648.457	7.31
648.49	6.31
648.523	17.31
648.557	-4.69
648.59	4.31
648.624	3.31
648.657	-3.69
648.69	8.31
648.724	7.31
648.757	18.31
648.791	15.31
648.824	1.31
648.857	10.31
648.891	4.31
648.924	-10.69
648.957	12.31
648.991	-0.69
649.024	10.31
649.057	3.31
649.091	10.31
649.124	9.31
649.158	10.31
649.191	16.31
649.224	14.31
649.258	13.31
649.291	-3.69
649.324	5.31
649.358	7.31
649.391	-6.69
649.424	1.31
649.458	-2.69
649.491	5.31
649.524	-0.69
649.557	0.31
649.591	-8.69
649.624	7.31
649.657	-16.69
649.691	-1.69
649.724	4.31
649.757	3.31
649.791	-18.69
649.824	7.31
649.857	22.31
649.89	-2.69
649.924	-15.69
649.957	21.31
649.99	-7.69
650.023	-2.69
650.057	-1.69
650.09	19.31
650.123	3.31
650.157	10.31
650.19	14.31
650.223	5.31
650.256	-9.69
650.29	-3.69
650.323	-10.69
650.356	3.31
650.389	6.31
650.423	-10.69
650.456	2.31
650.489	4.31
650.522	4.31
650.555	14.31
650.589	18.31
650.622	18.31
650.655	17.31
650.688	10.31
650.721	-10.69
650.755	17.31
650.788	10.31
650.821	-5.69
650.854	8.31
650.887	12.31
650.921	-2.69
650.954	-15.69
650.987	5.31
651.02	10.31
651.053	-6.69
651.087	11.31
651.12	13.31
651.153	6.31
651.186	8.31
651.219	-4.69
651.252	-4.69
651.286	10.31
651.319	-9.69
651.352	7.31
651.385	-2.69
651.418	0.31
651.451	16.31
651.484	8.31
651.518	-12.69
651.551	13.31
651.584	4.31
651.617	16.31
651.65	10.31
651.683	12.31
651.716	-7.69
651.749	-10.69
651.783	-10.69
651.816	-9.69
651.849	15.31
651.882	-1.69
651.915	14.31
651.948	10.31
651.981	0.31
652.014	-11.69
652.047	-16.69
652.08	6.31
652.114	4.31
652.147	12.31
652.18	5.31
652.213	25.31
652.246	11.31
652.279	-7.69
652.312	17.31
652.345	-10.69
652.378	9.31
652.411	25.31
652.444	15.31
652.477	18.31
652.51	19.31
652.543	-6.69
652.576	4.31
652.609	-17.69
652.642	5.31
652.675	6.31
652.709	3.31
652.742	10.31
652.775	9.31
652.808	21.31
652.841	-4.69
652.874	13.31
652.907	5.31
652.94	-9.69
652.973	-12.69
653.006	-7.69
653.039	-13.69
653.072	5.31
653.105	-4.69
653.138	4.31
653.171	10.31
653.204	4.31
653.237	12.31
653.27	-6.69
653.303	-14.69
653.336	16.31
653.368	-0.69
653.401	8.31
653.434	-4.69
653.467	10.31
653.5	-10.69
653.533	-8.69
653.566	6.31
653.599	-8.69
653.632	0.31
653.665	14.31
653.698	0.31
653.731	-4.69
653.764	12.31
653.797	6.31
653.83	22.31
653.863	0.31
653.896	-0.69
653.929	-2.69
653.961	15.31
653.994	-4.69
654.027	-4.69
654.06	9.31
654.093	10.31
654.126	14.31
654.159	-21.69
654.192	-4.69
654.225	10.31
654.258	-6.69
654.29	-1.69
654.323	-4.69
654.356	-0.69
654.389	13.31
654.422	9.31
654.455	6.31
654.488	10.31
654.521	-12.69
654.553	-5.69
654.586	21.31
654.619	2.31
654.652	5.31
654.685	4.31
654.718	10.31
654.751	3.31
654.783	-8.69
654.816	21.31
654.849	4.31
654.882	-19.69
654.915	-18.69
654.948	-4.69
654.98	-13.69
655.013	-8.69
655.046	9.31
655.079	6.31
655.112	0.31
655.144	-14.69
655.177	4.31
655.21	14.31
655.243	23.31
655.276	8.31
655.308	-16.69
655.341	-2.69
655.374	8.31
655.407	-8.69
655.44	-3.69
655.472	17.31
655.505	-2.69
655.538	16.31
655.571	25.31
655.603	10.31
655.636	14.31
655.669	34.31
655.702	16.31
655.734	4.31
655.767	-5.69
655.8	10.31
655.833	11.31
655.865	9.31
655.898	0.31
655.931	5.31
655.964	21.31
655.996	22.31
656.029	24.31
656.062	24.31
656.095	44.31
656.127	78.31
656.16	202.31
656.193	635.31
656.225	984.31
656.258	546.31
656.291	213.31
656.324	179.31
656.356	362.31
656.389	793.31
656.422	696.31
656.454	258.31
656.487	83.31
656.52	38.31
656.552	7.31
656.585	17.31
656.618	20.31
656.65	17.31
656.683	-0.69
656.716	7.31
656.748	3.31
656.781	-24.69
656.814	-27.69
656.846	-0.69
656.879	-3.69
656.912	7.31
656.944	-7.69
656.977	3.31
657.01	0.31
657.042	17.31
657.075	-1.69
657.108	2.31
657.14	8.31
657.173	13.31
657.205	30.31
657.238	16.31
657.271	3.31
657.303	5.31
657.336	4.31
657.369	-5.69
657.401	1.31
657.434	-0.69
657.466	-0.69
657.499	-9.69
657.532	-1.69
657.564	10.31
657.597	13.31
657.629	-1.69
657.662	-4.69
657.694	3.31
657.727	-15.69
657.76	14.31
657.792	0.31
657.825	-5.69
657.857	1.31
657.89	1.31
657.922	-0.69
657.955	-5.69
657.987	-2.69
658.02	7.31
658.053	17.31
658.085	-7.69
658.118	6.31
658.15	14.31
658.183	15.31
658.215	6.31
658.248	-0.69
658.28	-3.69
658.313	10.31
658.345	21.31
658.378	10.31
658.41	3.31
658.443	24.31
658.475	2.31
658.508	16.31
658.54	0.31
658.573	-6.69
658.605	5.31
658.638	-7.69
658.67	-9.69
658.703	-20.69
658.735	-18.69
658.768	-2.69
658.8	-6.69
658.833	24.31
658.865	15.31
658.898	3.31
658.93	-4.69
658.963	-9.69
658.995	-6.69
659.028	2.31
659.06	5.31
659.092	-3.69
659.125	8.31
659.157	-0.69
659.19	-4.69
659.222	-8.69
659.255	-0.69
659.287	-6.69
659.32	-12.69
659.352	-7.69
659.384	6.31
659.417	-19.69
659.449	-8.69
659.482	2.31
659.514	-12.69
659.546	10.31
659.579	-0.69
659.611	-1.69
659.644	-2.69
659.676	-5.69
659.708	-10.69
659.741	-19.69
659.773	-0.69
659.806	-2.69
659.838	-3.69
659.87	11.31
659.903	-15.69
659.935	7.31
659.967	12.31
660	7.31
660.032	-13.69
660.065	8.31
660.097	0.31
660.129	0.31
660.162	-18.69
660.194	9.31
660.226	10.31
660.259	7.31
660.291	7.31
660.323	-8.69
660.356	6.31
660.388	2.31
660.42	-4.69
660.453	4.31
660.485	12.31
660.517	19.31
660.55	9.31
660.582	-7.69
660.614	7.31
660.647	-10.69
660.679	7.31
660.711	7.31
660.743	-8.69
660.776	-9.69
660.808	-12.69
660.84	-22.69
660.873	-23.69
660.905	-8.69
660.937	-11.69
660.969	1.31
661.002	-5.69
661.034	4.31
661.066	-10.69
661.099	-2.69
661.131	9.31
661.163	11.31
661.195	5.31
661.228	21.31
661.26	3.31
661.292	14.31
661.324	6.31
661.357	7.31
661.389	12.31
661.421	12.31
661.453	-3.69
661.485	-2.69
661.518	-1.69
661.55	-15.69
661.582	-18.69
661.614	-0.69
661.647	10.31
661.679	5.31
661.711	14.31
661.743	-4.69
661.775	0.31
661.808	14.31
661.84	-8.69
661.872	-6.69
661.904	-15.69
661.936	7.31
661.969	-15.69
662.001	-16.69
662.033	17.31
662.065	12.31
662.097	16.31
662.129	4.31
662.162	-19.69
662.194	-6.69
662.226	-5.69
662.258	11.31
662.29	7.31
662.322	-9.69
662.355	-11.69
662.387	21.31
662.419	13.31
662.451	17.31
662.483	13.31
662.515	-7.69
662.547	-7.69
662.58	7.31
662.612	-10.69
662.644	-18.69
662.676	7.31
662.708	26.31
662.74	-5.69
662.772	2.31
662.804	3.31
662.836	14.31
662.869	9.31
662.901	11.31
662.933	6.31
662.965	33.31
662.997	2.31
663.029	-5.69
663.061	-2.69
663.093	5.31
663.125	20.31
663.157	14.31
663.189	20.31
663.221	-12.69
663.254	3.31
663.286	17.31
663.318	11.31
663.35	-2.69
663.382	15.31
663.414	2.31
663.446	-4.69
663.478	-15.69
663.51	9.31
663.542	-8.69
663.574	-2.69
663.606	0.31
663.638	-17.69
663.67	5.31
663.702	13.31
663.734	5.31
663.766	6.31
663.798	-5.69
663.83	12.31
663.862	12.31
663.894	13.31
663.926	19.31
663.958	12.31
663.99	-13.69
664.022	-4.69
664.054	15.31
664.086	0.31
664.118	-18.69
664.15	-5.69
664.182	4.31
664.214	2.31
664.246	5.31
664.278	-4.69
664.31	14.31
664.342	-3.69
664.374	-2.69
664.406	10.31
664.438	9.31
664.47	22.31
664.502	7.31
664.534	9.31
664.566	-12.69
664.598	12.31
664.63	0.31
664.662	-2.69
664.693	-0.69
664.725	-7.69
664.757	-3.69
664.789	-5.69
664.821	11.31
664.853	2.31
664.885	1.31
664.917	8.31
664.949	29.31
664.981	11.31
665.013	2.31
665.045	-1.69
665.076	-11.69
665.108	1.31
665.14	13.31
665.172	21.31
665.204	18.31
665.236	-15.69
665.268	20.31
665.3	10.31
665.331	-11.69
665.363	8.31
665.395	2.31
665.427	-12.69
665.459	-3.69
665.491	-2.69
665.523	5.31
665.555	2.31
665.586	0.31
665.618	7.31
665.65	-12.69
665.682	-3.69
665.714	-7.69
665.746	8.31
665.777	12.31
665.809	-9.69
665.841	1.31
665.873	-15.69
665.905	2.31
665.937	4.31
665.968	13.31
666	0.31
666.032	-1.69
666.064	5.31
666.096	-0.69
666.127	2.31
666.159	26.31
666.191	25.31
666.223	10.31
666.255	4.31
666.286	6.31
666.318	-1.69
666.35	17.31
666.382	4.31
666.413	-17.69
666.445	-17.69
666.477	-16.69
666.509	2.31
666.54	6.31
666.572	-17.69
666.604	14.31
666.636	-0.69
666.667	25.31
666.699	28.31
666.731	14.31
666.763	-7.69
666.794	-6.69
666.826	7.31
666.858	6.31
666.89	12.31
666.921	5.31
666.953	-3.69
666.985	17.31
667.017	15.31
667.048	0.31
667.08	-14.69
667.112	-15.69
667.143	-27.69
667.175	11.31
667.207	10.31
667.238	11.31
667.27	0.31
667.302	1.31
667.334	-23.69
667.365	6.31
667.397	7.31
667.429	1.31
667.46	12.31
667.492	3.31
667.524	10.31
667.555	-3.69
667.587	-5.69
667.619	-6.69
667.65	-18.69
667.682	-0.69
667.714	6.31
667.745	12.31
667.777	8.31
667.808	2.31
667.84	-6.69
667.872	1.31
667.903	19.31
667.935	6.31
667.967	3.31
667.998	7.31
668.03	1.31
668.061	7.31
668.093	6.31
668.125	-1.69
668.156	17.31
668.188	-1.69
668.22	-0.69
668.251	0.31
668.283	11.31
668.314	3.31
668.346	2.31
668.377	-5.69
668.409	-7.69
668.441	16.31
668.472	11.31
668.504	12.31
668.535	8.31
668.567	22.31
668.599	2.31
668.63	9.31
668.662	-3.69
668.693	35.31
668.725	0.31
668.756	5.31
668.788	11.31
668.819	-0.69
668.851	-4.69
668.882	-1.69
668.914	12.31
668.946	-0.69
668.977	-1.69
669.009	-4.69
669.04	-5.69
669.072	-4.69
669.103	5.31
669.135	-11.69
669.166	-1.69
669.198	9.31
669.229	0.31
669.261	-6.69
669.292	6.31
669.324	9.31
669.355	5.31
669.387	-19.69
669.418	-6.69
669.45	-2.69
669.481	10.31
669.513	5.31
669.544	8.31
669.576	6.31
669.607	16.31
669.639	12.31
669.67	3.31
669.701	31.31
669.733	4.31
669.764	-3.69
669.796	9.31
669.827	-16.69
669.859	0.31
669.89	-6.69
669.922	14.31
669.953	11.31
669.985	1.31
670.016	11.31
670.047	9.31
670.079	2.31
670.11	14.31
670.142	10.31
670.173	-7.69
670.204	-2.69
670.236	5.31
670.267	-16.69
670.299	9.31
670.33	-3.69
670.362	2.31
670.393	-4.69
670.424	0.31
670.456	-3.69
670.487	-13.69
670.518	-1.69
670.55	3.31
670.581	-6.69
670.613	-0.69
670.644	0.31
670.675	1.31
670.707	-13.69
670.738	4.31
670.769	-8.69
670.801	-1.69
670.832	-1.69
670.864	3.31
670.895	-11.69
670.926	-7.69
670.958	5.31
670.989	-7.69
671.02	6.31
671.052	9.31
671.083	-2.69
671.114	-2.69
671.146	11.31
671.177	2.31
671.208	-1.69
671.24	-9.69
671.271	-1.69
671.302	4.31
671.333	-1.69
671.365	-12.69
671.396	13.31
671.427	10.31
671.459	7.31
671.49	1.31
671.521	7.31
671.553	3.31
671.584	12.31
671.615	-9.69
671.646	2.31
671.678	1.31
671.709	-1.69
671.74	-19.69
671.771	-5.69
671.803	-0.69
671.834	7.31
671.865	12.31
671.896	13.31
671.928	3.31
671.959	-8.69
671.99	-7.69
672.021	-15.69
672.053	-11.69
672.084	14.31
672.115	4.31
672.146	-1.69
672.178	-3.69
672.209	-0.69
672.24	-15.69
672.271	23.31
672.303	7.31
672.334	6.31
672.365	-16.69
672.396	6.31
672.427	-6.69
672.459	14.31
672.49	23.31
672.521	15.31
672.552	7.31
672.583	-0.69
672.615	-7.69
672.646	14.31
672.677	-1.69
672.708	-4.69
672.739	7.31
672.77	18.31
672.802	9.31
672.833	1.31
672.864	-0.69
672.895	3.31
672.926	15.31
672.957	-1.69
672.989	-5.69
673.02	7.31
673.051	2.31
673.082	12.31
673.113	-8.69
673.144	9.31
673.175	2.31
673.206	-21.69
673.238	-5.69
673.269	7.31
673.3	-15.69
673.331	8.31
673.362	-7.69
673.393	5.31
673.424	17.31
673.455	9.31
673.487	-1.69
673.518	10.31
673.549	13.31
673.58	-2.69
673.611	20.31
673.642	-0.69
673.673	1.31
673.704	4.31
673.735	-5.69
673.766	-2.69
673.797	3.31
673.828	2.31
673.86	-6.69
673.891	-4.69
673.922	-6.69
673.953	-1.69
673.984	8.31
674.015	3.31
674.046	3.31
674.077	2.31
674.108	1.31
674.139	6.31
674.17	8.31
674.201	-0.69
674.232	6.31
674.263	11.31
674.294	-7.69
674.325	-1.69
674.356	10.31
674.387	13.31
674.418	9.31
674.449	-4.69
674.48	-9.69
674.511	-2.69
674.542	3.31
674.573	0.31
674.604	6.31
674.635	-1.69
674.666	6.31
674.697	9.31
674.728	-8.69
674.759	1.31
674.79	-4.69
674.821	-10.69
674.852	4.31
674.883	-2.69
674.914	-1.69
674.945	-3.69
674.976	14.31
675.007	3.31
675.038	4.31
675.069	-20.69
675.1	-2.69
675.131	17.31
675.162	-5.69
675.193	-0.69
675.224	2.31
675.254	17.31
675.285	12.31
675.316	18.31
675.347	10.31
675.378	-5.69
675.409	-20.69
675.44	13.31
675.471	4.31
675.502	-4.69
675.533	1.31
675.564	1.31
675.595	3.31
675.625	12.31
675.656	8.31
675.687	14.31
675.718	11.31
675.749	10.31
675.78	-4.69
675.811	-7.69
675.842	17.31
675.873	6.31
675.903	-1.69
675.934	7.31
675.965	-3.69
675.996	-13.69
676.027	10.31
676.058	2.31
676.089	-10.69
676.119	-3.69
676.15	-5.69
676.181	4.31
676.212	-0.69
676.243	10.31
676.274	-3.69
676.304	-2.69
676.335	-15.69
676.366	-1.69
676.397	-22.69
676.428	13.31
676.459	11.31
676.489	-0.69
676.52	25.31
676.551	16.31
676.582	-9.69
676.613	0.31
676.643	-6.69
676.674	3.31
676.705	6.31
676.736	-8.69
676.767	29.31
676.797	5.31
676.828	1.31
676.859	-5.69
676.89	-2.69
676.92	7.31
676.951	8.31
676.982	16.31
677.013	1.31
677.044	20.31
677.074	9.31
677.105	-12.69
677.136	9.31
677.167	-2.69
677.197	17.31
677.228	11.31
677.259	0.31
677.289	-10.69
677.32	-13.69
677.351	3.31
677.382	-5.69
677.412	-5.69
677.443	10.31
677.474	-6.69
677.505	-18.69
677.535	0.31
677.566	-8.69
677.597	-12.69
677.627	-16.69
677.658	11.31
677.689	1.31
677.72	7.31
677.75	13.31
677.781	-6.69
677.812	-0.69
677.842	10.31
677.873	8.31
677.904	8.31
677.934	-9.69
677.965	-8.69
677.996	-4.69
678.026	-1.69
678.057	9.31
678.088	3.31
678.118	3.31
678.149	0.31
678.18	-6.69
678.21	-1.69
678.241	12.31
678.272	-0.69
678.302	9.31
678.333	-4.69
678.363	-0.69
678.394	-0.69
678.425	9.31
678.455	9.31
678.486	0.31
678.517	-13.69
678.547	6.31
678.578	5.31
678.608	1.31
678.639	-3.69
678.67	7.31
678.7	-9.69
678.731	-7.69
678.761	0.31
678.792	2.31
678.823	8.31
678.853	-4.69
678.884	-2.69
678.914	1.31
678.945	-2.69
678.975	-8.69
679.006	10.31
679.037	0.31
679.067	27.31
679.098	-5.69
679.128	3.31
679.159	9.31
679.189	17.31
679.22	-6.69
679.25	7.31
679.281	10.31
679.312	5.31
679.342	8.31
679.373	18.31
679.403	8.31
679.434	23.31
679.464	2.31
679.495	0.31
679.525	-5.69
679.556	-4.69
679.586	12.31
679.617	-0.69
679.647	-4.69
679.678	10.31
679.708	10.31
679.739	-1.69
679.769	-3.69
679.8	-6.69
679.83	3.31
679.861	17.31
679.891	2.31
679.922	-13.69
679.952	-5.69
679.983	6.31
680.013	6.31
680.044	-0.69
680.074	11.31
680.105	5.31
680.135	10.31
680.165	15.31
680.196	26.31
680.226	8.31
680.257	1.31
680.287	8.31
680.318	1.31
680.348	-6.69
680.379	-3.69
680.409	8.31
680.439	-0.69
680.47	1.31
680.5	7.31
680.531	3.31
680.561	14.31
680.592	-11.69
680.622	5.31
680.652	6.31
680.683	2.31
680.713	6.31
680.744	-13.69
680.774	6.31
680.804	17.31
680.835	-1.69
680.865	2.31
680.896	19.31
680.926	24.31
680.956	-7.69
680.987	14.31
681.017	4.31
681.047	-0.69
681.078	-5.69
681.108	-8.69
681.139	2.31
681.169	-6.69
681.199	-7.69
681.23	20.31
681.26	16.31
681.29	4.31
681.321	-5.69
681.351	-0.69
681.381	-12.69
681.412	3.31
681.442	10.31
681.472	16.31
681.503	16.31
681.533	11.31
681.563	-8.69
681.594	-2.69
681.624	7.31
681.654	0.31
681.685	4.31
681.715	-5.69
681.745	5.31
681.775	5.31
681.806	-5.69
681.836	10.31
681.866	-8.69
681.897	5.31
681.927	-5.69
681.957	-2.69
681.987	6.31
682.018	8.31
682.048	11.31
682.078	12.31
682.109	22.31
682.139	17.31
682.169	0.31
682.199	12.31
682.23	4.31
682.26	11.31
682.29	-9.69
682.32	-4.69
682.351	-5.69
682.381	9.31
682.411	-17.69
682.441	-6.69
682.472	-5.69
682.502	-0.69
682.532	-8.69
682.562	2.31
682.592	18.31
682.623	12.31
682.653	5.31
682.683	-9.69
682.713	3.31
682.743	2.31
682.774	-22.69
682.804	3.31
682.834	23.31
682.864	-8.69
682.894	0.31
682.925	13.31
682.955	-12.69
682.985	-5.69
683.015	-5.69
683.045	11.31
683.076	-8.69
683.106	13.31
683.136	1.31
683.166	-8.69
683.196	-6.69
683.226	-14.69
683.257	1.31
683.287	2.31
683.317	-0.69
683.347	-5.69
683.377	6.31
683.407	-3.69
683.437	18.31
683.468	6.31
683.498	-12.69
683.528	10.31
683.558	-5.69
683.588	-2.69
683.618	0.31
683.648	-2.69
683.678	10.31
683.708	4.31
683.739	-1.69
683.769	0.31
683.799	6.31
683.829	7.31
683.859	6.31
683.889	1.31
683.919	-1.69
683.949	14.31
683.979	-17.69
684.009	5.31
684.039	1.31
684.07	-14.69
684.1	25.31
684.13	1.31
684.16	2.31
684.19	-5.69
684.22	10.31
684.25	-0.69
684.28	-9.69
684.31	10.31
684.34	-4.69
684.37	6.31
684.4	-0.69
684.43	5.31
684.46	8.31
684.49	0.31
684.52	8.31
684.55	18.31
684.58	-10.69
684.61	15.31
684.64	13.31
684.67	18.31
684.7	13.31
684.73	15.31
684.76	3.31
684.79	10.31
684.82	0.31
684.85	-11.69
684.88	10.31
684.91	3.31
684.94	-1.69
684.97	-10.69
685	-0.69
685.03	-13.69
685.06	-7.69
685.09	2.31
685.12	19.31
685.15	1.31
685.18	10.31
685.21	6.31
685.24	12.31
685.27	6.31
685.3	-6.69
685.33	0.31
685.36	8.31
685.39	3.31
685.42	-4.69
685.45	3.31
685.48	9.31
685.51	-16.69
685.54	13.31
685.569	6.31
685.599	3.31
685.629	12.31
685.659	2.31
685.689	-9.69
685.719	5.31
685.749	-7.69
685.779	-4.69
685.809	3.31
685.839	11.31
685.869	5.31
685.898	1.31
685.928	11.31
685.958	-3.69
685.988	27.31
686.018	8.31
686.048	7.31
686.078	17.31
686.108	11.31
686.137	10.31
686.167	13.31
686.197	10.31
686.227	7.31
686.257	6.31
686.287	8.31
686.317	1.31
686.346	3.31
686.376	-8.69
686.406	2.31
686.436	7.31
686.466	-0.69
686.496	0.31
686.525	4.31
686.555	-9.69
686.585	6.31
686.615	32.31
686.645	25.31
686.675	11.31
686.704	16.31
686.734	6.31
686.764	-4.69
686.794	-2.69
686.824	-13.69
686.853	12.31
686.883	23.31
686.913	7.31
686.943	0.31
686.973	-4.69
687.002	2.31
687.032	3.31
687.062	1.31
687.092	28.31
687.121	-2.69
687.151	1.31
687.181	11.31
687.211	10.31
687.24	9.31
687.27	-7.69
687.3	-2.69
687.33	-5.69
687.359	-4.69
687.389	10.31
687.419	-8.69
687.449	11.31
687.478	-0.69
687.508	-4.69
687.538	2.31
687.568	11.31
687.597	3.31
687.627	2.31
687.657	1.31
687.686	2.31
687.716	31.31
687.746	-17.69
687.776	0.31
687.805	0.31
687.835	2.31
687.865	33.31
687.894	7.31
687.924	4.31
687.954	7.31
687.983	0.31
688.013	2.31
688.043	14.31
688.072	12.31
688.102	21.31
688.132	4.31
688.161	-4.69
688.191	-2.69
688.221	15.31
688.25	0.31
688.28	11.31
688.31	-0.69
688.339	1.31
688.369	-4.69
688.399	-0.69
688.428	-7.69
688.458	-5.69
688.488	-6.69
688.517	-5.69
688.547	-11.69
688.576	30.31
688.606	5.31
688.636	-8.69
688.665	-0.69
688.695	10.31
688.725	34.31
688.754	19.31
688.784	10.31
688.813	11.31
688.843	-0.69
688.873	-1.69
688.902	-7.69
688.932	-1.69
688.961	15.31
688.991	3.31
689.02	24.31
689.05	-0.69
689.08	10.31
689.109	21.31
689.139	14.31
689.168	11.31
689.198	-4.69
689.227	-2.69
689.257	25.31
689.287	17.31
689.316	-8.69
689.346	-2.69
689.375	-13.69
689.405	3.31
689.434	5.31
689.464	-2.69
689.493	-7.69
689.523	-13.69
689.552	-6.69
689.582	6.31
689.611	0.31
689.641	0.31
689.67	-5.69
689.7	3.31
689.73	8.31
689.759	12.31
689.789	25.31
689.818	13.31
689.848	-6.69
689.877	12.31
689.906	-4.69
689.936	6.31
689.965	-15.69
689.995	6.31
690.024	7.31
690.054	-3.69
690.083	6.31
690.113	8.31
690.142	-16.69
690.172	-5.69
690.201	5.31
690.231	7.31
690.26	18.31
690.29	17.31
690.319	15.31
690.348	3.31
690.378	21.31
690.407	14.31
690.437	3.31
690.466	0.31
690.496	-15.69
690.525	-6.69
690.555	4.31
690.584	7.31
690.613	9.31
690.643	3.31
690.672	-1.69
690.702	6.31
690.731	-9.69
690.76	22.31
690.79	6.31
690.819	-10.69
690.849	5.31
690.878	5.31
690.907	-8.69
690.937	4.31
690.966	17.31
690.996	-1.69
691.025	9.31
691.054	7.31
691.084	3.31
691.113	3.31
691.142	3.31
691.172	21.31
691.201	25.31
691.23	3.31
691.26	12.31
691.289	14.31
691.319	0.31
691.348	8.31
691.377	17.31
691.407	8.31
691.436	24.31
691.465	12.31
691.495	13.31
691.524	13.31
691.553	3.31
691.583	-9.69
691.612	11.31
691.641	13.31
691.67	-2.69
691.7	5.31
691.729	-5.69
691.758	9.31
691.788	13.31
691.817	-3.69
691.846	2.31
691.876	8.31
691.905	16.31
691.934	7.31
691.963	10.31
691.993	16.31
692.022	-5.69
692.051	-9.69
692.081	14.31
692.11	25.31
692.139	13.31
692.168	12.31
692.198	15.31
692.227	-1.69
692.256	-2.69
692.285	-8.69
692.315	4.31
692.344	2.31
692.373	7.31
692.402	-19.69
692.432	-10.69
692.461	-1.69
692.49	15.31
692.519	-5.69
692.548	11.31
692.578	11.31
692.607	-4.69
692.636	6.31
692.665	10.31
692.694	-0.69
692.724	-2.69
692.753	-7.69
692.782	6.31
692.811	-8.69
692.84	8.31
692.87	-5.69
692.899	-6.69
692.928	0.31
692.957	-2.69
692.986	4.31
693.016	-0.69
693.045	2.31
693.074	6.31
693.103	9.31
693.132	21.31
693.161	18.31
693.191	3.31
693.22	-0.69
693.249	15.31
693.278	-0.69
693.307	22.31
693.336	7.31
693.365	-0.69
693.395	12.31
693.424	-5.69
693.453	16.31
693.482	9.31
693.511	11.31
693.54	4.31
693.569	1.31
693.598	23.31
693.628	20.31
693.657	15.31
693.686	20.31
693.715	5.31
693.744	6.31
693.773	16.31
693.802	-13.69
693.831	-0.69
693.86	24.31
693.889	12.31
693.919	3.31
693.948	15.31
693.977	4.31
694.006	0.31
694.035	9.31
694.064	0.31
694.093	-14.69
694.122	1.31
694.151	2.31
694.18	9.31
694.209	32.31
694.238	3.31
694.267	17.31
694.296	20.31
694.325	13.31
694.354	6.31
694.383	16.31
694.412	5.31
694.441	3.31
694.471	-5.69
694.5	-14.69
694.529	-1.69
694.558	22.31
694.587	15.31
694.616	0.31
694.645	-6.69
694.674	-3.69
694.703	14.31
694.732	-3.69
694.761	12.31
694.79	2.31
694.819	-3.69
694.848	-4.69
694.877	5.31
694.906	19.31
694.935	24.31
694.963	13.31
694.992	21.31
695.021	15.31
695.05	15.31
695.079	4.31
695.108	5.31
695.137	18.31
695.166	9.31
695.195	8.31
695.224	10.31
695.253	5.31
695.282	5.31
695.311	7.31
695.34	-11.69
695.369	10.31
695.398	15.31
695.427	23.31
695.456	6.31
695.485	2.31
695.513	-5.69
695.542	-15.69
695.571	2.31
695.6	35.31
695.629	8.31
695.658	12.31
695.687	11.31
695.716	5.31
695.745	25.31
695.774	-2.69
695.802	3.31
695.831	5.31
695.86	14.31
695.889	5.31
695.918	9.31
695.947	-10.69
695.976	2.31
696.005	6.31
696.033	12.31
696.062	9.31
696.091	-1.69
696.12	-3.69
696.149	19.31
696.178	13.31
696.207	17.31
696.235	-9.69
696.264	7.31
696.293	11.31
696.322	22.31
696.351	20.31
696.38	16.31
696.408	7.31
696.437	-0.69
696.466	9.31
696.495	14.31
696.524	25.31
696.553	23.31
696.581	-0.69
696.61	-2.69
696.639	-5.69
696.668	3.31
696.697	1.31
696.725	33.31
696.754	-0.69
696.783	-3.69
696.812	9.31
696.84	14.31
696.869	18.31
696.898	1.31
696.927	6.31
696.956	23.31
696.984	-2.69
697.013	4.31
697.042	6.31
697.071	6.31
697.099	16.31
697.128	21.31
697.157	2.31
697.186	13.31
697.214	5.31
697.243	6.31
697.272	7.31
697.301	22.31
697.329	1.31
697.358	6.31
697.387	26.31
697.415	14.31
697.444	7.31
697.473	-1.69
697.502	1.31
697.53	0.31
697.559	0.31
697.588	12.31
697.616	1.31
697.645	-9.69
697.674	10.31
697.703	11.31
697.731	6.31
697.76	6.31
697.789	1.31
697.817	-4.69
697.846	1.31
697.875	7.31
697.903	17.31
697.932	19.31
697.961	-3.69
697.989	5.31
698.018	9.31
698.047	13.31
698.075	5.31
698.104	-0.69
698.133	-6.69
698.161	-1.69
698.19	2.31
698.218	1.31
698.247	15.31
698.276	9.31
698.304	11.31
698.333	21.31
698.362	5.31
698.39	7.31
698.419	10.31
698.447	-0.69
698.476	2.31
698.505	18.31
698.533	15.31
698.562	13.31
698.591	1.31
698.619	-10.69
698.648	-1.69
698.676	5.31
698.705	-2.69
698.733	-17.69
698.762	-4.69
698.791	12.31
698.819	9.31
698.848	-0.69
698.876	24.31
698.905	29.31
698.933	25.31
698.962	10.31
698.991	2.31
699.019	22.31
699.048	6.31
699.076	5.31
699.105	-4.69
699.133	5.31
699.162	25.31
699.19	23.31
699.219	19.31
699.248	9.31
699.276	5.31
699.305	3.31
699.333	-7.69
699.362	3.31
699.39	14.31
699.419	-12.69
699.447	-0.69
699.476	27.31
699.504	3.31
699.533	11.31
699.561	2.31
699.59	7.31
699.618	7.31
699.647	-8.69
699.675	9.31
699.704	15.31
699.732	14.31
699.761	9.31
699.789	-19.69
699.818	1.31
699.846	9.31
699.874	6.31
699.903	7.31
699.931	14.31
699.96	14.31
699.988	3.31
700.017	-0.69
700.045	14.31
700.074	3.31
700.102	6.31
700.13	7.31
700.159	-0.69
700.187	11.31
700.216	2.31
700.244	2.31
700.273	-4.69
700.301	-1.69
700.329	12.31
700.358	28.31
700.386	16.31
700.415	13.31
700.443	2.31
700.472	4.31
700.5	4.31
700.528	3.31
700.557	6.31
700.585	6.31
700.614	0.31
700.642	29.31
700.67	29.31
700.699	18.31
700.727	-3.69
700.755	0.31
700.784	-1.69
700.812	-1.69
700.841	12.31
700.869	-0.69
700.897	-8.69
700.926	-1.69
700.954	18.31
700.982	3.31
701.011	10.31
701.039	18.31
701.067	7.31
701.096	19.31
701.124	-6.69
701.152	12.31
701.181	2.31
701.209	-11.69
701.237	5.31
701.266	4.31
701.294	-7.69
701.322	20.31
701.351	18.31
701.379	-2.69
701.407	0.31
701.435	-0.69
701.464	-4.69
701.492	26.31
701.52	0.31
701.549	11.31
701.577	-5.69
701.605	-16.69
701.634	-13.69
701.662	8.31
701.69	-13.69
701.718	-1.69
701.747	15.31
701.775	1.31
701.803	7.31
701.831	25.31
701.86	5.31
701.888	2.31
701.916	-9.69
701.944	8.31
701.973	8.31
702.001	14.31
702.029	5.31
702.057	-4.69
702.086	-3.69
702.114	-6.69
702.142	-0.69
702.17	-7.69
702.199	15.31
702.227	3.31
702.255	15.31
702.283	-1.69
702.311	1.31
702.34	6.31
702.368	-6.69
702.396	8.31
702.424	5.31
702.452	-1.69
702.481	0.31
702.509	0.31
702.537	13.31
702.565	7.31
702.593	-7.69
702.621	5.31
702.65	-6.69
702.678	15.31
702.706	10.31
702.734	1.31
702.762	23.31
702.79	4.31
702.819	-4.69
702.847	8.31
702.875	22.31
702.903	28.31
702.931	3.31
702.959	18.31
702.988	10.31
703.016	-5.69
703.044	6.31
703.072	10.31
703.1	-0.69
703.128	-9.69
703.156	4.31
703.184	2.31
703.212	10.31
703.241	12.31
703.269	10.31
703.297	-5.69
703.325	21.31
703.353	0.31
703.381	4.31
703.409	6.31
703.437	3.31
703.465	6.31
703.493	-6.69
703.522	11.31
703.55	5.31
703.578	5.31
703.606	-11.69
703.634	12.31
703.662	-21.69
703.69	-7.69
703.718	12.31
703.746	18.31
703.774	-3.69
703.802	16.31
703.83	1.31
703.858	-0.69
703.886	3.31
703.914	-12.69
703.942	10.31
703.97	-1.69
703.998	6.31
704.027	8.31
704.055	15.31
704.083	5.31
704.111	0.31
704.139	21.31
704.167	-13.69
704.195	7.31
704.223	2.31
704.251	-0.69
704.279	14.31
704.307	6.31
704.335	-1.69
704.363	10.31
704.391	3.31
704.419	-4.69
704.447	-4.69
704.475	19.31
704.503	10.31
704.531	19.31
704.558	9.31
704.586	11.31
704.614	11.31
704.642	7.31
704.67	9.31
704.698	11.31
704.726	8.31
704.754	5.31
704.782	-1.69
704.81	0.31
704.838	28.31
704.866	1.31
704.894	-20.69
704.922	-4.69
704.95	8.31
704.978	9.31
705.006	13.31
705.034	25.31
705.061	-10.69
705.089	10.31
705.117	-8.69
705.145	11.31
705.173	-3.69
705.201	11.31
705.229	16.31
705.257	12.31
705.285	9.31
705.313	11.31
705.34	3.31
705.368	6.31
705.396	22.31
705.424	6.31
705.452	1.31
705.48	11.31
705.508	-0.69
705.536	2.31
705.563	-0.69
705.591	4.31
705.619	16.31
705.647	-4.69
705.675	9.31
705.703	17.31
705.731	8.31
705.758	5.31
705.786	-3.69
705.814	11.31
705.842	7.31
705.87	24.31
705.898	6.31
705.925	-14.69
705.953	14.31
705.981	-1.69
706.009	9.31
706.037	7.31
706.065	-5.69
706.092	5.31
706.12	12.31
706.148	3.31
706.176	10.31
706.204	3.31
706.231	7.31
706.259	10.31
706.287	-0.69
706.315	4.31
706.342	-1.69
706.37	19.31
706.398	0.31
706.426	6.31
706.454	19.31
706.481	12.31
706.509	15.31
706.537	-3.69
706.565	5.31
706.592	10.31
706.62	8.31
706.648	9.31
706.676	-4.69
706.703	-5.69
706.731	0.31
706.759	1.31
706.787	7.31
706.814	9.31
706.842	1.31
706.87	0.31
706.897	5.31
706.925	-2.69
706.953	3.31
706.981	18.31
707.008	20.31
707.036	13.31
707.064	-0.69
707.091	-13.69
707.119	9.31
707.147	11.31
707.174	-2.69
707.202	20.31
707.23	0.31
707.258	6.31
707.285	-18.69
707.313	8.31
707.341	-8.69
707.368	-8.69
707.396	5.31
707.424	39.31
707.451	14.31
707.479	-9.69
707.507	-2.69
707.534	-0.69
707.562	4.31
707.59	3.31
707.617	0.31
707.645	2.31
707.672	3.31
707.7	-6.69
707.728	-1.69
707.755	15.31
707.783	6.31
707.811	14.31
707.838	-5.69
707.866	2.31
707.893	2.31
707.921	-2.69
707.949	-0.69
707.976	-2.69
708.004	15.31
708.031	0.31
708.059	-2.69
708.087	3.31
708.114	-4.69
708.142	-5.69
708.169	5.31
708.197	-6.69
708.225	0.31
708.252	0.31
708.28	3.31
708.307	2.31
708.335	6.31
708.362	-3.69
708.39	-8.69
708.418	2.31
708.445	-13.69
708.473	5.31
708.5	-4.69
708.528	2.31
708.555	-6.69
708.583	15.31
708.61	10.31
708.638	10.31
708.665	-1.69
708.693	-4.69
708.72	-0.69
708.748	-9.69
708.776	-5.69
708.803	13.31
708.831	10.31
708.858	10.31
708.886	10.31
708.913	-1.69
708.941	-13.69
708.968	5.31
708.996	-2.69
709.023	29.31
709.051	0.31
709.078	-9.69
709.105	10.31
709.133	1.31
709.16	-10.69
709.188	18.31
709.215	3.31
709.243	0.31
709.27	-8.69
709.298	7.31
709.325	5.31
709.353	8.31
709.38	9.31
709.408	12.31
709.435	-9.69
709.462	-10.69
709.49	8.31
709.517	-5.69
709.545	2.31
709.572	6.31
709.6	6.31
709.627	11.31
709.655	1.31
709.682	-15.69
709.709	4.31
709.737	8.31
709.764	7.31
709.792	30.31
709.819	20.31
709.846	-9.69
709.874	-9.69
709.901	4.31
709.929	21.31
709.956	6.31
709.983	-1.69
710.011	-10.69
710.038	1.31
710.066	22.31
710.093	25.31
710.12	10.31
710.148	12.31
710.175	2.31
710.202	2.31
710.23	9.31
710.257	6.31
710.284	3.31
710.312	0.31
710.339	1.31
710.366	-12.69
710.394	-9.69
710.421	1.31
710.448	1.31
710.476	-12.69
710.503	24.31
710.53	22.31
710.558	5.31
710.585	22.31
710.612	7.31
710.64	10.31
710.667	11.31
710.694	-5.69
710.722	14.31
710.749	-0.69
710.776	17.31
710.804	12.31
710.831	0.31
710.858	-0.69
710.885	-5.69
710.913	-2.69
710.94	16.31
710.967	18.31
710.995	23.31
711.022	11.31
711.049	0.31
711.076	-11.69
711.104	-4.69
711.131	-14.69
711.158	1.31
711.185	6.31
711.213	-4.69
711.24	-7.69
711.267	1.31
711.294	0.31
711.322	24.31
711.349	-0.69
711.376	1.31
711.403	9.31
711.431	1.31
711.458	-3.69
711.485	2.31
711.512	1.31
711.54	12.31
711.567	20.31
711.594	-5.69
711.621	0.31
711.648	7.31
711.676	0.31
711.703	5.31
711.73	-10.69
711.757	3.31
711.784	-2.69
711.812	22.31
711.839	-5.69
711.866	-9.69
711.893	-5.69
711.92	9.31
711.947	6.31
711.975	16.31
712.002	1.31
712.029	13.31
712.056	-1.69
712.083	11.31
712.11	-9.69
712.138	-0.69
712.165	-8.69
712.192	19.31
712.219	0.31
712.246	-4.69
712.273	2.31
712.3	-8.69
712.328	-0.69
712.355	4.31
712.382	-2.69
712.409	23.31
712.436	6.31
712.463	8.31
712.49	14.31
712.517	-5.69
712.544	-8.69
712.572	13.31
712.599	4.31
712.626	0.31
712.653	12.31
712.68	-3.69
712.707	5.31
712.734	9.31
712.761	10.31
712.788	21.31
712.815	-0.69
712.842	8.31
712.87	3.31
712.897	-9.69
712.924	1.31
712.951	9.31
712.978	18.31
713.005	10.31
713.032	19.31
713.059	5.31
713.086	1.31
713.113	2.31
713.14	-1.69
713.167	7.31
713.194	13.31
713.221	12.31
713.248	19.31
713.275	10.31
713.302	10.31
713.329	8.31
713.356	-1.69
713.383	-8.69
713.41	6.31
713.437	-10.69
713.464	1.31
713.491	12.31
713.518	4.31
713.545	23.31
713.572	13.31
713.599	17.31
713.626	11.31
713.653	14.31
713.68	-8.69
713.707	1.31
713.734	11.31
713.761	-10.69
713.788	-5.69
713.815	27.31
713.842	2.31
713.869	12.31
713.896	13.31
713.923	16.31
713.95	3.31
713.977	4.31
714.004	5.31
714.031	-3.69
714.058	1.31
714.085	-0.69
714.112	21.31
714.139	-8.69
714.165	-7.69
714.192	2.31
714.219	7.31
714.246	3.31
714.273	-6.69
714.3	-4.69
714.327	0.31
714.354	11.31
714.381	4.31
714.408	6.31
714.435	-0.69
714.461	4.31
714.488	-2.69
714.515	-7.69
714.542	0.31
714.569	-8.69
714.596	3.31
714.623	-5.69
714.65	-5.69
714.677	-4.69
714.703	-12.69
714.73	3.31
714.757	10.31
714.784	0.31
714.811	6.31
714.838	7.31
714.865	0.31
714.891	21.31
714.918	5.31
714.945	-13.69
714.972	-0.69
714.999	-1.69
715.026	-12.69
715.052	16.31
715.079	1.31
715.106	12.31
715.133	1.31
715.16	-0.69
715.187	8.31
715.213	14.31
715.24	-1.69
715.267	3.31
715.294	17.31
715.321	-7.69
715.347	-2.69
715.374	-11.69
715.401	-10.69
715.428	1.31
715.455	12.31
715.481	-1.69
715.508	18.31
715.535	1.31
715.562	16.31
715.588	8.31
715.615	13.31
715.642	2.31
715.669	13.31
715.695	2.31
715.722	14.31
715.749	9.31
715.776	6.31
715.802	-2.69
715.829	5.31
715.856	-12.69
715.883	-6.69
715.909	3.31
715.936	14.31
715.963	2.31
715.99	-4.69
716.016	15.31
716.043	10.31
716.07	-3.69
716.096	-0.69
716.123	6.31
716.15	5.31
716.177	21.31
716.203	10.31
716.23	12.31
716.257	2.31
716.283	13.31
716.31	0.31
716.337	7.31
716.363	-8.69
716.39	-9.69
716.417	25.31
716.443	-1.69
716.47	9.31
716.497	21.31
716.523	22.31
716.55	8.31
716.577	22.31
716.603	0.31
716.63	-2.69
716.657	9.31
716.683	0.31
716.71	7.31
716.737	-1.69
716.763	6.31
716.79	6.31
716.817	16.31
716.843	10.31
716.87	-3.69
716.897	-4.69
716.923	14.31
716.95	7.31
716.976	-4.69
717.003	7.31
717.03	11.31
717.056	10.31
717.083	-0.69
717.109	19.31
717.136	22.31
717.163	3.31
717.189	11.31
717.216	6.31
717.242	0.31
717.269	-2.69
717.296	13.31
717.322	29.31
717.349	14.31
717.375	26.31
717.402	-1.69
717.428	10.31
717.455	9.31
717.481	13.31
717.508	-1.69
717.535	-3.69
717.561	9.31
717.588	9.31
717.614	16.31
717.641	-6.69
717.667	15.31
717.694	1.31
717.72	10.31
717.747	3.31
717.773	-16.69
717.8	6.31
717.826	-5.69
717.853	-0.69
717.88	26.31
717.906	16.31
717.933	0.31
717.959	8.31
717.986	15.31
718.012	-0.69
718.039	9.31
718.065	15.31
718.092	8.31
718.118	-6.69
718.144	-6.69
718.171	9.31
718.197	23.31
718.224	14.31
718.25	13.31
718.277	7.31
718.303	14.31
718.33	7.31
718.356	2.31
718.383	3.31
718.409	7.31
718.436	6.31
718.462	4.31
718.489	-4.69
718.515	14.31
718.541	10.31
718.568	7.31
718.594	7.31
718.621	0.31
718.647	-6.69
718.674	16.31
718.7	17.31
718.726	3.31
718.753	3.31
718.779	9.31
718.806	6.31
718.832	7.31
718.858	5.31
718.885	2.31
718.911	1.31
718.938	5.31
718.964	-3.69
718.99	19.31
719.017	10.31
719.043	13.31
719.07	16.31
719.096	-3.69
719.122	11.31
719.149	0.31
719.175	10.31
719.201	6.31
719.228	13.31
719.254	8.31
719.281	13.31
719.307	1.31
719.333	11.31
719.36	2.31
719.386	11.31
719.412	-0.69
719.439	-16.69
719.465	-3.69
719.491	0.31
719.518	15.31
719.544	6.31
719.57	17.31
719.597	6.31
719.623	-6.69
719.649	18.31
719.675	0.31
719.702	7.31
719.728	6.31
719.754	-18.69
719.781	1.31
719.807	0.31
719.833	-10.69
719.86	7.31
719.886	5.31
719.912	6.31
719.938	3.31
719.965	10.31
719.991	10.31
720.017	17.31
720.044	-1.69
720.07	-5.69
720.096	1.31
720.122	20.31
720.149	21.31
720.175	14.31
720.201	9.31
720.227	10.31
720.254	12.31
720.28	7.31
720.306	-6.69
720.332	2.31
720.359	-3.69
720.385	10.31
720.411	14.31
720.437	10.31
720.463	3.31
720.49	5.31
720.516	9.31
720.542	-2.69
720.568	5.31
720.595	19.31
720.621	3.31
720.647	-2.69
720.673	9.31
720.699	2.31
720.725	16.31
720.752	11.31
720.778	0.31
720.804	12.31
720.83	11.31
720.856	-4.69
720.883	2.31
720.909	-1.69
720.935	2.31
720.961	22.31
720.987	13.31
721.013	6.31
721.04	-15.69
721.066	-1.69
721.092	5.31
721.118	10.31
721.144	-0.69
721.17	-1.69
721.196	6.31
721.223	1.31
721.249	-18.69
721.275	12.31
721.301	6.31
721.327	6.31
721.353	10.31
721.379	-4.69
721.405	11.31
721.432	13.31
721.458	15.31
721.484	9.31
721.51	-6.69
721.536	0.31
721.562	-16.69
721.588	-7.69
721.614	-3.69
721.64	1.31
721.666	5.31
721.693	-0.69
721.719	-1.69
721.745	-4.69
721.771	-9.69
721.797	8.31
721.823	7.31
721.849	18.31
721.875	16.31
721.901	23.31
721.927	9.31
721.953	6.31
721.979	15.31
722.005	7.31
722.031	6.31
722.057	10.31
722.083	5.31
722.109	-6.69
722.135	11.31
722.161	21.31
722.187	-12.69
722.214	-6.69
722.24	6.31
722.266	-3.69
722.292	6.31
722.318	21.31
722.344	24.31
722.37	17.31
722.396	7.31
722.422	-2.69
722.448	25.31
722.474	-8.69
722.5	16.31
722.526	13.31
722.552	0.31
722.578	9.31
722.603	5.31
722.629	-0.69
722.655	13.31
722.681	-2.69
722.707	2.31
722.733	-14.69
722.759	-9.69
722.785	13.31
722.811	21.31
722.837	12.31
722.863	-0.69
722.889	11.31
722.915	1.31
722.941	1.31
722.967	-1.69
722.993	18.31
723.019	6.31
723.045	-5.69
723.071	10.31
723.097	0.31
723.122	0.31
723.148	6.31
723.174	13.31
723.2	-3.69
723.226	10.31
723.252	15.31
723.278	-2.69
723.304	-3.69
723.33	9.31
723.356	13.31
723.381	-10.69
723.407	-5.69
723.433	13.31
723.459	1.31
723.485	3.31
723.511	6.31
723.537	0.31
723.563	1.31
723.588	-0.69
723.614	19.31
723.64	10.31
723.666	2.31
723.692	7.31
723.718	24.31
723.744	5.31
723.769	0.31
723.795	14.31
723.821	14.31
723.847	9.31
723.873	14.31
723.899	5.31
723.924	-6.69
723.95	-10.69
723.976	-2.69
724.002	-0.69
724.028	2.31
724.053	6.31
724.079	-6.69
724.105	2.31
724.131	3.31
724.157	2.31
724.182	15.31
724.208	-4.69
724.234	1.31
724.26	-6.69
724.286	17.31
724.311	-1.69
724.337	2.31
724.363	0.31
724.389	6.31
724.415	2.31
724.44	17.31
724.466	2.31
724.492	7.31
724.518	15.31
724.543	10.31
724.569	12.31
724.595	3.31
724.621	5.31
724.646	-11.69
724.672	1.31
724.698	-0.69
724.723	1.31
724.749	9.31
724.775	16.31
724.801	6.31
724.826	0.31
724.852	1.31
724.878	2.31
724.904	-14.69
724.929	13.31
724.955	-10.69
724.981	2.31
725.006	7.31
725.032	-4.69
725.058	16.31
725.083	8.31
725.109	-7.69
725.135	0.31
725.161	6.31
725.186	-1.69
725.212	1.31
725.238	12.31
725.263	2.31
725.289	-0.69
725.315	-29.69
725.34	0.31
725.366	3.31
725.392	1.31
725.417	7.31
725.443	16.31
725.468	10.31
725.494	3.31
725.52	21.31
725.545	6.31
725.571	-1.69
725.597	5.31
725.622	-1.69
725.648	-5.69
725.674	13.31
725.699	11.31
725.725	-4.69
725.75	14.31
725.776	-3.69
725.802	8.31
725.827	14.31
725.853	15.31
725.878	11.31
725.904	6.31
725.93	-2.69
725.955	0.31
725.981	-21.69
726.006	-0.69
726.032	10.31
726.057	-0.69
726.083	0.31
726.109	-1.69
726.134	11.31
726.16	9.31
726.185	-0.69
726.211	-5.69
726.236	12.31
726.262	3.31
726.288	9.31
726.313	25.31
726.339	9.31
726.364	16.31
726.39	18.31
726.415	21.31
726.441	7.31
726.466	5.31
726.492	1.31
726.517	11.31
726.543	5.31
726.568	2.31
726.594	1.31
726.619	19.31
726.645	8.31
726.67	5.31
726.696	15.31
726.721	13.31
726.747	10.31
726.772	1.31
726.798	4.31
726.823	-0.69
726.849	7.31
726.874	0.31
726.9	26.31
726.925	6.31
726.951	12.31
726.976	14.31
727.002	2.31
727.027	6.31
727.053	1.31
727.078	-1.69
727.104	9.31
727.129	6.31
727.155	10.31
727.18	9.31
727.205	-12.69
727.231	7.31
727.256	-13.69
727.282	-3.69
727.307	12.31
727.333	6.31
727.358	2.31
727.383	2.31
727.409	6.31
727.434	12.31
727.46	-0.69
727.485	-4.69
727.511	16.31
727.536	15.31
727.561	-10.69
727.587	-14.69
727.612	18.31
727.637	2.31
727.663	-5.69
727.688	19.31
727.714	1.31
727.739	0.31
727.764	11.31
727.79	11.31
727.815	1.31
727.841	19.31
727.866	6.31
727.891	3.31
727.917	-4.69
727.942	-3.69
727.967	-13.69
727.993	-6.69
728.018	4.31
728.043	12.31
728.069	14.31
728.094	3.31
728.119	0.31
728.145	24.31
728.17	8.31
728.195	-0.69
728.221	10.31
728.246	-4.69
728.271	-15.69
728.297	10.31
728.322	3.31
728.347	-0.69
728.373	-10.69
728.398	-7.69
728.423	-2.69
728.448	0.31
728.474	-0.69
728.499	-6.69
728.524	-6.69
728.55	-9.69
728.575	2.31
728.6	2.31
728.625	1.31
728.651	21.31
728.676	21.31
728.701	-2.69
728.727	-2.69
728.752	-4.69
728.777	-12.69
728.802	22.31
728.828	2.31
728.853	1.31
728.878	-8.69
728.903	-14.69
728.929	0.31
728.954	1.31
728.979	9.31
729.004	-4.69
729.03	-5.69
729.055	17.31
729.08	-2.69
729.105	1.31
729.13	13.31
729.156	-7.69
729.181	-2.69
729.206	6.31
729.231	0.31
729.256	3.31
729.282	-4.69
729.307	-16.69
729.332	-9.69
729.357	2.31
729.382	7.31
729.408	12.31
729.433	22.31
729.458	9.31
729.483	2.31
729.508	28.31
729.533	0.31
729.559	-0.69
729.584	-13.69
729.609	7.31
729.634	5.31
729.659	-13.69
729.684	-8.69
729.71	12.31
729.735	-7.69
729.76	-5.69
729.785	9.31
729.81	10.31
729.835	1.31
729.86	-1.69
729.886	-0.69
729.911	6.31
729.936	1.31
729.961	16.31
729.986	-0.69
730.011	0.31
730.036	-1.69
730.061	-0.69
730.086	13.31
730.112	19.31
730.137	25.31
730.162	10.31
730.187	1.31
730.212	10.31
730.237	-6.69
730.262	-18.69
730.287	-5.69
730.312	8.31
730.337	-4.69
730.362	13.31
730.387	4.31
730.413	-3.69
730.438	0.31
730.463	-3.69
730.488	-4.69
730.513	-6.69
730.538	2.31
730.563	5.31
730.588	-1.69
730.613	1.31
730.638	1.31
730.663	-1.69
730.688	21.31
730.713	-0.69
730.738	6.31
730.763	9.31
730.788	0.31
730.813	17.31
730.838	1.31
730.863	-2.69
730.888	-1.69
730.913	-26.69
730.938	-13.69
730.963	11.31
730.988	16.31
731.013	26.31
731.038	1.31
731.063	7.31
731.088	11.31
731.113	11.31
731.138	13.31
731.163	2.31
731.188	-3.69
731.213	7.31
731.238	6.31
731.263	-5.69
731.288	14.31
731.313	9.31
731.338	19.31
731.363	1.31
731.388	8.31
731.413	2.31
731.438	15.31
731.463	-0.69
731.487	9.31
731.512	0.31
731.537	7.31
731.562	-4.69
731.587	9.31
731.612	3.31
731.637	-1.69
731.662	-8.69
731.687	3.31
731.712	-20.69
731.737	-11.69
731.762	8.31
731.786	8.31
731.811	6.31
731.836	4.31
731.861	-1.69
731.886	-2.69
731.911	4.31
731.936	14.31
731.961	12.31
731.986	5.31
732.01	5.31
732.035	-3.69
732.06	18.31
732.085	1.31
732.11	2.31
732.135	-10.69
732.16	9.31
732.184	15.31
732.209	11.31
732.234	14.31
732.259	-2.69
732.284	0.31
732.309	-2.69
732.334	1.31
732.358	-9.69
732.383	-17.69
732.408	-6.69
732.433	6.31
732.458	1.31
732.482	5.31
732.507	3.31
732.532	-0.69
732.557	7.31
732.582	-0.69
732.607	4.31
732.631	-9.69
732.656	1.31
732.681	-2.69
732.706	-0.69
732.73	4.31
732.755	-0.69
732.78	-8.69
732.805	8.31
732.83	-4.69
732.854	10.31
732.879	24.31
732.904	4.31
732.929	10.31
732.953	2.31
732.978	-0.69
733.003	-17.69
733.028	4.31
733.052	11.31
733.077	-0.69
733.102	13.31
733.127	5.31
733.151	-3.69
733.176	9.31
733.201	8.31
733.226	2.31
733.25	18.31
733.275	4.31
733.3	17.31
733.324	9.31
733.349	11.31
733.374	8.31
733.399	5.31
733.423	1.31
733.448	7.31
733.473	3.31
733.497	8.31
733.522	1.31
733.547	22.31
733.571	9.31
733.596	6.31
733.621	1.31
733.646	4.31
733.67	-2.69
733.695	-8.69
733.72	2.31
733.744	18.31
733.769	25.31
733.794	8.31
733.818	5.31
733.843	-6.69
733.867	-15.69
733.892	-2.69
733.917	-0.69
733.941	17.31
733.966	-2.69
733.991	-10.69
734.015	14.31
734.04	9.31
734.065	17.31
734.089	9.31
734.114	0.31
734.138	5.31
734.163	1.31
734.188	2.31
734.212	18.31
734.237	22.31
734.261	2.31
734.286	7.31
734.311	11.31
734.335	4.31
734.36	6.31
734.384	8.31
734.409	13.31
734.434	-12.69
734.458	3.31
734.483	-8.69
734.507	7.31
734.532	22.31
734.556	11.31
734.581	-7.69
734.606	-5.69
734.63	-3.69
734.655	7.31
734.679	5.31
734.704	18.31
734.728	9.31
734.753	-6.69
734.777	9.31
734.802	6.31
734.826	14.31
734.851	-0.69
734.876	25.31
734.9	17.31
734.925	23.31
734.949	15.31
734.974	0.31
734.998	2.31
735.023	-1.69
735.047	1.31
735.072	33.31
735.096	12.31
735.121	14.31
735.145	17.31
735.17	9.31
735.194	16.31
735.219	1.31
735.243	2.31
735.268	2.31
735.292	10.31
735.317	6.31
735.341	1.31
735.365	-22.69
735.39	10.31
735.414	10.31
735.439	7.31
735.463	14.31
735.488	2.31
735.512	13.31
735.537	3.31
735.561	7.31
735.586	11.31
735.61	9.31
735.634	5.31
735.659	0.31
735.683	20.31
735.708	-1.69
735.732	-4.69
735.757	-1.69
735.781	14.31
735.805	-1.69
735.83	-1.69
735.854	-1.69
735.879	7.31
735.903	16.31
735.927	25.31
735.952	12.31
735.976	5.31
736.001	-0.69
736.025	2.31
736.049	-5.69
736.074	1.31
736.098	6.31
736.123	6.31
736.147	14.31
736.171	0.31
736.196	4.31
736.22	-18.69
736.244	2.31
736.269	3.31
736.293	-4.69
736.317	-1.69
736.342	-0.69
736.366	17.31
736.39	13.31
736.415	-4.69
736.439	-1.69
736.463	30.31
736.488	7.31
736.512	6.31
736.536	-0.69
736.561	7.31
736.585	-4.69
736.609	19.31
736.634	1.31
736.658	5.31
736.682	-16.69
736.707	-9.69
736.731	-7.69
736.755	11.31
736.78	15.31
736.804	13.31
736.828	13.31
736.852	9.31
736.877	15.31
736.901	11.31
736.925	-5.69
736.949	11.31
736.974	-3.69
736.998	-12.69
737.022	11.31
737.047	11.31
737.071	3.31
737.095	3.31
737.119	25.31
737.144	10.31
737.168	-3.69
737.192	-5.69
737.216	6.31
737.241	6.31
737.265	4.31
737.289	6.31
737.313	5.31
737.337	1.31
737.362	3.31
737.386	1.31
737.41	-8.69
737.434	0.31
737.459	2.31
737.483	14.31
737.507	10.31
737.531	11.31
737.555	14.31
737.58	17.31
737.604	23.31
737.628	-7.69
737.652	5.31
737.676	-2.69
737.701	21.31
737.725	10.31
737.749	21.31
737.773	13.31
737.797	-4.69
737.821	22.31
737.846	2.31
737.87	24.31
737.894	16.31
737.918	14.31
737.942	-3.69
737.966	7.31
737.99	10.31
738.015	2.31
738.039	13.31
738.063	5.31
738.087	29.31
738.111	-3.69
738.135	5.31
738.159	0.31
738.184	9.31
738.208	11.31
738.232	-2.69
738.256	16.31
738.28	5.31
738.304	9.31
738.328	-17.69
738.352	2.31
738.376	0.31
738.4	15.31
738.425	28.31
738.449	-3.69
738.473	10.31
738.497	6.31
738.521	6.31
738.545	13.31
738.569	4.31
738.593	14.31
738.617	14.31
738.641	1.31
738.665	2.31
738.689	1.31
738.713	-0.69
738.737	3.31
738.762	19.31
738.786	14.31
738.81	6.31
738.834	18.31
738.858	2.31
738.882	7.31
738.906	-22.69
738.93	16.31
738.954	16.31
738.978	4.31
739.002	-6.69
739.026	20.31
739.05	-1.69
739.074	-2.69
739.098	33.31
739.122	26.31
739.146	13.31
739.17	18.31
739.194	-4.69
739.218	-2.69
739.242	-2.69
739.266	-12.69
739.29	18.31
739.314	17.31
739.338	9.31
739.362	3.31
739.386	5.31
739.41	4.31
739.434	-1.69
739.458	20.31
739.482	19.31
739.506	-0.69
739.53	13.31
739.554	19.31
739.577	-2.69
739.601	7.31
739.625	8.31
739.649	-2.69
739.673	-1.69
739.697	8.31
739.721	-1.69
739.745	-0.69
739.769	5.31
739.793	-1.69
739.817	6.31
739.841	2.31
739.865	-1.69
739.889	-0.69
739.912	12.31
739.936	-1.69
739.96	-5.69
739.984	14.31
740.008	-0.69
740.032	-1.69
740.056	2.31
740.08	3.31
740.104	1.31
740.127	10.31
740.151	5.31
740.175	26.31
740.199	11.31
740.223	61.31
740.247	16.31
740.271	9.31
740.295	1.31
740.318	-14.69
740.342	7.31
740.366	18.31
740.39	26.31
740.414	6.31
740.438	11.31
740.461	13.31
740.485	14.31
740.509	-6.69
740.533	19.31
740.557	-6.69
740.581	-0.69
740.604	-8.69
740.628	-2.69
740.652	12.31
740.676	1.31
740.7	0.31
740.723	-10.69
740.747	-2.69
740.771	-5.69
740.795	-1.69
740.819	6.31
740.842	9.31
740.866	-2.69
740.89	-0.69
740.914	-23.69
740.938	-22.69
740.961	0.31
740.985	3.31
741.009	4.31
741.033	22.31
741.056	0.31
741.08	-8.69
741.104	-2.69
741.128	2.31
741.151	8.31
741.175	5.31
741.199	7.31
741.223	4.31
741.246	10.31
741.27	11.31
741.294	6.31
741.318	6.31
741.341	14.31
741.365	15.31
741.389	-2.69
741.413	8.31
741.436	20.31
741.46	13.31
741.484	6.31
741.507	6.31
741.531	20.31
741.555	25.31
741.579	3.31
741.602	9.31
741.626	13.31
741.65	8.31
741.673	1.31
741.697	9.31
741.721	7.31
741.744	-5.69
741.768	0.31
741.792	2.31
741.815	-3.69
741.839	14.31
741.863	30.31
741.886	18.31
741.91	5.31
741.934	10.31
741.957	1.31
741.981	13.31
742.005	2.31
742.028	-20.69
742.052	6.31
742.075	27.31
742.099	22.31
742.123	17.31
742.146	16.31
742.17	6.31
742.194	-4.69
742.217	-12.69
742.241	4.31
742.264	-9.69
742.288	29.31
742.312	26.31
742.335	-0.69
742.359	4.31
742.382	18.31
742.406	-1.69
742.43	2.31
742.453	5.31
742.477	-0.69
742.5	0.31
742.524	-9.69
742.548	-6.69
742.571	-0.69
742.595	4.31
742.618	-0.69
742.642	-0.69
742.665	24.31
742.689	-15.69
742.712	7.31
742.736	4.31
742.76	-4.69
742.783	9.31
742.807	23.31
742.83	30.31
742.854	2.31
742.877	-2.69
742.901	-2.69
742.924	-5.69
742.948	-0.69
742.971	14.31
742.995	10.31
743.018	-4.69
743.042	-1.69
743.065	1.31
743.089	2.31
743.112	7.31
743.136	10.31
743.159	8.31
743.183	-4.69
743.206	3.31
743.23	-10.69
743.253	18.31
743.277	12.31
743.3	-0.69
743.324	2.31
743.347	-9.69
743.371	19.31
743.394	8.31
743.418	18.31
743.441	5.31
743.465	3.31
743.488	3.31
743.512	-11.69
743.535	-2.69
743.558	-17.69
743.582	-7.69
743.605	11.31
743.629	13.31
743.652	1.31
743.676	3.31
743.699	14.31
743.723	13.31
743.746	8.31
743.769	-10.69
743.793	8.31
743.816	-2.69
743.84	19.31
743.863	-13.69
743.886	11.31
743.91	24.31
743.933	21.31
743.957	9.31
743.98	-8.69
744.003	11.31
744.027	-5.69
744.05	-16.69
744.074	-1.69
744.097	-19.69
744.12	-13.69
744.144	-21.69
744.167	13.31
744.19	-14.69
744.214	8.31
744.237	0.31
744.26	18.31
744.284	-5.69
744.307	-9.69
744.331	2.31
744.354	1.31
744.377	0.31
744.401	-5.69
744.424	-6.69
744.447	-14.69
744.471	2.31
