Data from HighRes_H2D2_15_04_11_07_2024_HR4C61891__64__15-05-40-843.txt Node

Date: Thu Nov 07 15:05:40 EST 2024
User: crc00042
Spectrometer: HR4C6189
Trigger mode: 4
Integration Time (sec): 1.000000E-1
Scans to average: 1
Electric dark correction enabled: true
Nonlinearity correction enabled: false
Boxcar width: 0
XAxis mode: Wavelengths
Number of Pixels in Spectrum: 3648
>>>>>Begin Spectral Data<<<<<
639.567	-72.92
639.602	-72.92
639.636	-72.92
639.67	-38.92
639.704	1.08
639.738	-10.92
639.773	12.08
639.807	-1.92
639.841	8.08
639.875	13.08
639.909	-5.92
639.943	-7.92
639.978	-3.92
640.012	5.08
640.046	16.08
640.08	-4.92
640.114	-7.92
640.148	-10.92
640.182	12.08
640.217	0.08
640.251	5.08
640.285	13.08
640.319	-12.92
640.353	11.08
640.387	7.08
640.421	-9.92
640.455	-5.92
640.49	3.08
640.524	2.08
640.558	5.08
640.592	-9.92
640.626	4.08
640.66	-1.92
640.694	-8.92
640.728	-7.92
640.762	15.08
640.796	28.08
640.83	13.08
640.865	-3.92
640.899	-4.92
640.933	3.08
640.967	-2.92
641.001	16.08
641.035	6.08
641.069	9.08
641.103	0.08
641.137	-2.92
641.171	-4.92
641.205	5.08
641.239	21.08
641.273	23.08
641.307	13.08
641.341	-8.92
641.375	16.08
641.409	2.08
641.443	13.08
641.477	3.08
641.511	21.08
641.545	23.08
641.579	-3.92
641.614	7.08
641.648	17.08
641.682	-7.92
641.716	6.08
641.75	16.08
641.784	9.08
641.818	0.08
641.852	12.08
641.886	-10.92
641.919	14.08
641.953	5.08
641.987	-4.92
642.021	2.08
642.055	-5.92
642.089	4.08
642.123	-2.92
642.157	8.08
642.191	8.08
642.225	35.08
642.259	7.08
642.293	5.08
642.327	10.08
642.361	12.08
642.395	5.08
642.429	10.08
642.463	20.08
642.497	9.08
642.531	5.08
642.565	-1.92
642.599	3.08
642.633	-8.92
642.666	12.08
642.7	10.08
642.734	21.08
642.768	-4.92
642.802	-3.92
642.836	11.08
642.87	15.08
642.904	12.08
642.938	12.08
642.972	16.08
643.005	1.08
643.039	14.08
643.073	-0.92
643.107	9.08
643.141	-1.92
643.175	8.08
643.209	8.08
643.243	12.08
643.276	6.08
643.31	0.08
643.344	1.08
643.378	-15.92
643.412	15.08
643.446	7.08
643.48	0.08
643.513	17.08
643.547	2.08
643.581	2.08
643.615	4.08
643.649	6.08
643.683	-12.92
643.716	9.08
643.75	-3.92
643.784	-27.92
643.818	-4.92
643.852	8.08
643.886	1.08
643.919	11.08
643.953	4.08
643.987	6.08
644.021	9.08
644.055	12.08
644.088	4.08
644.122	15.08
644.156	-9.92
644.19	1.08
644.224	12.08
644.257	5.08
644.291	8.08
644.325	19.08
644.359	-6.92
644.392	20.08
644.426	16.08
644.46	-11.92
644.494	8.08
644.527	-14.92
644.561	-3.92
644.595	5.08
644.629	0.08
644.662	9.08
644.696	8.08
644.73	1.08
644.764	12.08
644.797	7.08
644.831	8.08
644.865	10.08
644.899	-0.92
644.932	11.08
644.966	1.08
645	9.08
645.033	10.08
645.067	-5.92
645.101	19.08
645.135	0.08
645.168	0.08
645.202	-19.92
645.236	5.08
645.269	-0.92
645.303	8.08
645.337	-18.92
645.37	2.08
645.404	-4.92
645.438	6.08
645.471	-9.92
645.505	-5.92
645.539	0.08
645.572	-21.92
645.606	-0.92
645.64	6.08
645.673	-0.92
645.707	12.08
645.741	-5.92
645.774	1.08
645.808	17.08
645.842	-9.92
645.875	7.08
645.909	-14.92
645.943	-18.92
645.976	-5.92
646.01	24.08
646.043	13.08
646.077	9.08
646.111	4.08
646.144	11.08
646.178	17.08
646.212	-5.92
646.245	-11.92
646.279	10.08
646.312	0.08
646.346	11.08
646.38	3.08
646.413	1.08
646.447	15.08
646.48	9.08
646.514	-1.92
646.547	3.08
646.581	2.08
646.615	11.08
646.648	1.08
646.682	5.08
646.715	3.08
646.749	16.08
646.782	9.08
646.816	-10.92
646.85	11.08
646.883	-0.92
646.917	5.08
646.95	-5.92
646.984	2.08
647.017	5.08
647.051	20.08
647.084	13.08
647.118	-2.92
647.151	3.08
647.185	15.08
647.218	-1.92
647.252	9.08
647.285	8.08
647.319	-3.92
647.353	11.08
647.386	24.08
647.42	15.08
647.453	-12.92
647.487	7.08
647.52	4.08
647.553	3.08
647.587	0.08
647.62	-16.92
647.654	4.08
647.687	25.08
647.721	6.08
647.754	11.08
647.788	1.08
647.821	-16.92
647.855	7.08
647.888	22.08
647.922	20.08
647.955	1.08
647.989	-5.92
648.022	0.08
648.055	12.08
648.089	4.08
648.122	16.08
648.156	-9.92
648.189	11.08
648.223	5.08
648.256	28.08
648.29	12.08
648.323	6.08
648.356	13.08
648.39	-1.92
648.423	0.08
648.457	-13.92
648.49	13.08
648.523	21.08
648.557	-4.92
648.59	-2.92
648.624	-3.92
648.657	5.08
648.69	12.08
648.724	18.08
648.757	15.08
648.791	2.08
648.824	11.08
648.857	29.08
648.891	31.08
648.924	3.08
648.957	19.08
648.991	-8.92
649.024	3.08
649.057	3.08
649.091	1.08
649.124	7.08
649.158	3.08
649.191	14.08
649.224	8.08
649.258	13.08
649.291	17.08
649.324	9.08
649.358	-5.92
649.391	11.08
649.424	1.08
649.458	0.08
649.491	8.08
649.524	-4.92
649.557	-1.92
649.591	2.08
649.624	20.08
649.657	3.08
649.691	2.08
649.724	2.08
649.757	15.08
649.791	-12.92
649.824	11.08
649.857	14.08
649.89	3.08
649.924	1.08
649.957	6.08
649.99	-13.92
650.023	6.08
650.057	3.08
650.09	9.08
650.123	9.08
650.157	14.08
650.19	15.08
650.223	16.08
650.256	7.08
650.29	1.08
650.323	19.08
650.356	2.08
650.389	-1.92
650.423	-7.92
650.456	9.08
650.489	5.08
650.522	-5.92
650.555	-2.92
650.589	22.08
650.622	10.08
650.655	5.08
650.688	11.08
650.721	-3.92
650.755	5.08
650.788	21.08
650.821	6.08
650.854	4.08
650.887	-1.92
650.921	-1.92
650.954	6.08
650.987	6.08
651.02	11.08
651.053	-5.92
651.087	-18.92
651.12	24.08
651.153	10.08
651.186	1.08
651.219	-14.92
651.252	17.08
651.286	5.08
651.319	-4.92
651.352	10.08
651.385	25.08
651.418	16.08
651.451	10.08
651.484	16.08
651.518	-0.92
651.551	18.08
651.584	-0.92
651.617	14.08
651.65	11.08
651.683	11.08
651.716	-3.92
651.749	-11.92
651.783	5.08
651.816	20.08
651.849	29.08
651.882	16.08
651.915	-2.92
651.948	15.08
651.981	-4.92
652.014	-12.92
652.047	10.08
652.08	-11.92
652.114	5.08
652.147	-6.92
652.18	12.08
652.213	24.08
652.246	6.08
652.279	8.08
652.312	23.08
652.345	13.08
652.378	23.08
652.411	28.08
652.444	14.08
652.477	12.08
652.51	15.08
652.543	0.08
652.576	7.08
652.609	-21.92
652.642	1.08
652.675	13.08
652.709	-0.92
652.742	15.08
652.775	9.08
652.808	9.08
652.841	12.08
652.874	7.08
652.907	14.08
652.94	-2.92
652.973	-14.92
653.006	0.08
653.039	-0.92
653.072	-0.92
653.105	6.08
653.138	-8.92
653.171	15.08
653.204	11.08
653.237	1.08
653.27	8.08
653.303	15.08
653.336	22.08
653.368	10.08
653.401	8.08
653.434	1.08
653.467	-1.92
653.5	-9.92
653.533	15.08
653.566	19.08
653.599	18.08
653.632	4.08
653.665	-4.92
653.698	-5.92
653.731	11.08
653.764	5.08
653.797	15.08
653.83	19.08
653.863	-10.92
653.896	6.08
653.929	5.08
653.961	18.08
653.994	12.08
654.027	7.08
654.06	-0.92
654.093	16.08
654.126	11.08
654.159	8.08
654.192	5.08
654.225	9.08
654.258	0.08
654.29	19.08
654.323	19.08
654.356	15.08
654.389	14.08
654.422	-4.92
654.455	1.08
654.488	7.08
654.521	-18.92
654.553	-16.92
654.586	16.08
654.619	-3.92
654.652	8.08
654.685	13.08
654.718	15.08
654.751	8.08
654.783	-0.92
654.816	17.08
654.849	9.08
654.882	-0.92
654.915	1.08
654.948	-3.92
654.98	3.08
655.013	10.08
655.046	13.08
655.079	-4.92
655.112	7.08
655.144	-5.92
655.177	12.08
655.21	13.08
655.243	10.08
655.276	20.08
655.308	2.08
655.341	-7.92
655.374	1.08
655.407	7.08
655.44	6.08
655.472	22.08
655.505	3.08
655.538	20.08
655.571	11.08
655.603	-4.92
655.636	5.08
655.669	5.08
655.702	11.08
655.734	-3.92
655.767	-8.92
655.8	-0.92
655.833	11.08
655.865	16.08
655.898	9.08
655.931	13.08
655.964	24.08
655.996	7.08
656.029	54.08
656.062	36.08
656.095	42.08
656.127	77.08
656.16	215.08
656.193	647.08
656.225	952.08
656.258	543.08
656.291	222.08
656.324	195.08
656.356	370.08
656.389	764.08
656.422	712.08
656.454	254.08
656.487	85.08
656.52	32.08
656.552	23.08
656.585	9.08
656.618	32.08
656.65	17.08
656.683	13.08
656.716	14.08
656.748	14.08
656.781	10.08
656.814	4.08
656.846	13.08
656.879	11.08
656.912	14.08
656.944	0.08
656.977	-4.92
657.01	13.08
657.042	26.08
657.075	21.08
657.108	5.08
657.14	8.08
657.173	16.08
657.205	42.08
657.238	1.08
657.271	10.08
657.303	-6.92
657.336	-4.92
657.369	3.08
657.401	20.08
657.434	4.08
657.466	28.08
657.499	4.08
657.532	-12.92
657.564	4.08
657.597	10.08
657.629	11.08
657.662	12.08
657.694	11.08
657.727	-12.92
657.76	16.08
657.792	1.08
657.825	3.08
657.857	12.08
657.89	7.08
657.922	12.08
657.955	5.08
657.987	8.08
658.02	4.08
658.053	5.08
658.085	10.08
658.118	20.08
658.15	9.08
658.183	30.08
658.215	10.08
658.248	-5.92
658.28	-16.92
658.313	21.08
658.345	17.08
658.378	17.08
658.41	14.08
658.443	18.08
658.475	2.08
658.508	17.08
658.54	10.08
658.573	-1.92
658.605	6.08
658.638	-9.92
658.67	9.08
658.703	9.08
658.735	-27.92
658.768	10.08
658.8	-11.92
658.833	16.08
658.865	12.08
658.898	5.08
658.93	1.08
658.963	11.08
658.995	-12.92
659.028	-3.92
659.06	4.08
659.092	-11.92
659.125	6.08
659.157	8.08
659.19	-8.92
659.222	5.08
659.255	7.08
659.287	4.08
659.32	3.08
659.352	0.08
659.384	4.08
659.417	3.08
659.449	-10.92
659.482	5.08
659.514	-17.92
659.546	7.08
659.579	0.08
659.611	15.08
659.644	-6.92
659.676	-5.92
659.708	-3.92
659.741	-2.92
659.773	2.08
659.806	9.08
659.838	-3.92
659.87	-2.92
659.903	-5.92
659.935	11.08
659.967	0.08
660	10.08
660.032	1.08
660.065	10.08
660.097	6.08
660.129	8.08
660.162	-8.92
660.194	9.08
660.226	5.08
660.259	15.08
660.291	5.08
660.323	-11.92
660.356	4.08
660.388	-5.92
660.42	-8.92
660.453	11.08
660.485	24.08
660.517	7.08
660.55	6.08
660.582	10.08
660.614	16.08
660.647	-10.92
660.679	7.08
660.711	14.08
660.743	-7.92
660.776	0.08
660.808	9.08
660.84	9.08
660.873	9.08
660.905	1.08
660.937	15.08
660.969	-13.92
661.002	20.08
661.034	25.08
661.066	16.08
661.099	1.08
661.131	8.08
661.163	10.08
661.195	0.08
661.228	24.08
661.26	4.08
661.292	4.08
661.324	4.08
661.357	11.08
661.389	15.08
661.421	14.08
661.453	1.08
661.485	16.08
661.518	11.08
661.55	-3.92
661.582	-14.92
661.614	13.08
661.647	9.08
661.679	4.08
661.711	-1.92
661.743	-9.92
661.775	10.08
661.808	21.08
661.84	-2.92
661.872	20.08
661.904	-1.92
661.936	-3.92
661.969	-1.92
662.001	5.08
662.033	10.08
662.065	3.08
662.097	14.08
662.129	16.08
662.162	10.08
662.194	20.08
662.226	4.08
662.258	20.08
662.29	30.08
662.322	-6.92
662.355	-11.92
662.387	15.08
662.419	9.08
662.451	16.08
662.483	-3.92
662.515	-12.92
662.547	-7.92
662.58	-4.92
662.612	-1.92
662.644	-1.92
662.676	-6.92
662.708	22.08
662.74	8.08
662.772	10.08
662.804	8.08
662.836	10.08
662.869	7.08
662.901	21.08
662.933	14.08
662.965	17.08
662.997	22.08
663.029	-14.92
663.061	8.08
663.093	10.08
663.125	12.08
663.157	23.08
663.189	-6.92
663.221	16.08
663.254	13.08
663.286	11.08
663.318	-12.92
663.35	5.08
663.382	-3.92
663.414	11.08
663.446	-7.92
663.478	-7.92
663.51	4.08
663.542	-0.92
663.574	2.08
663.606	2.08
663.638	-0.92
663.67	7.08
663.702	8.08
663.734	-7.92
663.766	-12.92
663.798	5.08
663.83	5.08
663.862	9.08
663.894	1.08
663.926	-0.92
663.958	3.08
663.99	-8.92
664.022	-5.92
664.054	14.08
664.086	-5.92
664.118	-5.92
664.15	-3.92
664.182	-0.92
664.214	-16.92
664.246	14.08
664.278	13.08
664.31	12.08
664.342	6.08
664.374	-0.92
664.406	-0.92
664.438	2.08
664.47	29.08
664.502	9.08
664.534	-13.92
664.566	-4.92
664.598	3.08
664.63	0.08
664.662	-0.92
664.693	12.08
664.725	-9.92
664.757	7.08
664.789	-22.92
664.821	5.08
664.853	8.08
664.885	-13.92
664.917	3.08
664.949	26.08
664.981	14.08
665.013	-3.92
665.045	4.08
665.076	6.08
665.108	31.08
665.14	-6.92
665.172	-0.92
665.204	1.08
665.236	3.08
665.268	18.08
665.3	7.08
665.331	-7.92
665.363	23.08
665.395	1.08
665.427	-4.92
665.459	4.08
665.491	-6.92
665.523	3.08
665.555	-1.92
665.586	12.08
665.618	5.08
665.65	-5.92
665.682	17.08
665.714	10.08
665.746	11.08
665.777	5.08
665.809	17.08
665.841	7.08
665.873	7.08
665.905	-4.92
665.937	24.08
665.968	16.08
666	12.08
666.032	9.08
666.064	-1.92
666.096	5.08
666.127	3.08
666.159	13.08
666.191	17.08
666.223	2.08
666.255	13.08
666.286	1.08
666.318	7.08
666.35	19.08
666.382	9.08
666.413	-5.92
666.445	-5.92
666.477	3.08
666.509	-2.92
666.54	5.08
666.572	10.08
666.604	4.08
666.636	0.08
666.667	22.08
666.699	27.08
666.731	4.08
666.763	-3.92
666.794	9.08
666.826	12.08
666.858	-8.92
666.89	18.08
666.921	15.08
666.953	12.08
666.985	6.08
667.017	25.08
667.048	-3.92
667.08	-3.92
667.112	9.08
667.143	1.08
667.175	-0.92
667.207	-10.92
667.238	18.08
667.27	15.08
667.302	19.08
667.334	3.08
667.365	14.08
667.397	7.08
667.429	5.08
667.46	16.08
667.492	-2.92
667.524	3.08
667.555	10.08
667.587	18.08
667.619	-9.92
667.65	-9.92
667.682	8.08
667.714	12.08
667.745	14.08
667.777	8.08
667.808	7.08
667.84	11.08
667.872	11.08
667.903	35.08
667.935	16.08
667.967	3.08
667.998	1.08
668.03	7.08
668.061	21.08
668.093	12.08
668.125	9.08
668.156	11.08
668.188	4.08
668.22	-10.92
668.251	13.08
668.283	-3.92
668.314	23.08
668.346	3.08
668.377	3.08
668.409	-5.92
668.441	14.08
668.472	22.08
668.504	6.08
668.535	8.08
668.567	12.08
668.599	5.08
668.63	-4.92
668.662	2.08
668.693	29.08
668.725	7.08
668.756	18.08
668.788	-5.92
668.819	3.08
668.851	0.08
668.882	12.08
668.914	-0.92
668.946	5.08
668.977	-6.92
669.009	2.08
669.04	6.08
669.072	4.08
669.103	9.08
669.135	5.08
669.166	-15.92
669.198	0.08
669.229	6.08
669.261	-4.92
669.292	-2.92
669.324	1.08
669.355	11.08
669.387	-11.92
669.418	12.08
669.45	0.08
669.481	13.08
669.513	15.08
669.544	9.08
669.576	-0.92
669.607	11.08
669.639	4.08
669.67	8.08
669.701	14.08
669.733	2.08
669.764	10.08
669.796	-1.92
669.827	-12.92
669.859	-5.92
669.89	16.08
669.922	21.08
669.953	8.08
669.985	9.08
670.016	21.08
670.047	4.08
670.079	-2.92
670.11	10.08
670.142	4.08
670.173	1.08
670.204	5.08
670.236	6.08
670.267	15.08
670.299	7.08
670.33	2.08
670.362	1.08
670.393	-10.92
670.424	-1.92
670.456	-7.92
670.487	4.08
670.518	1.08
670.55	10.08
670.581	8.08
670.613	17.08
670.644	1.08
670.675	-12.92
670.707	2.08
670.738	0.08
670.769	2.08
670.801	9.08
670.832	24.08
670.864	7.08
670.895	-2.92
670.926	10.08
670.958	5.08
670.989	7.08
671.02	4.08
671.052	12.08
671.083	-3.92
671.114	6.08
671.146	13.08
671.177	10.08
671.208	-8.92
671.24	-2.92
671.271	3.08
671.302	4.08
671.333	10.08
671.365	5.08
671.396	-3.92
671.427	7.08
671.459	17.08
671.49	14.08
671.521	8.08
671.553	17.08
671.584	15.08
671.615	-5.92
671.646	19.08
671.678	12.08
671.709	-0.92
671.74	10.08
671.771	8.08
671.803	17.08
671.834	22.08
671.865	2.08
671.896	13.08
671.928	-0.92
671.959	16.08
671.99	3.08
672.021	8.08
672.053	-6.92
672.084	10.08
672.115	2.08
672.146	-7.92
672.178	-17.92
672.209	-9.92
672.24	-8.92
672.271	31.08
672.303	9.08
672.334	-8.92
672.365	-1.92
672.396	10.08
672.427	-6.92
672.459	4.08
672.49	26.08
672.521	10.08
672.552	11.08
672.583	20.08
672.615	9.08
672.646	20.08
672.677	-2.92
672.708	-2.92
672.739	13.08
672.77	9.08
672.802	0.08
672.833	6.08
672.864	3.08
672.895	-10.92
672.926	18.08
672.957	1.08
672.989	-4.92
673.02	8.08
673.051	0.08
673.082	14.08
673.113	1.08
673.144	14.08
673.175	15.08
673.206	-2.92
673.238	6.08
673.269	16.08
673.3	-8.92
673.331	13.08
673.362	-6.92
673.393	10.08
673.424	15.08
673.455	22.08
673.487	15.08
673.518	26.08
673.549	7.08
673.58	-0.92
673.611	6.08
673.642	2.08
673.673	-18.92
673.704	18.08
673.735	7.08
673.766	2.08
673.797	-4.92
673.828	10.08
673.86	3.08
673.891	16.08
673.922	-11.92
673.953	-5.92
673.984	1.08
674.015	13.08
674.046	5.08
674.077	3.08
674.108	-8.92
674.139	2.08
674.17	-4.92
674.201	-14.92
674.232	2.08
674.263	3.08
674.294	-5.92
674.325	-6.92
674.356	5.08
674.387	15.08
674.418	8.08
674.449	-0.92
674.48	7.08
674.511	20.08
674.542	8.08
674.573	8.08
674.604	17.08
674.635	1.08
674.666	10.08
674.697	-1.92
674.728	2.08
674.759	3.08
674.79	-7.92
674.821	-2.92
674.852	-8.92
674.883	6.08
674.914	16.08
674.945	15.08
674.976	6.08
675.007	9.08
675.038	7.08
675.069	8.08
675.1	9.08
675.131	-3.92
675.162	-0.92
675.193	-9.92
675.224	7.08
675.254	8.08
675.285	-4.92
675.316	9.08
675.347	-1.92
675.378	4.08
675.409	-19.92
675.44	12.08
675.471	7.08
675.502	-0.92
675.533	7.08
675.564	3.08
675.595	1.08
675.625	26.08
675.656	16.08
675.687	12.08
675.718	-6.92
675.749	18.08
675.78	8.08
675.811	-10.92
675.842	8.08
675.873	-13.92
675.903	5.08
675.934	15.08
675.965	-3.92
675.996	2.08
676.027	13.08
676.058	14.08
676.089	14.08
676.119	9.08
676.15	9.08
676.181	-0.92
676.212	-0.92
676.243	4.08
676.274	4.08
676.304	19.08
676.335	-14.92
676.366	1.08
676.397	7.08
676.428	-5.92
676.459	16.08
676.489	15.08
676.52	8.08
676.551	-3.92
676.582	-2.92
676.613	15.08
676.643	3.08
676.674	9.08
676.705	0.08
676.736	17.08
676.767	7.08
676.797	13.08
676.828	11.08
676.859	1.08
676.89	-0.92
676.92	-0.92
676.951	0.08
676.982	8.08
677.013	-1.92
677.044	10.08
677.074	4.08
677.105	-1.92
677.136	13.08
677.167	15.08
677.197	14.08
677.228	8.08
677.259	7.08
677.289	15.08
677.32	-14.92
677.351	-11.92
677.382	-12.92
677.412	-4.92
677.443	11.08
677.474	16.08
677.505	-22.92
677.535	-0.92
677.566	-2.92
677.597	-3.92
677.627	-7.92
677.658	1.08
677.689	-17.92
677.72	11.08
677.75	16.08
677.781	16.08
677.812	9.08
677.842	7.08
677.873	9.08
677.904	8.08
677.934	-1.92
677.965	1.08
677.996	-7.92
678.026	6.08
678.057	12.08
678.088	-6.92
678.118	16.08
678.149	-3.92
678.18	-7.92
678.21	-10.92
678.241	-4.92
678.272	-7.92
678.302	3.08
678.333	11.08
678.363	10.08
678.394	10.08
678.425	11.08
678.455	9.08
678.486	14.08
678.517	15.08
678.547	3.08
678.578	1.08
678.608	-2.92
678.639	23.08
678.67	13.08
678.7	12.08
678.731	3.08
678.761	4.08
678.792	9.08
678.823	9.08
678.853	11.08
678.884	-3.92
678.914	8.08
678.945	0.08
678.975	1.08
679.006	15.08
679.037	1.08
679.067	14.08
679.098	1.08
679.128	-1.92
679.159	-0.92
679.189	11.08
679.22	-2.92
679.25	1.08
679.281	4.08
679.312	-4.92
679.342	7.08
679.373	34.08
679.403	15.08
679.434	14.08
679.464	-14.92
679.495	12.08
679.525	1.08
679.556	10.08
679.586	2.08
679.617	2.08
679.647	7.08
679.678	3.08
679.708	10.08
679.739	3.08
679.769	1.08
679.8	0.08
679.83	14.08
679.861	12.08
679.891	-12.92
679.922	-3.92
679.952	11.08
679.983	11.08
680.013	11.08
680.044	1.08
680.074	9.08
680.105	9.08
680.135	16.08
680.165	5.08
680.196	13.08
680.226	16.08
680.257	11.08
680.287	3.08
680.318	2.08
680.348	-7.92
680.379	11.08
680.409	14.08
680.439	-2.92
680.47	-10.92
680.5	1.08
680.531	1.08
680.561	28.08
680.592	0.08
680.622	17.08
680.652	-0.92
680.683	11.08
680.713	3.08
680.744	-4.92
680.774	-14.92
680.804	13.08
680.835	7.08
680.865	4.08
680.896	19.08
680.926	13.08
680.956	11.08
680.987	18.08
681.017	-6.92
681.047	3.08
681.078	-1.92
681.108	-1.92
681.139	-1.92
681.169	12.08
681.199	-2.92
681.23	9.08
681.26	-19.92
681.29	0.08
681.321	-1.92
681.351	3.08
681.381	-5.92
681.412	0.08
681.442	12.08
681.472	36.08
681.503	15.08
681.533	-4.92
681.563	-11.92
681.594	7.08
681.624	-5.92
681.654	-7.92
681.685	-5.92
681.715	-6.92
681.745	-4.92
681.775	-18.92
681.806	0.08
681.836	1.08
681.866	-7.92
681.897	-2.92
681.927	-8.92
681.957	-14.92
681.987	-0.92
682.018	-2.92
682.048	13.08
682.078	5.08
682.109	15.08
682.139	10.08
682.169	6.08
682.199	16.08
682.23	-5.92
682.26	14.08
682.29	-11.92
682.32	3.08
682.351	-8.92
682.381	-3.92
682.411	8.08
682.441	0.08
682.472	5.08
682.502	1.08
682.532	8.08
682.562	10.08
682.592	19.08
682.623	7.08
682.653	0.08
682.683	-9.92
682.713	20.08
682.743	-2.92
682.774	-11.92
682.804	15.08
682.834	18.08
682.864	8.08
682.894	-0.92
682.925	-1.92
682.955	3.08
682.985	4.08
683.015	-16.92
683.045	-0.92
683.076	-2.92
683.106	-12.92
683.136	7.08
683.166	5.08
683.196	-3.92
683.226	-9.92
683.257	-3.92
683.287	0.08
683.317	2.08
683.347	-16.92
683.377	2.08
683.407	10.08
683.437	11.08
683.468	0.08
683.498	-8.92
683.528	-3.92
683.558	-2.92
683.588	-1.92
683.618	3.08
683.648	-18.92
683.678	16.08
683.708	0.08
683.739	-0.92
683.769	8.08
683.799	-12.92
683.829	7.08
683.859	1.08
683.889	24.08
683.919	2.08
683.949	5.08
683.979	2.08
684.009	-0.92
684.039	-5.92
684.07	1.08
684.1	31.08
684.13	-1.92
684.16	5.08
684.19	2.08
684.22	7.08
684.25	10.08
684.28	3.08
684.31	11.08
684.34	12.08
684.37	23.08
684.4	2.08
684.43	8.08
684.46	6.08
684.49	7.08
684.52	16.08
684.55	20.08
684.58	5.08
684.61	7.08
684.64	-1.92
684.67	0.08
684.7	-12.92
684.73	0.08
684.76	-4.92
684.79	23.08
684.82	15.08
684.85	6.08
684.88	16.08
684.91	9.08
684.94	-2.92
684.97	6.08
685	-4.92
685.03	-4.92
685.06	0.08
685.09	5.08
685.12	22.08
685.15	-0.92
685.18	0.08
685.21	4.08
685.24	12.08
685.27	22.08
685.3	8.08
685.33	15.08
685.36	-0.92
685.39	0.08
685.42	8.08
685.45	3.08
685.48	11.08
685.51	-1.92
685.54	31.08
685.569	12.08
685.599	8.08
685.629	22.08
685.659	6.08
685.689	-0.92
685.719	19.08
685.749	2.08
685.779	0.08
685.809	14.08
685.839	10.08
685.869	12.08
685.898	13.08
685.928	9.08
685.958	8.08
685.988	14.08
686.018	6.08
686.048	8.08
686.078	17.08
686.108	30.08
686.137	2.08
686.167	17.08
686.197	-8.92
686.227	-2.92
686.257	27.08
686.287	25.08
686.317	13.08
686.346	8.08
686.376	-10.92
686.406	-3.92
686.436	11.08
686.466	3.08
686.496	21.08
686.525	10.08
686.555	1.08
686.585	9.08
686.615	38.08
686.645	15.08
686.675	0.08
686.704	20.08
686.734	19.08
686.764	-8.92
686.794	5.08
686.824	-3.92
686.853	20.08
686.883	24.08
686.913	12.08
686.943	1.08
686.973	-5.92
687.002	-5.92
687.032	15.08
687.062	-6.92
687.092	25.08
687.121	5.08
687.151	1.08
687.181	-5.92
687.211	3.08
687.24	-2.92
687.27	3.08
687.3	8.08
687.33	9.08
687.359	-5.92
687.389	1.08
687.419	13.08
687.449	2.08
687.478	13.08
687.508	28.08
687.538	14.08
687.568	18.08
687.597	1.08
687.627	4.08
687.657	14.08
687.686	13.08
687.716	6.08
687.746	-11.92
687.776	-7.92
687.805	6.08
687.835	12.08
687.865	19.08
687.894	14.08
687.924	8.08
687.954	-9.92
687.983	9.08
688.013	19.08
688.043	14.08
688.072	8.08
688.102	19.08
688.132	11.08
688.161	14.08
688.191	6.08
688.221	25.08
688.25	3.08
688.28	14.08
688.31	19.08
688.339	15.08
688.369	-13.92
688.399	2.08
688.428	13.08
688.458	-3.92
688.488	4.08
688.517	20.08
688.547	15.08
688.576	43.08
688.606	6.08
688.636	-16.92
688.665	5.08
688.695	12.08
688.725	15.08
688.754	13.08
688.784	9.08
688.813	11.08
688.843	14.08
688.873	-0.92
688.902	6.08
688.932	7.08
688.961	3.08
688.991	10.08
689.02	18.08
689.05	8.08
689.08	19.08
689.109	21.08
689.139	19.08
689.168	8.08
689.198	0.08
689.227	0.08
689.257	15.08
689.287	16.08
689.316	-7.92
689.346	-12.92
689.375	-11.92
689.405	11.08
689.434	5.08
689.464	2.08
689.493	1.08
689.523	5.08
689.552	-6.92
689.582	5.08
689.611	4.08
689.641	5.08
689.67	7.08
689.7	12.08
689.73	15.08
689.759	10.08
689.789	23.08
689.818	4.08
689.848	13.08
689.877	21.08
689.906	-4.92
689.936	1.08
689.965	5.08
689.995	3.08
690.024	16.08
690.054	8.08
690.083	5.08
690.113	6.08
690.142	-1.92
690.172	10.08
690.201	-2.92
690.231	12.08
690.26	15.08
690.29	10.08
690.319	20.08
690.348	11.08
690.378	2.08
690.407	14.08
690.437	12.08
690.466	11.08
690.496	11.08
690.525	4.08
690.555	6.08
690.584	9.08
690.613	7.08
690.643	5.08
690.672	6.08
690.702	-13.92
690.731	10.08
690.76	-3.92
690.79	-7.92
690.819	-6.92
690.849	2.08
690.878	7.08
690.907	3.08
690.937	19.08
690.966	11.08
690.996	1.08
691.025	12.08
691.054	3.08
691.084	14.08
691.113	11.08
691.142	11.08
691.172	1.08
691.201	7.08
691.23	9.08
691.26	11.08
691.289	11.08
691.319	8.08
691.348	7.08
691.377	3.08
691.407	18.08
691.436	11.08
691.465	5.08
691.495	-3.92
691.524	-0.92
691.553	-1.92
691.583	-10.92
691.612	22.08
691.641	13.08
691.67	7.08
691.7	2.08
691.729	-5.92
691.758	16.08
691.788	9.08
691.817	-16.92
691.846	0.08
691.876	1.08
691.905	19.08
691.934	-1.92
691.963	18.08
691.993	7.08
692.022	-12.92
692.051	-11.92
692.081	11.08
692.11	18.08
692.139	16.08
692.168	24.08
692.198	23.08
692.227	26.08
692.256	17.08
692.285	21.08
692.315	8.08
692.344	13.08
692.373	5.08
692.402	-7.92
692.432	-3.92
692.461	3.08
692.49	-3.92
692.519	-2.92
692.548	19.08
692.578	25.08
692.607	4.08
692.636	9.08
692.665	22.08
692.694	9.08
692.724	17.08
692.753	13.08
692.782	12.08
692.811	3.08
692.84	5.08
692.87	3.08
692.899	17.08
692.928	-6.92
692.957	8.08
692.986	13.08
693.016	9.08
693.045	19.08
693.074	8.08
693.103	3.08
693.132	8.08
693.161	8.08
693.191	8.08
693.22	-5.92
693.249	9.08
693.278	13.08
693.307	20.08
693.336	1.08
693.365	0.08
693.395	0.08
693.424	4.08
693.453	8.08
693.482	8.08
693.511	11.08
693.54	20.08
693.569	16.08
693.598	8.08
693.628	19.08
693.657	29.08
693.686	28.08
693.715	19.08
693.744	26.08
693.773	20.08
693.802	13.08
693.831	19.08
693.86	18.08
693.889	-1.92
693.919	4.08
693.948	2.08
693.977	31.08
694.006	-8.92
694.035	-1.92
694.064	-8.92
694.093	8.08
694.122	4.08
694.151	16.08
694.18	29.08
694.209	31.08
694.238	10.08
694.267	20.08
694.296	12.08
694.325	-3.92
694.354	11.08
694.383	9.08
694.412	7.08
694.441	-11.92
694.471	0.08
694.5	-19.92
694.529	4.08
694.558	10.08
694.587	18.08
694.616	-2.92
694.645	1.08
694.674	14.08
694.703	5.08
694.732	-0.92
694.761	19.08
694.79	8.08
694.819	-4.92
694.848	13.08
694.877	22.08
694.906	26.08
694.935	1.08
694.963	11.08
694.992	6.08
695.021	12.08
695.05	18.08
695.079	8.08
695.108	0.08
695.137	33.08
695.166	11.08
695.195	-4.92
695.224	15.08
695.253	3.08
695.282	15.08
695.311	11.08
695.34	1.08
695.369	16.08
695.398	10.08
695.427	33.08
695.456	20.08
695.485	6.08
695.513	16.08
695.542	0.08
695.571	6.08
695.6	18.08
695.629	21.08
695.658	20.08
695.687	14.08
695.716	0.08
695.745	27.08
695.774	3.08
695.802	7.08
695.831	22.08
695.86	15.08
695.889	15.08
695.918	21.08
695.947	18.08
695.976	10.08
696.005	4.08
696.033	15.08
696.062	20.08
696.091	2.08
696.12	3.08
696.149	12.08
696.178	8.08
696.207	13.08
696.235	-5.92
696.264	-1.92
696.293	7.08
696.322	22.08
696.351	13.08
696.38	1.08
696.408	7.08
696.437	9.08
696.466	19.08
696.495	29.08
696.524	15.08
696.553	6.08
696.581	9.08
696.61	-7.92
696.639	-0.92
696.668	-0.92
696.697	-4.92
696.725	5.08
696.754	9.08
696.783	1.08
696.812	10.08
696.84	21.08
696.869	21.08
696.898	-2.92
696.927	1.08
696.956	8.08
696.984	8.08
697.013	18.08
697.042	8.08
697.071	-2.92
697.099	30.08
697.128	18.08
697.157	10.08
697.186	11.08
697.214	5.08
697.243	4.08
697.272	8.08
697.301	25.08
697.329	32.08
697.358	0.08
697.387	16.08
697.415	15.08
697.444	2.08
697.473	10.08
697.502	2.08
697.53	15.08
697.559	15.08
697.588	24.08
697.616	14.08
697.645	-7.92
697.674	13.08
697.703	4.08
697.731	7.08
697.76	-5.92
697.789	4.08
697.817	12.08
697.846	38.08
697.875	12.08
697.903	18.08
697.932	13.08
697.961	-0.92
697.989	7.08
698.018	3.08
698.047	17.08
698.075	24.08
698.104	4.08
698.133	-7.92
698.161	6.08
698.19	17.08
698.218	16.08
698.247	10.08
698.276	-11.92
698.304	-1.92
698.333	7.08
698.362	4.08
698.39	16.08
698.419	14.08
698.447	16.08
698.476	6.08
698.505	25.08
698.533	12.08
698.562	17.08
698.591	14.08
698.619	-3.92
698.648	11.08
698.676	21.08
698.705	1.08
698.733	7.08
698.762	4.08
698.791	12.08
698.819	23.08
698.848	-3.92
698.876	20.08
698.905	13.08
698.933	20.08
698.962	7.08
698.991	17.08
699.019	28.08
699.048	27.08
699.076	19.08
699.105	-1.92
699.133	0.08
699.162	2.08
699.19	12.08
699.219	11.08
699.248	7.08
699.276	14.08
699.305	3.08
699.333	9.08
699.362	5.08
699.39	11.08
699.419	7.08
699.447	21.08
699.476	31.08
699.504	12.08
699.533	-0.92
699.561	12.08
699.59	12.08
699.618	13.08
699.647	20.08
699.675	-0.92
699.704	7.08
699.732	11.08
699.761	20.08
699.789	15.08
699.818	19.08
699.846	22.08
699.874	0.08
699.903	-18.92
699.931	-5.92
699.96	21.08
699.988	7.08
700.017	4.08
700.045	11.08
700.074	8.08
700.102	2.08
700.13	7.08
700.159	2.08
700.187	21.08
700.216	14.08
700.244	1.08
700.273	2.08
700.301	16.08
700.329	18.08
700.358	16.08
700.386	-3.92
700.415	21.08
700.443	5.08
700.472	10.08
700.5	-3.92
700.528	7.08
700.557	11.08
700.585	10.08
700.614	21.08
700.642	12.08
700.67	15.08
700.699	23.08
700.727	21.08
700.755	1.08
700.784	2.08
700.812	-2.92
700.841	12.08
700.869	18.08
700.897	7.08
700.926	1.08
700.954	11.08
700.982	6.08
701.011	3.08
701.039	-1.92
701.067	15.08
701.096	12.08
701.124	0.08
701.152	15.08
701.181	1.08
701.209	-3.92
701.237	10.08
701.266	9.08
701.294	-0.92
701.322	7.08
701.351	7.08
701.379	13.08
701.407	10.08
701.435	13.08
701.464	28.08
701.492	25.08
701.52	12.08
701.549	5.08
701.577	7.08
701.605	1.08
701.634	5.08
701.662	18.08
701.69	10.08
701.718	-4.92
701.747	5.08
701.775	16.08
701.803	16.08
701.831	17.08
701.86	2.08
701.888	3.08
701.916	10.08
701.944	3.08
701.973	-0.92
702.001	-3.92
702.029	-3.92
702.057	9.08
702.086	10.08
702.114	-7.92
702.142	4.08
702.17	-3.92
702.199	7.08
702.227	-2.92
702.255	9.08
702.283	5.08
702.311	17.08
702.34	13.08
702.368	-13.92
702.396	-7.92
702.424	-10.92
702.452	-0.92
702.481	-5.92
702.509	8.08
702.537	6.08
702.565	26.08
702.593	-9.92
702.621	2.08
702.65	7.08
702.678	29.08
702.706	13.08
702.734	5.08
702.762	19.08
702.79	14.08
702.819	5.08
702.847	-0.92
702.875	14.08
702.903	24.08
702.931	16.08
702.959	-4.92
702.988	18.08
703.016	6.08
703.044	2.08
703.072	-5.92
703.1	15.08
703.128	7.08
703.156	3.08
703.184	-1.92
703.212	33.08
703.241	17.08
703.269	5.08
703.297	-5.92
703.325	-0.92
703.353	-19.92
703.381	-8.92
703.409	4.08
703.437	-5.92
703.465	22.08
703.493	-2.92
703.522	22.08
703.55	10.08
703.578	7.08
703.606	1.08
703.634	5.08
703.662	3.08
703.69	14.08
703.718	15.08
703.746	23.08
703.774	2.08
703.802	9.08
703.83	1.08
703.858	6.08
703.886	-3.92
703.914	0.08
703.942	11.08
703.97	4.08
703.998	8.08
704.027	22.08
704.055	9.08
704.083	-14.92
704.111	-2.92
704.139	-0.92
704.167	0.08
704.195	18.08
704.223	7.08
704.251	7.08
704.279	15.08
704.307	11.08
704.335	7.08
704.363	16.08
704.391	4.08
704.419	5.08
704.447	-7.92
704.475	4.08
704.503	2.08
704.531	-3.92
704.558	2.08
704.586	11.08
704.614	8.08
704.642	10.08
704.67	-4.92
704.698	-7.92
704.726	12.08
704.754	0.08
704.782	-1.92
704.81	9.08
704.838	18.08
704.866	22.08
704.894	-3.92
704.922	10.08
704.95	8.08
704.978	17.08
705.006	18.08
705.034	18.08
705.061	4.08
705.089	7.08
705.117	-4.92
705.145	-7.92
705.173	-0.92
705.201	7.08
705.229	7.08
705.257	3.08
705.285	23.08
705.313	8.08
705.34	-9.92
705.368	-3.92
705.396	5.08
705.424	12.08
705.452	-9.92
705.48	16.08
705.508	-0.92
705.536	4.08
705.563	1.08
705.591	7.08
705.619	8.08
705.647	-11.92
705.675	4.08
705.703	15.08
705.731	8.08
705.758	15.08
705.786	7.08
705.814	14.08
705.842	13.08
705.87	3.08
705.898	23.08
705.925	0.08
705.953	21.08
705.981	-8.92
706.009	-2.92
706.037	13.08
706.065	1.08
706.092	-3.92
706.12	9.08
706.148	7.08
706.176	9.08
706.204	20.08
706.231	16.08
706.259	-12.92
706.287	-1.92
706.315	8.08
706.342	4.08
706.37	13.08
706.398	18.08
706.426	9.08
706.454	15.08
706.481	26.08
706.509	-10.92
706.537	0.08
706.565	5.08
706.592	10.08
706.62	1.08
706.648	8.08
706.676	3.08
706.703	3.08
706.731	5.08
706.759	-16.92
706.787	0.08
706.814	10.08
706.842	4.08
706.87	11.08
706.897	5.08
706.925	11.08
706.953	14.08
706.981	11.08
707.008	12.08
707.036	3.08
707.064	2.08
707.091	-0.92
707.119	22.08
707.147	11.08
707.174	-6.92
707.202	12.08
707.23	2.08
707.258	31.08
707.285	7.08
707.313	-4.92
707.341	-10.92
707.368	7.08
707.396	23.08
707.424	43.08
707.451	19.08
707.479	7.08
707.507	0.08
707.534	7.08
707.562	0.08
707.59	-7.92
707.617	8.08
707.645	9.08
707.672	5.08
707.7	-2.92
707.728	14.08
707.755	6.08
707.783	10.08
707.811	21.08
707.838	8.08
707.866	12.08
707.893	-3.92
707.921	1.08
707.949	6.08
707.976	12.08
708.004	27.08
708.031	-1.92
708.059	-0.92
708.087	5.08
708.114	4.08
708.142	0.08
708.169	-5.92
708.197	-13.92
708.225	0.08
708.252	-16.92
708.28	13.08
708.307	11.08
708.335	10.08
708.362	-2.92
708.39	4.08
708.418	9.08
708.445	-4.92
708.473	-2.92
708.5	4.08
708.528	5.08
708.555	0.08
708.583	2.08
708.61	8.08
708.638	5.08
708.665	-16.92
708.693	9.08
708.72	-5.92
708.748	0.08
708.776	3.08
708.803	13.08
708.831	-5.92
708.858	6.08
708.886	2.08
708.913	6.08
708.941	3.08
708.968	23.08
708.996	9.08
709.023	26.08
709.051	-3.92
709.078	-2.92
709.105	-0.92
709.133	6.08
709.16	4.08
709.188	4.08
709.215	7.08
709.243	3.08
709.27	-14.92
709.298	-18.92
709.325	-1.92
709.353	-3.92
709.38	5.08
709.408	5.08
709.435	3.08
709.462	4.08
709.49	1.08
709.517	-5.92
709.545	11.08
709.572	-3.92
709.6	-0.92
709.627	3.08
709.655	2.08
709.682	-5.92
709.709	-0.92
709.737	10.08
709.764	9.08
709.792	5.08
709.819	0.08
709.846	3.08
709.874	17.08
709.901	17.08
709.929	28.08
709.956	10.08
709.983	-2.92
710.011	-7.92
710.038	-3.92
710.066	15.08
710.093	14.08
710.12	-0.92
710.148	-1.92
710.175	-13.92
710.202	8.08
710.23	7.08
710.257	-3.92
710.284	1.08
710.312	-6.92
710.339	-1.92
710.366	1.08
710.394	-3.92
710.421	4.08
710.448	5.08
710.476	-5.92
710.503	16.08
710.53	15.08
710.558	16.08
710.585	22.08
710.612	-0.92
710.64	2.08
710.667	-7.92
710.694	3.08
710.722	2.08
710.749	14.08
710.776	26.08
710.804	11.08
710.831	4.08
710.858	-1.92
710.885	1.08
710.913	2.08
710.94	25.08
710.967	-0.92
710.995	-3.92
711.022	-8.92
711.049	5.08
711.076	2.08
711.104	16.08
711.131	6.08
711.158	23.08
711.185	10.08
711.213	-5.92
711.24	-5.92
711.267	-2.92
711.294	3.08
711.322	25.08
711.349	10.08
711.376	-0.92
711.403	3.08
711.431	11.08
711.458	1.08
711.485	-2.92
711.512	10.08
711.54	0.08
711.567	3.08
711.594	11.08
711.621	10.08
711.648	12.08
711.676	8.08
711.703	14.08
711.73	-13.92
711.757	14.08
711.784	16.08
711.812	13.08
711.839	4.08
711.866	-12.92
711.893	-5.92
711.92	12.08
711.947	16.08
711.975	19.08
712.002	-20.92
712.029	12.08
712.056	0.08
712.083	17.08
712.11	-5.92
712.138	7.08
712.165	-3.92
712.192	4.08
712.219	-5.92
712.246	1.08
712.273	-3.92
712.3	5.08
712.328	26.08
712.355	3.08
712.382	4.08
712.409	12.08
712.436	-5.92
712.463	11.08
712.49	10.08
712.517	7.08
712.544	1.08
712.572	14.08
712.599	-1.92
712.626	3.08
712.653	3.08
712.68	-5.92
712.707	1.08
712.734	13.08
712.761	5.08
712.788	19.08
712.815	3.08
712.842	13.08
712.87	-7.92
712.897	-3.92
712.924	-6.92
712.951	11.08
712.978	19.08
713.005	19.08
713.032	18.08
713.059	13.08
713.086	16.08
713.113	-6.92
713.14	-12.92
713.167	5.08
713.194	12.08
713.221	1.08
713.248	22.08
713.275	7.08
713.302	-12.92
713.329	6.08
713.356	13.08
713.383	7.08
713.41	0.08
713.437	-8.92
713.464	-3.92
713.491	-0.92
713.518	-1.92
713.545	20.08
713.572	0.08
713.599	18.08
713.626	3.08
713.653	4.08
713.68	-2.92
713.707	-13.92
713.734	3.08
713.761	-5.92
713.788	-0.92
713.815	7.08
713.842	-7.92
713.869	4.08
713.896	7.08
713.923	4.08
713.95	12.08
713.977	-2.92
714.004	-5.92
714.031	3.08
714.058	-3.92
714.085	3.08
714.112	24.08
714.139	2.08
714.165	0.08
714.192	4.08
714.219	4.08
714.246	-5.92
714.273	-5.92
714.3	-0.92
714.327	11.08
714.354	10.08
714.381	-16.92
714.408	1.08
714.435	4.08
714.461	1.08
714.488	13.08
714.515	4.08
714.542	-0.92
714.569	1.08
714.596	-4.92
714.623	8.08
714.65	6.08
714.677	11.08
714.703	16.08
714.73	12.08
714.757	-4.92
714.784	12.08
714.811	0.08
714.838	6.08
714.865	-0.92
714.891	5.08
714.918	4.08
714.945	12.08
714.972	7.08
714.999	22.08
715.026	3.08
715.052	8.08
715.079	2.08
715.106	13.08
715.133	1.08
715.16	8.08
715.187	7.08
715.213	4.08
715.24	0.08
715.267	-2.92
715.294	-14.92
715.321	5.08
715.347	-0.92
715.374	-0.92
715.401	-3.92
715.428	5.08
715.455	7.08
715.481	-4.92
715.508	11.08
715.535	-0.92
715.562	19.08
715.588	14.08
715.615	12.08
715.642	8.08
715.669	18.08
715.695	-1.92
715.722	-7.92
715.749	16.08
715.776	20.08
715.802	14.08
715.829	12.08
715.856	-0.92
715.883	17.08
715.909	-0.92
715.936	1.08
715.963	7.08
715.99	-2.92
716.016	-0.92
716.043	6.08
716.07	-4.92
716.096	-11.92
716.123	-1.92
716.15	10.08
716.177	14.08
716.203	14.08
716.23	-0.92
716.257	1.08
716.283	16.08
716.31	10.08
716.337	13.08
716.363	-2.92
716.39	-0.92
716.417	15.08
716.443	-1.92
716.47	15.08
716.497	17.08
716.523	19.08
716.55	17.08
716.577	8.08
716.603	8.08
716.63	18.08
716.657	18.08
716.683	-0.92
716.71	-6.92
716.737	3.08
716.763	6.08
716.79	14.08
716.817	-1.92
716.843	-4.92
716.87	5.08
716.897	10.08
716.923	21.08
716.95	1.08
716.976	-2.92
717.003	2.08
717.03	-2.92
717.056	13.08
717.083	18.08
717.109	0.08
717.136	8.08
717.163	1.08
717.189	10.08
717.216	6.08
717.242	7.08
717.269	7.08
717.296	17.08
717.322	1.08
717.349	11.08
717.375	-2.92
717.402	-2.92
717.428	8.08
717.455	8.08
717.481	8.08
717.508	-4.92
717.535	23.08
717.561	-3.92
717.588	4.08
717.614	7.08
717.641	-6.92
717.667	-1.92
717.694	4.08
717.72	-3.92
717.747	7.08
717.773	7.08
717.8	10.08
717.826	11.08
717.853	4.08
717.88	19.08
717.906	14.08
717.933	12.08
717.959	14.08
717.986	14.08
718.012	8.08
718.039	9.08
718.065	6.08
718.092	6.08
718.118	-10.92
718.144	-6.92
718.171	23.08
718.197	36.08
718.224	5.08
718.25	5.08
718.277	0.08
718.303	5.08
718.33	17.08
718.356	3.08
718.383	-14.92
718.409	3.08
718.436	-1.92
718.462	-3.92
718.489	9.08
718.515	23.08
718.541	20.08
718.568	16.08
718.594	18.08
718.621	13.08
718.647	-0.92
718.674	4.08
718.7	10.08
718.726	-0.92
718.753	11.08
718.779	17.08
718.806	3.08
718.832	-7.92
718.858	11.08
718.885	-7.92
718.911	-3.92
718.938	6.08
718.964	-2.92
718.99	4.08
719.017	13.08
719.043	30.08
719.07	16.08
719.096	-2.92
719.122	10.08
719.149	5.08
719.175	4.08
719.201	4.08
719.228	7.08
719.254	9.08
719.281	9.08
719.307	-7.92
719.333	1.08
719.36	11.08
719.386	2.08
719.412	9.08
719.439	-7.92
719.465	-0.92
719.491	4.08
719.518	11.08
719.544	13.08
719.57	35.08
719.597	16.08
719.623	0.08
719.649	21.08
719.675	8.08
719.702	22.08
719.728	8.08
719.754	5.08
719.781	2.08
719.807	1.08
719.833	0.08
719.86	7.08
719.886	5.08
719.912	15.08
719.938	11.08
719.965	7.08
719.991	28.08
720.017	12.08
720.044	-0.92
720.07	20.08
720.096	20.08
720.122	9.08
720.149	2.08
720.175	22.08
720.201	8.08
720.227	3.08
720.254	7.08
720.28	5.08
720.306	-7.92
720.332	3.08
720.359	13.08
720.385	16.08
720.411	0.08
720.437	11.08
720.463	-6.92
720.49	19.08
720.516	9.08
720.542	-4.92
720.568	11.08
720.595	18.08
720.621	4.08
720.647	1.08
720.673	23.08
720.699	8.08
720.725	7.08
720.752	7.08
720.778	16.08
720.804	17.08
720.83	11.08
720.856	-6.92
720.883	-11.92
720.909	12.08
720.935	8.08
720.961	16.08
720.987	-4.92
721.013	10.08
721.04	-4.92
721.066	4.08
721.092	-8.92
721.118	17.08
721.144	17.08
721.17	21.08
721.196	10.08
721.223	8.08
721.249	-2.92
721.275	25.08
721.301	4.08
721.327	28.08
721.353	21.08
721.379	-3.92
721.405	13.08
721.432	11.08
721.458	3.08
721.484	12.08
721.51	4.08
721.536	3.08
721.562	14.08
721.588	7.08
721.614	-2.92
721.64	3.08
721.666	-6.92
721.693	7.08
721.719	7.08
721.745	5.08
721.771	-3.92
721.797	3.08
721.823	8.08
721.849	8.08
721.875	23.08
721.901	12.08
721.927	12.08
721.953	4.08
721.979	27.08
722.005	21.08
722.031	20.08
722.057	0.08
722.083	13.08
722.109	10.08
722.135	40.08
722.161	11.08
722.187	-1.92
722.214	-6.92
722.24	3.08
722.266	-7.92
722.292	15.08
722.318	5.08
722.344	7.08
722.37	12.08
722.396	14.08
722.422	1.08
722.448	7.08
722.474	4.08
722.5	10.08
722.526	11.08
722.552	1.08
722.578	9.08
722.603	19.08
722.629	-2.92
722.655	17.08
722.681	11.08
722.707	3.08
722.733	0.08
722.759	-18.92
722.785	-6.92
722.811	18.08
722.837	-8.92
722.863	9.08
722.889	26.08
722.915	-6.92
722.941	-5.92
722.967	17.08
722.993	9.08
723.019	6.08
723.045	17.08
723.071	15.08
723.097	5.08
723.122	2.08
723.148	5.08
723.174	-5.92
723.2	9.08
723.226	1.08
723.252	2.08
723.278	5.08
723.304	14.08
723.33	14.08
723.356	0.08
723.381	-11.92
723.407	-18.92
723.433	-3.92
723.459	5.08
723.485	7.08
723.511	15.08
723.537	-0.92
723.563	0.08
723.588	5.08
723.614	5.08
723.64	18.08
723.666	20.08
723.692	15.08
723.718	-0.92
723.744	-1.92
723.769	3.08
723.795	-6.92
723.821	27.08
723.847	8.08
723.873	16.08
723.899	21.08
723.924	7.08
723.95	5.08
723.976	2.08
724.002	-1.92
724.028	3.08
724.053	15.08
724.079	0.08
724.105	9.08
724.131	8.08
724.157	18.08
724.182	20.08
724.208	15.08
724.234	12.08
724.26	13.08
724.286	33.08
724.311	16.08
724.337	0.08
724.363	5.08
724.389	6.08
724.415	10.08
724.44	13.08
724.466	-2.92
724.492	8.08
724.518	17.08
724.543	5.08
724.569	-2.92
724.595	16.08
724.621	4.08
724.646	-5.92
724.672	0.08
724.698	-13.92
724.723	4.08
724.749	11.08
724.775	22.08
724.801	13.08
724.826	1.08
724.852	11.08
724.878	-2.92
724.904	-7.92
724.929	13.08
724.955	-12.92
724.981	2.08
725.006	-2.92
725.032	8.08
725.058	-0.92
725.083	-4.92
725.109	8.08
725.135	8.08
725.161	8.08
725.186	4.08
725.212	3.08
725.238	4.08
725.263	-3.92
725.289	-14.92
725.315	0.08
725.34	16.08
725.366	4.08
725.392	7.08
725.417	8.08
725.443	21.08
725.468	28.08
725.494	5.08
725.52	4.08
725.545	7.08
725.571	5.08
725.597	3.08
725.622	3.08
725.648	-8.92
725.674	13.08
725.699	9.08
725.725	9.08
725.75	35.08
725.776	5.08
725.802	15.08
725.827	15.08
725.853	9.08
725.878	21.08
725.904	1.08
725.93	6.08
725.955	-17.92
725.981	-11.92
726.006	0.08
726.032	4.08
726.057	3.08
726.083	1.08
726.109	-2.92
726.134	5.08
726.16	3.08
726.185	9.08
726.211	-6.92
726.236	19.08
726.262	16.08
726.288	20.08
726.313	26.08
726.339	17.08
726.364	15.08
726.39	20.08
726.415	-6.92
726.441	3.08
726.466	1.08
726.492	11.08
726.517	20.08
726.543	4.08
726.568	1.08
726.594	-5.92
726.619	15.08
726.645	8.08
726.67	7.08
726.696	13.08
726.721	9.08
726.747	-2.92
726.772	8.08
726.798	18.08
726.823	15.08
726.849	-0.92
726.874	-3.92
726.9	34.08
726.925	24.08
726.951	8.08
726.976	15.08
727.002	3.08
727.027	11.08
727.053	24.08
727.078	9.08
727.104	9.08
727.129	1.08
727.155	7.08
727.18	13.08
727.205	11.08
727.231	17.08
727.256	17.08
727.282	9.08
727.307	8.08
727.333	3.08
727.358	2.08
727.383	-2.92
727.409	-0.92
727.434	18.08
727.46	-1.92
727.485	-10.92
727.511	-3.92
727.536	-8.92
727.561	4.08
727.587	10.08
727.612	11.08
727.637	10.08
727.663	4.08
727.688	31.08
727.714	-3.92
727.739	4.08
727.764	4.08
727.79	-3.92
727.815	12.08
727.841	12.08
727.866	9.08
727.891	10.08
727.917	1.08
727.942	0.08
727.967	4.08
727.993	-2.92
728.018	14.08
728.043	5.08
728.069	12.08
728.094	4.08
728.119	-4.92
728.145	20.08
728.17	0.08
728.195	10.08
728.221	10.08
728.246	1.08
728.271	-12.92
728.297	-6.92
728.322	3.08
728.347	22.08
728.373	3.08
728.398	7.08
728.423	13.08
728.448	0.08
728.474	9.08
728.499	5.08
728.524	1.08
728.55	-2.92
728.575	11.08
728.6	10.08
728.625	1.08
728.651	7.08
728.676	7.08
728.701	-5.92
728.727	11.08
728.752	6.08
728.777	4.08
728.802	-0.92
728.828	13.08
728.853	4.08
728.878	-4.92
728.903	-5.92
728.929	-0.92
728.954	21.08
728.979	4.08
729.004	-0.92
729.03	4.08
729.055	23.08
729.08	-8.92
729.105	-13.92
729.13	11.08
729.156	12.08
729.181	-1.92
729.206	-6.92
729.231	-1.92
729.256	7.08
729.282	16.08
729.307	-11.92
729.332	1.08
729.357	-0.92
729.382	-0.92
729.408	7.08
729.433	9.08
729.458	7.08
729.483	19.08
729.508	10.08
729.533	15.08
729.559	4.08
729.584	-0.92
729.609	14.08
729.634	16.08
729.659	10.08
729.684	2.08
729.71	16.08
729.735	4.08
729.76	-1.92
729.785	-11.92
729.81	17.08
729.835	-1.92
729.86	-2.92
729.886	9.08
729.911	-1.92
729.936	1.08
729.961	11.08
729.986	-4.92
730.011	17.08
730.036	4.08
730.061	3.08
730.086	3.08
730.112	8.08
730.137	19.08
730.162	0.08
730.187	2.08
730.212	19.08
730.237	-0.92
730.262	-2.92
730.287	-4.92
730.312	16.08
730.337	-1.92
730.362	19.08
730.387	5.08
730.413	-3.92
730.438	2.08
730.463	1.08
730.488	5.08
730.513	0.08
730.538	0.08
730.563	25.08
730.588	19.08
730.613	20.08
730.638	5.08
730.663	1.08
730.688	12.08
730.713	-5.92
730.738	6.08
730.763	5.08
730.788	-14.92
730.813	17.08
730.838	13.08
730.863	5.08
730.888	-7.92
730.913	-10.92
730.938	-1.92
730.963	-0.92
730.988	6.08
731.013	18.08
731.038	6.08
731.063	1.08
731.088	15.08
731.113	2.08
731.138	0.08
731.163	7.08
731.188	1.08
731.213	3.08
731.238	7.08
731.263	9.08
731.288	5.08
731.313	15.08
731.338	7.08
731.363	11.08
731.388	11.08
731.413	13.08
731.438	9.08
731.463	14.08
731.487	29.08
731.512	5.08
731.537	6.08
731.562	5.08
731.587	11.08
731.612	-4.92
731.637	0.08
731.662	0.08
731.687	2.08
731.712	-10.92
731.737	8.08
731.762	14.08
731.786	5.08
731.811	7.08
731.836	4.08
731.861	7.08
731.886	12.08
731.911	15.08
731.936	27.08
731.961	1.08
731.986	-3.92
732.01	16.08
732.035	11.08
732.06	19.08
732.085	0.08
732.11	16.08
732.135	-4.92
732.16	-0.92
732.184	-2.92
732.209	12.08
732.234	21.08
732.259	-0.92
732.284	6.08
732.309	1.08
732.334	-0.92
732.358	-3.92
732.383	-8.92
732.408	15.08
732.433	0.08
732.458	-1.92
732.482	-5.92
732.507	1.08
732.532	6.08
732.557	18.08
732.582	4.08
732.607	8.08
732.631	-18.92
732.656	-0.92
732.681	-3.92
732.706	9.08
732.73	5.08
732.755	14.08
732.78	3.08
732.805	14.08
732.83	3.08
732.854	8.08
732.879	7.08
732.904	13.08
732.929	2.08
732.953	8.08
732.978	0.08
733.003	-13.92
733.028	11.08
733.052	15.08
733.077	18.08
733.102	15.08
733.127	-4.92
733.151	5.08
733.176	18.08
733.201	9.08
733.226	-0.92
733.25	-0.92
733.275	3.08
733.3	9.08
733.324	9.08
733.349	18.08
733.374	22.08
733.399	0.08
733.423	2.08
733.448	0.08
733.473	-7.92
733.497	1.08
733.522	0.08
733.547	12.08
733.571	16.08
733.596	2.08
733.621	-0.92
733.646	7.08
733.67	12.08
733.695	-2.92
733.72	16.08
733.744	16.08
733.769	10.08
733.794	19.08
733.818	-7.92
733.843	2.08
733.867	-14.92
733.892	-4.92
733.917	0.08
733.941	-4.92
733.966	-1.92
733.991	2.08
734.015	16.08
734.04	-3.92
734.065	21.08
734.089	20.08
734.114	1.08
734.138	12.08
734.163	4.08
734.188	12.08
734.212	31.08
734.237	8.08
734.261	11.08
734.286	7.08
734.311	-0.92
734.335	26.08
734.36	-3.92
734.384	4.08
734.409	6.08
734.434	6.08
734.458	6.08
734.483	4.08
734.507	1.08
734.532	17.08
734.556	12.08
734.581	23.08
734.606	-3.92
734.63	-11.92
734.655	11.08
734.679	16.08
734.704	15.08
734.728	6.08
734.753	3.08
734.777	-3.92
734.802	3.08
734.826	20.08
734.851	8.08
734.876	11.08
734.9	10.08
734.925	18.08
734.949	16.08
734.974	-0.92
734.998	12.08
735.023	-2.92
735.047	-10.92
735.072	18.08
735.096	12.08
735.121	17.08
735.145	6.08
735.17	18.08
735.194	31.08
735.219	19.08
735.243	13.08
735.268	21.08
735.292	10.08
735.317	6.08
735.341	6.08
735.365	-13.92
735.39	1.08
735.414	4.08
735.439	12.08
735.463	0.08
735.488	7.08
735.512	1.08
735.537	1.08
735.561	-3.92
735.586	10.08
735.61	7.08
735.634	25.08
735.659	8.08
735.683	24.08
735.708	4.08
735.732	-7.92
735.757	0.08
735.781	16.08
735.805	5.08
735.83	3.08
735.854	8.08
735.879	10.08
735.903	17.08
735.927	21.08
735.952	19.08
735.976	12.08
736.001	1.08
736.025	10.08
736.049	7.08
736.074	9.08
736.098	4.08
736.123	11.08
736.147	7.08
736.171	23.08
736.196	16.08
736.22	-3.92
736.244	14.08
736.269	10.08
736.293	3.08
736.317	8.08
736.342	10.08
736.366	23.08
736.39	17.08
736.415	2.08
736.439	26.08
736.463	1.08
736.488	10.08
736.512	9.08
736.536	12.08
736.561	10.08
736.585	5.08
736.609	17.08
736.634	-4.92
736.658	5.08
736.682	4.08
736.707	-6.92
736.731	-2.92
736.755	3.08
736.78	7.08
736.804	20.08
736.828	4.08
736.852	9.08
736.877	4.08
736.901	4.08
736.925	-6.92
736.949	8.08
736.974	3.08
736.998	-12.92
737.022	16.08
737.047	6.08
737.071	4.08
737.095	31.08
737.119	29.08
737.144	8.08
737.168	2.08
737.192	5.08
737.216	7.08
737.241	7.08
737.265	4.08
737.289	-14.92
737.313	-3.92
737.337	0.08
737.362	-0.92
737.386	-1.92
737.41	9.08
737.434	16.08
737.459	9.08
737.483	13.08
737.507	17.08
737.531	9.08
737.555	24.08
737.58	31.08
737.604	4.08
737.628	-3.92
737.652	8.08
737.676	2.08
737.701	2.08
737.725	7.08
737.749	25.08
737.773	8.08
737.797	9.08
737.821	11.08
737.846	0.08
737.87	26.08
737.894	4.08
737.918	1.08
737.942	2.08
737.966	12.08
737.99	15.08
738.015	19.08
738.039	9.08
738.063	3.08
738.087	20.08
738.111	10.08
738.135	28.08
738.159	12.08
738.184	12.08
738.208	8.08
738.232	7.08
738.256	32.08
738.28	8.08
738.304	20.08
738.328	-8.92
738.352	12.08
738.376	5.08
738.4	14.08
738.425	12.08
738.449	14.08
738.473	14.08
738.497	-11.92
738.521	15.08
738.545	1.08
738.569	24.08
738.593	32.08
738.617	11.08
738.641	1.08
738.665	8.08
738.689	16.08
738.713	9.08
738.737	4.08
738.762	24.08
738.786	9.08
738.81	0.08
738.834	23.08
738.858	10.08
738.882	-2.92
738.906	-5.92
738.93	13.08
738.954	0.08
738.978	14.08
739.002	6.08
739.026	28.08
739.05	21.08
739.074	1.08
739.098	19.08
739.122	19.08
739.146	14.08
739.17	12.08
739.194	23.08
739.218	3.08
739.242	8.08
739.266	10.08
739.29	8.08
739.314	16.08
739.338	13.08
739.362	12.08
739.386	14.08
739.41	1.08
739.434	-2.92
739.458	33.08
739.482	26.08
739.506	4.08
739.53	9.08
739.554	11.08
739.577	8.08
739.601	25.08
739.625	9.08
739.649	11.08
739.673	-2.92
739.697	7.08
739.721	9.08
739.745	19.08
739.769	22.08
739.793	18.08
739.817	27.08
739.841	-0.92
739.865	15.08
739.889	5.08
739.912	13.08
739.936	9.08
739.96	5.08
739.984	23.08
740.008	14.08
740.032	-4.92
740.056	5.08
740.08	6.08
740.104	1.08
740.127	12.08
740.151	10.08
740.175	32.08
740.199	14.08
740.223	43.08
740.247	6.08
740.271	-4.92
740.295	6.08
740.318	-0.92
740.342	5.08
740.366	6.08
740.39	0.08
740.414	16.08
740.438	-7.92
740.461	26.08
740.485	28.08
740.509	-1.92
740.533	12.08
740.557	-4.92
740.581	-0.92
740.604	1.08
740.628	16.08
740.652	18.08
740.676	1.08
740.7	10.08
740.723	0.08
740.747	8.08
740.771	22.08
740.795	-0.92
740.819	22.08
740.842	12.08
740.866	20.08
740.89	2.08
740.914	5.08
740.938	-5.92
740.961	11.08
740.985	8.08
741.009	3.08
741.033	17.08
741.056	25.08
741.08	11.08
741.104	1.08
741.128	7.08
741.151	18.08
741.175	16.08
741.199	29.08
741.223	17.08
741.246	1.08
741.27	9.08
741.294	11.08
741.318	-4.92
741.341	13.08
741.365	4.08
741.389	4.08
741.413	15.08
741.436	16.08
741.46	19.08
741.484	23.08
741.507	15.08
741.531	25.08
741.555	20.08
741.579	12.08
741.602	18.08
741.626	18.08
741.65	13.08
741.673	12.08
741.697	28.08
741.721	6.08
741.744	-2.92
741.768	2.08
741.792	18.08
741.815	6.08
741.839	13.08
741.863	23.08
741.886	24.08
741.91	28.08
741.934	13.08
741.957	-0.92
741.981	14.08
742.005	1.08
742.028	5.08
742.052	0.08
742.075	13.08
742.099	17.08
742.123	-7.92
742.146	0.08
742.17	18.08
742.194	4.08
742.217	-7.92
742.241	-7.92
742.264	4.08
742.288	29.08
742.312	24.08
742.335	-1.92
742.359	14.08
742.382	18.08
742.406	14.08
742.43	-8.92
742.453	2.08
742.477	7.08
742.5	13.08
742.524	-0.92
742.548	-11.92
742.571	0.08
742.595	1.08
742.618	-4.92
742.642	-2.92
742.665	11.08
742.689	13.08
742.712	20.08
742.736	-3.92
742.76	3.08
742.783	-8.92
742.807	16.08
742.83	19.08
742.854	2.08
742.877	-2.92
742.901	17.08
742.924	3.08
742.948	2.08
742.971	10.08
742.995	12.08
743.018	-3.92
743.042	4.08
743.065	2.08
743.089	0.08
743.112	18.08
743.136	-8.92
743.159	7.08
743.183	2.08
743.206	20.08
743.23	11.08
743.253	16.08
743.277	22.08
743.3	5.08
743.324	3.08
743.347	5.08
743.371	20.08
743.394	20.08
743.418	15.08
743.441	16.08
743.465	-1.92
743.488	15.08
743.512	0.08
743.535	14.08
743.558	3.08
743.582	12.08
743.605	5.08
743.629	19.08
743.652	24.08
743.676	11.08
743.699	24.08
743.723	4.08
743.746	5.08
743.769	0.08
743.793	5.08
743.816	12.08
743.84	17.08
743.863	2.08
743.886	17.08
743.91	11.08
743.933	12.08
743.957	6.08
743.98	-2.92
744.003	5.08
744.027	15.08
744.05	4.08
744.074	13.08
744.097	8.08
744.12	-0.92
744.144	0.08
744.167	10.08
744.19	2.08
744.214	1.08
744.237	-3.92
744.26	16.08
744.284	-6.92
744.307	-1.92
744.331	15.08
744.354	4.08
744.377	11.08
744.401	3.08
744.424	0.08
744.447	-1.92
744.471	7.08
