Data from HighRes_H2D2_15_04_11_07_2024_HR4C61891__32__15-05-37-643.txt Node

Date: Thu Nov 07 15:05:37 EST 2024
User: crc00042
Spectrometer: HR4C6189
Trigger mode: 4
Integration Time (sec): 1.000000E-1
Scans to average: 1
Electric dark correction enabled: true
Nonlinearity correction enabled: false
Boxcar width: 0
XAxis mode: Wavelengths
Number of Pixels in Spectrum: 3648
>>>>>Begin Spectral Data<<<<<
639.567	-72.31
639.602	-72.31
639.636	-72.31
639.67	-42.31
639.704	-18.31
639.738	-18.31
639.773	5.69
639.807	-9.31
639.841	-8.31
639.875	7.69
639.909	12.69
639.943	-8.31
639.978	2.69
640.012	-1.31
640.046	28.69
640.08	4.69
640.114	-0.31
640.148	-16.31
640.182	-9.31
640.217	3.69
640.251	24.69
640.285	15.69
640.319	-19.31
640.353	6.69
640.387	14.69
640.421	5.69
640.455	-4.31
640.49	-0.31
640.524	5.69
640.558	17.69
640.592	3.69
640.626	8.69
640.66	11.69
640.694	2.69
640.728	20.69
640.762	19.69
640.796	24.69
640.83	14.69
640.865	-4.31
640.899	4.69
640.933	7.69
640.967	25.69
641.001	9.69
641.035	-9.31
641.069	4.69
641.103	-18.31
641.137	-11.31
641.171	-3.31
641.205	3.69
641.239	3.69
641.273	16.69
641.307	19.69
641.341	11.69
641.375	10.69
641.409	-15.31
641.443	-2.31
641.477	-5.31
641.511	11.69
641.545	-0.31
641.579	1.69
641.614	-0.31
641.648	10.69
641.682	7.69
641.716	1.69
641.75	18.69
641.784	11.69
641.818	16.69
641.852	0.69
641.886	2.69
641.919	30.69
641.953	-2.31
641.987	-7.31
642.021	3.69
642.055	-4.31
642.089	-5.31
642.123	-17.31
642.157	-17.31
642.191	-11.31
642.225	-15.31
642.259	-11.31
642.293	11.69
642.327	8.69
642.361	13.69
642.395	13.69
642.429	15.69
642.463	15.69
642.497	13.69
642.531	0.69
642.565	-5.31
642.599	10.69
642.633	-13.31
642.666	5.69
642.7	21.69
642.734	27.69
642.768	-10.31
642.802	-4.31
642.836	12.69
642.87	8.69
642.904	5.69
642.938	13.69
642.972	10.69
643.005	18.69
643.039	12.69
643.073	-3.31
643.107	13.69
643.141	0.69
643.175	30.69
643.209	8.69
643.243	13.69
643.276	34.69
643.31	24.69
643.344	-4.31
643.378	-19.31
643.412	17.69
643.446	4.69
643.48	3.69
643.513	9.69
643.547	-5.31
643.581	-5.31
643.615	29.69
643.649	7.69
643.683	9.69
643.716	2.69
643.75	7.69
643.784	-20.31
643.818	0.69
643.852	6.69
643.886	-0.31
643.919	-1.31
643.953	7.69
643.987	-4.31
644.021	8.69
644.055	5.69
644.088	-3.31
644.122	-24.31
644.156	8.69
644.19	10.69
644.224	-4.31
644.257	16.69
644.291	10.69
644.325	13.69
644.359	-12.31
644.392	25.69
644.426	16.69
644.46	-0.31
644.494	1.69
644.527	-3.31
644.561	12.69
644.595	16.69
644.629	5.69
644.662	-5.31
644.696	14.69
644.73	-2.31
644.764	-7.31
644.797	5.69
644.831	-0.31
644.865	15.69
644.899	13.69
644.932	27.69
644.966	22.69
645	10.69
645.033	10.69
645.067	6.69
645.101	9.69
645.135	2.69
645.168	3.69
645.202	-0.31
645.236	2.69
645.269	9.69
645.303	8.69
645.337	-5.31
645.37	-2.31
645.404	7.69
645.438	11.69
645.471	-6.31
645.505	10.69
645.539	1.69
645.572	-17.31
645.606	-0.31
645.64	1.69
645.673	15.69
645.707	16.69
645.741	4.69
645.774	3.69
645.808	14.69
645.842	-6.31
645.875	-7.31
645.909	12.69
645.943	6.69
645.976	2.69
646.01	-0.31
646.043	9.69
646.077	6.69
646.111	3.69
646.144	8.69
646.178	11.69
646.212	-14.31
646.245	-6.31
646.279	1.69
646.312	5.69
646.346	30.69
646.38	1.69
646.413	23.69
646.447	0.69
646.48	5.69
646.514	19.69
646.547	-4.31
646.581	-0.31
646.615	6.69
646.648	-1.31
646.682	-0.31
646.715	8.69
646.749	17.69
646.782	-3.31
646.816	2.69
646.85	2.69
646.883	-8.31
646.917	0.69
646.95	21.69
646.984	17.69
647.017	0.69
647.051	12.69
647.084	19.69
647.118	-1.31
647.151	16.69
647.185	21.69
647.218	7.69
647.252	2.69
647.285	-16.31
647.319	-16.31
647.353	-2.31
647.386	12.69
647.42	7.69
647.453	4.69
647.487	1.69
647.52	19.69
647.553	6.69
647.587	10.69
647.62	4.69
647.654	12.69
647.687	15.69
647.721	8.69
647.754	6.69
647.788	12.69
647.821	-4.31
647.855	0.69
647.888	31.69
647.922	10.69
647.955	-4.31
647.989	2.69
648.022	8.69
648.055	17.69
648.089	-2.31
648.122	24.69
648.156	-3.31
648.189	5.69
648.223	17.69
648.256	17.69
648.29	-4.31
648.323	10.69
648.356	21.69
648.39	0.69
648.423	7.69
648.457	-2.31
648.49	22.69
648.523	12.69
648.557	-0.31
648.59	-7.31
648.624	-1.31
648.657	9.69
648.69	11.69
648.724	12.69
648.757	12.69
648.791	11.69
648.824	13.69
648.857	18.69
648.891	-10.31
648.924	16.69
648.957	26.69
648.991	-1.31
649.024	27.69
649.057	-4.31
649.091	-7.31
649.124	20.69
649.158	10.69
649.191	23.69
649.224	-4.31
649.258	-0.31
649.291	-13.31
649.324	4.69
649.358	11.69
649.391	12.69
649.424	-11.31
649.458	-7.31
649.491	8.69
649.524	4.69
649.557	-4.31
649.591	-2.31
649.624	25.69
649.657	0.69
649.691	6.69
649.724	11.69
649.757	10.69
649.791	1.69
649.824	8.69
649.857	2.69
649.89	0.69
649.924	-2.31
649.957	-1.31
649.99	3.69
650.023	8.69
650.057	1.69
650.09	4.69
650.123	8.69
650.157	27.69
650.19	20.69
650.223	-14.31
650.256	-4.31
650.29	5.69
650.323	9.69
650.356	11.69
650.389	2.69
650.423	-1.31
650.456	-0.31
650.489	7.69
650.522	5.69
650.555	28.69
650.589	15.69
650.622	-8.31
650.655	25.69
650.688	13.69
650.721	13.69
650.755	15.69
650.788	23.69
650.821	5.69
650.854	10.69
650.887	-0.31
650.921	-6.31
650.954	-11.31
650.987	28.69
651.02	5.69
651.053	3.69
651.087	-16.31
651.12	20.69
651.153	10.69
651.186	11.69
651.219	0.69
651.252	12.69
651.286	2.69
651.319	-5.31
651.352	-3.31
651.385	8.69
651.418	0.69
651.451	-1.31
651.484	12.69
651.518	-1.31
651.551	20.69
651.584	-3.31
651.617	10.69
651.65	5.69
651.683	8.69
651.716	-12.31
651.749	-7.31
651.783	1.69
651.816	14.69
651.849	13.69
651.882	10.69
651.915	-5.31
651.948	16.69
651.981	-0.31
652.014	-11.31
652.047	-15.31
652.08	-14.31
652.114	2.69
652.147	1.69
652.18	5.69
652.213	17.69
652.246	11.69
652.279	-4.31
652.312	15.69
652.345	-9.31
652.378	-0.31
652.411	14.69
652.444	22.69
652.477	1.69
652.51	4.69
652.543	-8.31
652.576	25.69
652.609	8.69
652.642	9.69
652.675	20.69
652.709	5.69
652.742	12.69
652.775	0.69
652.808	13.69
652.841	0.69
652.874	8.69
652.907	12.69
652.94	14.69
652.973	-3.31
653.006	-3.31
653.039	18.69
653.072	7.69
653.105	8.69
653.138	-21.31
653.171	-16.31
653.204	-2.31
653.237	4.69
653.27	1.69
653.303	15.69
653.336	15.69
653.368	-0.31
653.401	26.69
653.434	17.69
653.467	17.69
653.5	-3.31
653.533	6.69
653.566	-3.31
653.599	1.69
653.632	11.69
653.665	1.69
653.698	0.69
653.731	-10.31
653.764	21.69
653.797	8.69
653.83	5.69
653.863	13.69
653.896	18.69
653.929	7.69
653.961	9.69
653.994	-4.31
654.027	-10.31
654.06	14.69
654.093	18.69
654.126	11.69
654.159	7.69
654.192	2.69
654.225	4.69
654.258	14.69
654.29	19.69
654.323	5.69
654.356	8.69
654.389	10.69
654.422	0.69
654.455	-11.31
654.488	-0.31
654.521	-19.31
654.553	8.69
654.586	23.69
654.619	1.69
654.652	7.69
654.685	13.69
654.718	4.69
654.751	19.69
654.783	4.69
654.816	19.69
654.849	-1.31
654.882	-0.31
654.915	6.69
654.948	11.69
654.98	2.69
655.013	5.69
655.046	19.69
655.079	1.69
655.112	11.69
655.144	3.69
655.177	3.69
655.21	10.69
655.243	12.69
655.276	10.69
655.308	9.69
655.341	-11.31
655.374	-2.31
655.407	-8.31
655.44	2.69
655.472	3.69
655.505	17.69
655.538	6.69
655.571	8.69
655.603	7.69
655.636	9.69
655.669	12.69
655.702	10.69
655.734	-12.31
655.767	1.69
655.8	5.69
655.833	12.69
655.865	24.69
655.898	18.69
655.931	-0.31
655.964	19.69
655.996	10.69
656.029	23.69
656.062	41.69
656.095	57.69
656.127	88.69
656.16	233.69
656.193	624.69
656.225	976.69
656.258	557.69
656.291	227.69
656.324	196.69
656.356	374.69
656.389	772.69
656.422	656.69
656.454	244.69
656.487	96.69
656.52	54.69
656.552	35.69
656.585	32.69
656.618	20.69
656.65	28.69
656.683	18.69
656.716	12.69
656.748	10.69
656.781	2.69
656.814	3.69
656.846	13.69
656.879	0.69
656.912	-3.31
656.944	-7.31
656.977	-9.31
657.01	-0.31
657.042	9.69
657.075	31.69
657.108	-10.31
657.14	9.69
657.173	5.69
657.205	21.69
657.238	-5.31
657.271	7.69
657.303	8.69
657.336	15.69
657.369	8.69
657.401	-0.31
657.434	8.69
657.466	4.69
657.499	-6.31
657.532	-4.31
657.564	10.69
657.597	-0.31
657.629	19.69
657.662	2.69
657.694	-6.31
657.727	-1.31
657.76	13.69
657.792	-0.31
657.825	10.69
657.857	-5.31
657.89	-11.31
657.922	5.69
657.955	4.69
657.987	9.69
658.02	9.69
658.053	18.69
658.085	14.69
658.118	9.69
658.15	14.69
658.183	25.69
658.215	3.69
658.248	9.69
658.28	-6.31
658.313	10.69
658.345	5.69
658.378	-0.31
658.41	-11.31
658.443	13.69
658.475	4.69
658.508	0.69
658.54	3.69
658.573	-8.31
658.605	12.69
658.638	2.69
658.67	7.69
658.703	0.69
658.735	1.69
658.768	19.69
658.8	0.69
658.833	24.69
658.865	3.69
658.898	5.69
658.93	-7.31
658.963	14.69
658.995	8.69
659.028	10.69
659.06	7.69
659.092	7.69
659.125	-1.31
659.157	12.69
659.19	-2.31
659.222	-7.31
659.255	-1.31
659.287	10.69
659.32	22.69
659.352	8.69
659.384	14.69
659.417	7.69
659.449	2.69
659.482	6.69
659.514	-15.31
659.546	-8.31
659.579	12.69
659.611	19.69
659.644	-8.31
659.676	-3.31
659.708	-12.31
659.741	-5.31
659.773	15.69
659.806	-2.31
659.838	-9.31
659.87	7.69
659.903	6.69
659.935	7.69
659.967	-0.31
660	-4.31
660.032	-18.31
660.065	9.69
660.097	13.69
660.129	10.69
660.162	-7.31
660.194	-0.31
660.226	4.69
660.259	10.69
660.291	0.69
660.323	3.69
660.356	13.69
660.388	-0.31
660.42	-7.31
660.453	11.69
660.485	16.69
660.517	22.69
660.55	14.69
660.582	16.69
660.614	-1.31
660.647	19.69
660.679	-1.31
660.711	6.69
660.743	-5.31
660.776	-1.31
660.808	4.69
660.84	-6.31
660.873	8.69
660.905	6.69
660.937	0.69
660.969	11.69
661.002	-3.31
661.034	0.69
661.066	0.69
661.099	0.69
661.131	10.69
661.163	9.69
661.195	5.69
661.228	19.69
661.26	4.69
661.292	3.69
661.324	12.69
661.357	4.69
661.389	4.69
661.421	19.69
661.453	13.69
661.485	11.69
661.518	5.69
661.55	-23.31
661.582	-8.31
661.614	3.69
661.647	7.69
661.679	11.69
661.711	12.69
661.743	-5.31
661.775	20.69
661.808	32.69
661.84	7.69
661.872	5.69
661.904	-5.31
661.936	11.69
661.969	-10.31
662.001	-0.31
662.033	0.69
662.065	-1.31
662.097	11.69
662.129	14.69
662.162	-16.31
662.194	-1.31
662.226	11.69
662.258	6.69
662.29	5.69
662.322	-4.31
662.355	-3.31
662.387	12.69
662.419	2.69
662.451	3.69
662.483	8.69
662.515	-4.31
662.547	-8.31
662.58	5.69
662.612	-1.31
662.644	-3.31
662.676	14.69
662.708	19.69
662.74	1.69
662.772	-3.31
662.804	1.69
662.836	13.69
662.869	11.69
662.901	25.69
662.933	-1.31
662.965	25.69
662.997	21.69
663.029	-6.31
663.061	1.69
663.093	-2.31
663.125	16.69
663.157	33.69
663.189	8.69
663.221	11.69
663.254	3.69
663.286	1.69
663.318	5.69
663.35	0.69
663.382	7.69
663.414	11.69
663.446	5.69
663.478	10.69
663.51	25.69
663.542	0.69
663.574	-4.31
663.606	-0.31
663.638	-5.31
663.67	4.69
663.702	4.69
663.734	6.69
663.766	8.69
663.798	-1.31
663.83	-0.31
663.862	8.69
663.894	15.69
663.926	2.69
663.958	3.69
663.99	22.69
664.022	-4.31
664.054	4.69
664.086	-5.31
664.118	-2.31
664.15	-6.31
664.182	6.69
664.214	16.69
664.246	19.69
664.278	18.69
664.31	20.69
664.342	-0.31
664.374	14.69
664.406	7.69
664.438	-5.31
664.47	20.69
664.502	-10.31
664.534	1.69
664.566	-7.31
664.598	21.69
664.63	-3.31
664.662	2.69
664.693	1.69
664.725	7.69
664.757	1.69
664.789	-0.31
664.821	17.69
664.853	18.69
664.885	9.69
664.917	-8.31
664.949	14.69
664.981	17.69
665.013	-2.31
665.045	-1.31
665.076	6.69
665.108	10.69
665.14	15.69
665.172	6.69
665.204	-0.31
665.236	2.69
665.268	7.69
665.3	12.69
665.331	-3.31
665.363	10.69
665.395	10.69
665.427	16.69
665.459	16.69
665.491	10.69
665.523	14.69
665.555	-12.31
665.586	17.69
665.618	4.69
665.65	-15.31
665.682	2.69
665.714	20.69
665.746	7.69
665.777	11.69
665.809	11.69
665.841	10.69
665.873	7.69
665.905	5.69
665.937	18.69
665.968	11.69
666	1.69
666.032	5.69
666.064	0.69
666.096	-1.31
666.127	-4.31
666.159	9.69
666.191	22.69
666.223	1.69
666.255	20.69
666.286	4.69
666.318	-4.31
666.35	17.69
666.382	1.69
666.413	5.69
666.445	-8.31
666.477	4.69
666.509	-7.31
666.54	9.69
666.572	12.69
666.604	14.69
666.636	-8.31
666.667	7.69
666.699	15.69
666.731	11.69
666.763	-10.31
666.794	-3.31
666.826	-1.31
666.858	-4.31
666.89	-7.31
666.921	5.69
666.953	12.69
666.985	21.69
667.017	19.69
667.048	23.69
667.08	-0.31
667.112	-17.31
667.143	-14.31
667.175	5.69
667.207	9.69
667.238	4.69
667.27	1.69
667.302	0.69
667.334	-3.31
667.365	14.69
667.397	11.69
667.429	-0.31
667.46	4.69
667.492	9.69
667.524	6.69
667.555	-10.31
667.587	5.69
667.619	1.69
667.65	13.69
667.682	-0.31
667.714	3.69
667.745	2.69
667.777	3.69
667.808	23.69
667.84	14.69
667.872	8.69
667.903	19.69
667.935	-3.31
667.967	18.69
667.998	17.69
668.03	5.69
668.061	-8.31
668.093	-1.31
668.125	5.69
668.156	4.69
668.188	1.69
668.22	-11.31
668.251	10.69
668.283	4.69
668.314	9.69
668.346	-2.31
668.377	3.69
668.409	10.69
668.441	29.69
668.472	16.69
668.504	23.69
668.535	6.69
668.567	11.69
668.599	7.69
668.63	2.69
668.662	-7.31
668.693	30.69
668.725	20.69
668.756	11.69
668.788	-9.31
668.819	2.69
668.851	9.69
668.882	14.69
668.914	11.69
668.946	-10.31
668.977	-4.31
669.009	-6.31
669.04	-15.31
669.072	10.69
669.103	21.69
669.135	8.69
669.166	5.69
669.198	-1.31
669.229	9.69
669.261	-5.31
669.292	2.69
669.324	16.69
669.355	9.69
669.387	-9.31
669.418	-0.31
669.45	-1.31
669.481	-0.31
669.513	11.69
669.544	23.69
669.576	12.69
669.607	21.69
669.639	26.69
669.67	1.69
669.701	7.69
669.733	-6.31
669.764	-4.31
669.796	7.69
669.827	0.69
669.859	-12.31
669.89	8.69
669.922	13.69
669.953	20.69
669.985	11.69
670.016	6.69
670.047	12.69
670.079	4.69
670.11	4.69
670.142	-0.31
670.173	8.69
670.204	-6.31
670.236	3.69
670.267	-12.31
670.299	-2.31
670.33	6.69
670.362	19.69
670.393	-7.31
670.424	3.69
670.456	0.69
670.487	4.69
670.518	9.69
670.55	25.69
670.581	13.69
670.613	9.69
670.644	-14.31
670.675	-12.31
670.707	2.69
670.738	7.69
670.769	-2.31
670.801	-4.31
670.832	10.69
670.864	-4.31
670.895	11.69
670.926	-3.31
670.958	-0.31
670.989	9.69
671.02	0.69
671.052	-3.31
671.083	9.69
671.114	-3.31
671.146	8.69
671.177	26.69
671.208	-17.31
671.24	-7.31
671.271	-7.31
671.302	13.69
671.333	2.69
671.365	-10.31
671.396	3.69
671.427	12.69
671.459	8.69
671.49	15.69
671.521	15.69
671.553	10.69
671.584	9.69
671.615	8.69
671.646	8.69
671.678	12.69
671.709	-21.31
671.74	-17.31
671.771	-13.31
671.803	-7.31
671.834	8.69
671.865	-4.31
671.896	9.69
671.928	-1.31
671.959	-3.31
671.99	-8.31
672.021	6.69
672.053	2.69
672.084	15.69
672.115	15.69
672.146	15.69
672.178	-5.31
672.209	2.69
672.24	12.69
672.271	16.69
672.303	2.69
672.334	6.69
672.365	-3.31
672.396	10.69
672.427	8.69
672.459	16.69
672.49	32.69
672.521	7.69
672.552	23.69
672.583	13.69
672.615	10.69
672.646	14.69
672.677	10.69
672.708	15.69
672.739	-5.31
672.77	-0.31
672.802	9.69
672.833	1.69
672.864	-2.31
672.895	-18.31
672.926	1.69
672.957	-12.31
672.989	-5.31
673.02	3.69
673.051	2.69
673.082	4.69
673.113	1.69
673.144	11.69
673.175	-0.31
673.206	7.69
673.238	10.69
673.269	3.69
673.3	-1.31
673.331	6.69
673.362	4.69
673.393	-8.31
673.424	14.69
673.455	18.69
673.487	17.69
673.518	11.69
673.549	-7.31
673.58	-7.31
673.611	1.69
673.642	-5.31
673.673	-10.31
673.704	0.69
673.735	9.69
673.766	10.69
673.797	-0.31
673.828	-7.31
673.86	-12.31
673.891	-4.31
673.922	-5.31
673.953	7.69
673.984	4.69
674.015	21.69
674.046	-0.31
674.077	2.69
674.108	4.69
674.139	14.69
674.17	-2.31
674.201	-1.31
674.232	4.69
674.263	-1.31
674.294	-1.31
674.325	-13.31
674.356	13.69
674.387	24.69
674.418	4.69
674.449	-11.31
674.48	-5.31
674.511	9.69
674.542	18.69
674.573	5.69
674.604	7.69
674.635	3.69
674.666	0.69
674.697	9.69
674.728	11.69
674.759	7.69
674.79	-3.31
674.821	-2.31
674.852	19.69
674.883	-1.31
674.914	3.69
674.945	4.69
674.976	-1.31
675.007	6.69
675.038	5.69
675.069	-5.31
675.1	6.69
675.131	3.69
675.162	-6.31
675.193	-6.31
675.224	1.69
675.254	-14.31
675.285	4.69
675.316	10.69
675.347	-0.31
675.378	-1.31
675.409	-2.31
675.44	-3.31
675.471	-5.31
675.502	9.69
675.533	-3.31
675.564	-8.31
675.595	10.69
675.625	11.69
675.656	11.69
675.687	-3.31
675.718	-2.31
675.749	-3.31
675.78	-3.31
675.811	-0.31
675.842	14.69
675.873	3.69
675.903	-11.31
675.934	17.69
675.965	6.69
675.996	-11.31
676.027	-2.31
676.058	8.69
676.089	-16.31
676.119	10.69
676.15	-3.31
676.181	3.69
676.212	-1.31
676.243	9.69
676.274	-6.31
676.304	11.69
676.335	-0.31
676.366	11.69
676.397	11.69
676.428	20.69
676.459	-7.31
676.489	11.69
676.52	8.69
676.551	18.69
676.582	2.69
676.613	4.69
676.643	1.69
676.674	17.69
676.705	-0.31
676.736	-0.31
676.767	1.69
676.797	17.69
676.828	23.69
676.859	2.69
676.89	-2.31
676.92	9.69
676.951	3.69
676.982	6.69
677.013	1.69
677.044	9.69
677.074	7.69
677.105	-3.31
677.136	22.69
677.167	1.69
677.197	22.69
677.228	9.69
677.259	3.69
677.289	0.69
677.32	-11.31
677.351	-4.31
677.382	9.69
677.412	-2.31
677.443	19.69
677.474	16.69
677.505	-7.31
677.535	5.69
677.566	8.69
677.597	-4.31
677.627	1.69
677.658	5.69
677.689	8.69
677.72	-1.31
677.75	-0.31
677.781	3.69
677.812	2.69
677.842	2.69
677.873	-0.31
677.904	0.69
677.934	1.69
677.965	0.69
677.996	8.69
678.026	1.69
678.057	-1.31
678.088	-8.31
678.118	-3.31
678.149	-18.31
678.18	5.69
678.21	9.69
678.241	4.69
678.272	7.69
678.302	8.69
678.333	15.69
678.363	14.69
678.394	7.69
678.425	-4.31
678.455	-1.31
678.486	3.69
678.517	-6.31
678.547	1.69
678.578	13.69
678.608	-4.31
678.639	9.69
678.67	-4.31
678.7	-7.31
678.731	-4.31
678.761	15.69
678.792	8.69
678.823	16.69
678.853	11.69
678.884	1.69
678.914	20.69
678.945	13.69
678.975	-6.31
679.006	11.69
679.037	-9.31
679.067	5.69
679.098	13.69
679.128	4.69
679.159	-2.31
679.189	10.69
679.22	-12.31
679.25	10.69
679.281	4.69
679.312	3.69
679.342	1.69
679.373	30.69
679.403	11.69
679.434	26.69
679.464	7.69
679.495	13.69
679.525	14.69
679.556	-7.31
679.586	7.69
679.617	3.69
679.647	5.69
679.678	15.69
679.708	-6.31
679.739	-2.31
679.769	-4.31
679.8	-1.31
679.83	12.69
679.861	11.69
679.891	-2.31
679.922	-30.31
679.952	-14.31
679.983	20.69
680.013	9.69
680.044	-7.31
680.074	7.69
680.105	12.69
680.135	13.69
680.165	0.69
680.196	7.69
680.226	-3.31
680.257	17.69
680.287	9.69
680.318	22.69
680.348	-1.31
680.379	12.69
680.409	6.69
680.439	1.69
680.47	-1.31
680.5	-8.31
680.531	-7.31
680.561	6.69
680.592	17.69
680.622	20.69
680.652	4.69
680.683	13.69
680.713	9.69
680.744	2.69
680.774	-5.31
680.804	17.69
680.835	2.69
680.865	14.69
680.896	29.69
680.926	15.69
680.956	1.69
680.987	8.69
681.017	2.69
681.047	7.69
681.078	2.69
681.108	-2.31
681.139	14.69
681.169	-6.31
681.199	8.69
681.23	7.69
681.26	10.69
681.29	3.69
681.321	-5.31
681.351	7.69
681.381	-16.31
681.412	3.69
681.442	-3.31
681.472	15.69
681.503	8.69
681.533	9.69
681.563	-3.31
681.594	1.69
681.624	11.69
681.654	5.69
681.685	1.69
681.715	22.69
681.745	8.69
681.775	0.69
681.806	8.69
681.836	11.69
681.866	7.69
681.897	-14.31
681.927	-16.31
681.957	-14.31
681.987	1.69
682.018	-1.31
682.048	9.69
682.078	15.69
682.109	5.69
682.139	17.69
682.169	8.69
682.199	12.69
682.23	-11.31
682.26	6.69
682.29	0.69
682.32	3.69
682.351	16.69
682.381	10.69
682.411	6.69
682.441	-0.31
682.472	-1.31
682.502	1.69
682.532	-3.31
682.562	-2.31
682.592	9.69
682.623	6.69
682.653	-1.31
682.683	-7.31
682.713	0.69
682.743	0.69
682.774	-0.31
682.804	3.69
682.834	23.69
682.864	0.69
682.894	-1.31
682.925	-12.31
682.955	-4.31
682.985	7.69
683.015	21.69
683.045	27.69
683.076	8.69
683.106	4.69
683.136	-14.31
683.166	-1.31
683.196	-5.31
683.226	-18.31
683.257	-1.31
683.287	0.69
683.317	-6.31
683.347	-15.31
683.377	-7.31
683.407	0.69
683.437	-1.31
683.468	4.69
683.498	-4.31
683.528	-12.31
683.558	2.69
683.588	-13.31
683.618	-5.31
683.648	-13.31
683.678	9.69
683.708	21.69
683.739	9.69
683.769	1.69
683.799	10.69
683.829	9.69
683.859	8.69
683.889	27.69
683.919	23.69
683.949	12.69
683.979	-10.31
684.009	8.69
684.039	15.69
684.07	13.69
684.1	8.69
684.13	13.69
684.16	7.69
684.19	-6.31
684.22	0.69
684.25	9.69
684.28	-4.31
684.31	21.69
684.34	20.69
684.37	15.69
684.4	-5.31
684.43	0.69
684.46	16.69
684.49	19.69
684.52	17.69
684.55	43.69
684.58	4.69
684.61	14.69
684.64	4.69
684.67	9.69
684.7	8.69
684.73	20.69
684.76	1.69
684.79	27.69
684.82	-3.31
684.85	5.69
684.88	5.69
684.91	5.69
684.94	2.69
684.97	10.69
685	-5.31
685.03	-13.31
685.06	9.69
685.09	-7.31
685.12	13.69
685.15	0.69
685.18	13.69
685.21	14.69
685.24	7.69
685.27	7.69
685.3	12.69
685.33	12.69
685.36	2.69
685.39	4.69
685.42	-15.31
685.45	10.69
685.48	10.69
685.51	-9.31
685.54	7.69
685.569	5.69
685.599	17.69
685.629	13.69
685.659	-0.31
685.689	3.69
685.719	-1.31
685.749	0.69
685.779	6.69
685.809	20.69
685.839	7.69
685.869	12.69
685.898	19.69
685.928	6.69
685.958	8.69
685.988	14.69
686.018	9.69
686.048	1.69
686.078	15.69
686.108	33.69
686.137	1.69
686.167	28.69
686.197	-4.31
686.227	1.69
686.257	26.69
686.287	15.69
686.317	11.69
686.346	-0.31
686.376	-2.31
686.406	1.69
686.436	22.69
686.466	-8.31
686.496	10.69
686.525	4.69
686.555	-7.31
686.585	8.69
686.615	17.69
686.645	7.69
686.675	8.69
686.704	24.69
686.734	17.69
686.764	-1.31
686.794	15.69
686.824	8.69
686.853	11.69
686.883	10.69
686.913	9.69
686.943	13.69
686.973	8.69
687.002	-1.31
687.032	15.69
687.062	-3.31
687.092	9.69
687.121	0.69
687.151	12.69
687.181	-6.31
687.211	19.69
687.24	12.69
687.27	-2.31
687.3	3.69
687.33	16.69
687.359	2.69
687.389	6.69
687.419	8.69
687.449	11.69
687.478	9.69
687.508	-4.31
687.538	8.69
687.568	12.69
687.597	2.69
687.627	6.69
687.657	18.69
687.686	11.69
687.716	27.69
687.746	-16.31
687.776	-6.31
687.805	8.69
687.835	14.69
687.865	22.69
687.894	21.69
687.924	4.69
687.954	-7.31
687.983	-8.31
688.013	-4.31
688.043	13.69
688.072	15.69
688.102	8.69
688.132	-0.31
688.161	-0.31
688.191	2.69
688.221	35.69
688.25	9.69
688.28	12.69
688.31	13.69
688.339	5.69
688.369	-0.31
688.399	-1.31
688.428	0.69
688.458	7.69
688.488	-3.31
688.517	23.69
688.547	3.69
688.576	27.69
688.606	5.69
688.636	-15.31
688.665	17.69
688.695	10.69
688.725	1.69
688.754	11.69
688.784	17.69
688.813	15.69
688.843	12.69
688.873	2.69
688.902	-16.31
688.932	3.69
688.961	10.69
688.991	24.69
689.02	19.69
689.05	13.69
689.08	17.69
689.109	12.69
689.139	5.69
689.168	7.69
689.198	-3.31
689.227	-1.31
689.257	-12.31
689.287	18.69
689.316	9.69
689.346	6.69
689.375	-6.31
689.405	16.69
689.434	-2.31
689.464	9.69
689.493	4.69
689.523	5.69
689.552	3.69
689.582	9.69
689.611	16.69
689.641	22.69
689.67	-2.31
689.7	3.69
689.73	4.69
689.759	13.69
689.789	12.69
689.818	4.69
689.848	-7.31
689.877	27.69
689.906	3.69
689.936	4.69
689.965	7.69
689.995	3.69
690.024	9.69
690.054	-1.31
690.083	3.69
690.113	8.69
690.142	-4.31
690.172	11.69
690.201	3.69
690.231	-0.31
690.26	15.69
690.29	10.69
690.319	9.69
690.348	16.69
690.378	16.69
690.407	19.69
690.437	6.69
690.466	9.69
690.496	-4.31
690.525	6.69
690.555	6.69
690.584	10.69
690.613	4.69
690.643	10.69
690.672	28.69
690.702	2.69
690.731	6.69
690.76	10.69
690.79	4.69
690.819	5.69
690.849	17.69
690.878	7.69
690.907	13.69
690.937	16.69
690.966	13.69
690.996	3.69
691.025	18.69
691.054	5.69
691.084	0.69
691.113	-6.31
691.142	6.69
691.172	16.69
691.201	17.69
691.23	8.69
691.26	11.69
691.289	18.69
691.319	-3.31
691.348	5.69
691.377	24.69
691.407	17.69
691.436	22.69
691.465	9.69
691.495	8.69
691.524	7.69
691.553	4.69
691.583	5.69
691.612	16.69
691.641	15.69
691.67	9.69
691.7	17.69
691.729	0.69
691.758	7.69
691.788	-8.31
691.817	3.69
691.846	0.69
691.876	13.69
691.905	17.69
691.934	21.69
691.963	24.69
691.993	19.69
692.022	-0.31
692.051	-5.31
692.081	19.69
692.11	21.69
692.139	2.69
692.168	24.69
692.198	32.69
692.227	31.69
692.256	11.69
692.285	1.69
692.315	-3.31
692.344	-0.31
692.373	17.69
692.402	-0.31
692.432	12.69
692.461	5.69
692.49	7.69
692.519	12.69
692.548	23.69
692.578	7.69
692.607	8.69
692.636	-0.31
692.665	14.69
692.694	3.69
692.724	-12.31
692.753	5.69
692.782	4.69
692.811	0.69
692.84	7.69
692.87	3.69
692.899	11.69
692.928	3.69
692.957	13.69
692.986	3.69
693.016	4.69
693.045	3.69
693.074	9.69
693.103	-5.31
693.132	3.69
693.161	14.69
693.191	7.69
693.22	-9.31
693.249	12.69
693.278	7.69
693.307	-0.31
693.336	3.69
693.365	-6.31
693.395	7.69
693.424	-2.31
693.453	18.69
693.482	8.69
693.511	9.69
693.54	5.69
693.569	8.69
693.598	4.69
693.628	21.69
693.657	11.69
693.686	21.69
693.715	13.69
693.744	14.69
693.773	15.69
693.802	9.69
693.831	0.69
693.86	20.69
693.889	8.69
693.919	24.69
693.948	14.69
693.977	10.69
694.006	15.69
694.035	9.69
694.064	0.69
694.093	-1.31
694.122	9.69
694.151	2.69
694.18	1.69
694.209	38.69
694.238	31.69
694.267	31.69
694.296	8.69
694.325	30.69
694.354	20.69
694.383	8.69
694.412	19.69
694.441	19.69
694.471	-1.31
694.5	-5.31
694.529	10.69
694.558	18.69
694.587	7.69
694.616	8.69
694.645	1.69
694.674	16.69
694.703	11.69
694.732	7.69
694.761	21.69
694.79	9.69
694.819	-10.31
694.848	3.69
694.877	7.69
694.906	25.69
694.935	5.69
694.963	32.69
694.992	16.69
695.021	14.69
695.05	7.69
695.079	33.69
695.108	0.69
695.137	32.69
695.166	23.69
695.195	8.69
695.224	15.69
695.253	3.69
695.282	8.69
695.311	15.69
695.34	4.69
695.369	8.69
695.398	21.69
695.427	13.69
695.456	4.69
695.485	8.69
695.513	11.69
695.542	9.69
695.571	7.69
695.6	13.69
695.629	11.69
695.658	10.69
695.687	12.69
695.716	11.69
695.745	16.69
695.774	-0.31
695.802	16.69
695.831	11.69
695.86	9.69
695.889	19.69
695.918	12.69
695.947	3.69
695.976	-2.31
696.005	-4.31
696.033	19.69
696.062	13.69
696.091	-3.31
696.12	11.69
696.149	8.69
696.178	-0.31
696.207	5.69
696.235	11.69
696.264	24.69
696.293	14.69
696.322	8.69
696.351	24.69
696.38	8.69
696.408	20.69
696.437	7.69
696.466	2.69
696.495	14.69
696.524	15.69
696.553	7.69
696.581	15.69
696.61	18.69
696.639	4.69
696.668	2.69
696.697	7.69
696.725	35.69
696.754	8.69
696.783	9.69
696.812	12.69
696.84	12.69
696.869	3.69
696.898	23.69
696.927	8.69
696.956	17.69
696.984	2.69
697.013	11.69
697.042	10.69
697.071	16.69
697.099	25.69
697.128	10.69
697.157	-10.31
697.186	-12.31
697.214	6.69
697.243	11.69
697.272	4.69
697.301	24.69
697.329	16.69
697.358	19.69
697.387	9.69
697.415	-0.31
697.444	11.69
697.473	8.69
697.502	7.69
697.53	23.69
697.559	-1.31
697.588	2.69
697.616	10.69
697.645	4.69
697.674	20.69
697.703	19.69
697.731	33.69
697.76	15.69
697.789	9.69
697.817	7.69
697.846	25.69
697.875	18.69
697.903	37.69
697.932	20.69
697.961	15.69
697.989	9.69
698.018	21.69
698.047	22.69
698.075	7.69
698.104	5.69
698.133	5.69
698.161	9.69
698.19	10.69
698.218	1.69
698.247	15.69
698.276	2.69
698.304	15.69
698.333	26.69
698.362	14.69
698.39	13.69
698.419	25.69
698.447	0.69
698.476	-8.31
698.505	31.69
698.533	13.69
698.562	19.69
698.591	12.69
698.619	-9.31
698.648	0.69
698.676	7.69
698.705	7.69
698.733	17.69
698.762	1.69
698.791	-0.31
698.819	17.69
698.848	1.69
698.876	21.69
698.905	24.69
698.933	24.69
698.962	12.69
698.991	11.69
699.019	16.69
699.048	14.69
699.076	13.69
699.105	-6.31
699.133	0.69
699.162	6.69
699.19	26.69
699.219	8.69
699.248	-2.31
699.276	2.69
699.305	0.69
699.333	15.69
699.362	8.69
699.39	17.69
699.419	-0.31
699.447	-2.31
699.476	5.69
699.504	2.69
699.533	5.69
699.561	-6.31
699.59	10.69
699.618	18.69
699.647	15.69
699.675	6.69
699.704	12.69
699.732	1.69
699.761	28.69
699.789	8.69
699.818	17.69
699.846	6.69
699.874	8.69
699.903	23.69
699.931	20.69
699.96	2.69
699.988	1.69
700.017	4.69
700.045	3.69
700.074	-10.31
700.102	16.69
700.13	-13.31
700.159	4.69
700.187	21.69
700.216	0.69
700.244	-15.31
700.273	-9.31
700.301	8.69
700.329	14.69
700.358	13.69
700.386	7.69
700.415	-4.31
700.443	0.69
700.472	3.69
700.5	5.69
700.528	21.69
700.557	5.69
700.585	0.69
700.614	22.69
700.642	18.69
700.67	22.69
700.699	28.69
700.727	21.69
700.755	-5.31
700.784	0.69
700.812	5.69
700.841	13.69
700.869	8.69
700.897	-8.31
700.926	-0.31
700.954	12.69
700.982	11.69
701.011	9.69
701.039	15.69
701.067	7.69
701.096	21.69
701.124	-0.31
701.152	19.69
701.181	12.69
701.209	-7.31
701.237	11.69
701.266	-11.31
701.294	-3.31
701.322	9.69
701.351	5.69
701.379	4.69
701.407	-4.31
701.435	1.69
701.464	20.69
701.492	16.69
701.52	3.69
701.549	1.69
701.577	-3.31
701.605	-8.31
701.634	9.69
701.662	17.69
701.69	-7.31
701.718	-0.31
701.747	14.69
701.775	-0.31
701.803	-3.31
701.831	5.69
701.86	4.69
701.888	5.69
701.916	24.69
701.944	11.69
701.973	-8.31
702.001	-20.31
702.029	-4.31
702.057	-9.31
702.086	1.69
702.114	1.69
702.142	10.69
702.17	-6.31
702.199	19.69
702.227	15.69
702.255	4.69
702.283	-7.31
702.311	13.69
702.34	0.69
702.368	13.69
702.396	20.69
702.424	-6.31
702.452	11.69
702.481	2.69
702.509	5.69
702.537	8.69
702.565	20.69
702.593	5.69
702.621	0.69
702.65	1.69
702.678	20.69
702.706	5.69
702.734	-6.31
702.762	1.69
702.79	-2.31
702.819	7.69
702.847	3.69
702.875	12.69
702.903	5.69
702.931	5.69
702.959	6.69
702.988	8.69
703.016	-6.31
703.044	15.69
703.072	10.69
703.1	-13.31
703.128	13.69
703.156	-0.31
703.184	-8.31
703.212	8.69
703.241	11.69
703.269	5.69
703.297	7.69
703.325	10.69
703.353	-13.31
703.381	8.69
703.409	11.69
703.437	6.69
703.465	-7.31
703.493	-2.31
703.522	25.69
703.55	20.69
703.578	-3.31
703.606	-0.31
703.634	1.69
703.662	14.69
703.69	2.69
703.718	-3.31
703.746	19.69
703.774	11.69
703.802	13.69
703.83	6.69
703.858	-13.31
703.886	-11.31
703.914	1.69
703.942	10.69
703.97	1.69
703.998	-2.31
704.027	14.69
704.055	10.69
704.083	0.69
704.111	9.69
704.139	19.69
704.167	-4.31
704.195	5.69
704.223	-1.31
704.251	-6.31
704.279	-7.31
704.307	5.69
704.335	2.69
704.363	10.69
704.391	1.69
704.419	-4.31
704.447	-7.31
704.475	4.69
704.503	5.69
704.531	6.69
704.558	16.69
704.586	2.69
704.614	-0.31
704.642	6.69
704.67	-4.31
704.698	-0.31
704.726	-3.31
704.754	5.69
704.782	20.69
704.81	11.69
704.838	11.69
704.866	-6.31
704.894	-7.31
704.922	-3.31
704.95	33.69
704.978	16.69
705.006	3.69
705.034	18.69
705.061	15.69
705.089	-5.31
705.117	-8.31
705.145	-4.31
705.173	8.69
705.201	18.69
705.229	6.69
705.257	-2.31
705.285	8.69
705.313	-0.31
705.34	3.69
705.368	17.69
705.396	0.69
705.424	21.69
705.452	3.69
705.48	2.69
705.508	5.69
705.536	1.69
705.563	7.69
705.591	15.69
705.619	6.69
705.647	-11.31
705.675	11.69
705.703	2.69
705.731	8.69
705.758	7.69
705.786	0.69
705.814	22.69
705.842	-3.31
705.87	8.69
705.898	17.69
705.925	5.69
705.953	17.69
705.981	4.69
706.009	5.69
706.037	6.69
706.065	4.69
706.092	-6.31
706.12	6.69
706.148	-5.31
706.176	10.69
706.204	21.69
706.231	12.69
706.259	0.69
706.287	0.69
706.315	7.69
706.342	-6.31
706.37	21.69
706.398	2.69
706.426	7.69
706.454	15.69
706.481	16.69
706.509	4.69
706.537	1.69
706.565	-3.31
706.592	7.69
706.62	10.69
706.648	13.69
706.676	1.69
706.703	4.69
706.731	-6.31
706.759	1.69
706.787	1.69
706.814	6.69
706.842	5.69
706.87	2.69
706.897	-2.31
706.925	17.69
706.953	17.69
706.981	12.69
707.008	8.69
707.036	11.69
707.064	-7.31
707.091	-15.31
707.119	5.69
707.147	11.69
707.174	-3.31
707.202	17.69
707.23	-7.31
707.258	13.69
707.285	-9.31
707.313	7.69
707.341	-2.31
707.368	-4.31
707.396	8.69
707.424	9.69
707.451	8.69
707.479	9.69
707.507	-2.31
707.534	7.69
707.562	-10.31
707.59	-13.31
707.617	-7.31
707.645	7.69
707.672	3.69
707.7	-2.31
707.728	22.69
707.755	2.69
707.783	-3.31
707.811	0.69
707.838	3.69
707.866	5.69
707.893	7.69
707.921	5.69
707.949	-8.31
707.976	9.69
708.004	14.69
708.031	5.69
708.059	4.69
708.087	7.69
708.114	0.69
708.142	3.69
708.169	-6.31
708.197	-2.31
708.225	17.69
708.252	12.69
708.28	28.69
708.307	9.69
708.335	9.69
708.362	-0.31
708.39	-5.31
708.418	-3.31
708.445	4.69
708.473	9.69
708.5	4.69
708.528	14.69
708.555	11.69
708.583	5.69
708.61	4.69
708.638	7.69
708.665	-8.31
708.693	11.69
708.72	-12.31
708.748	-3.31
708.776	2.69
708.803	3.69
708.831	1.69
708.858	14.69
708.886	5.69
708.913	11.69
708.941	18.69
708.968	13.69
708.996	-11.31
709.023	24.69
709.051	13.69
709.078	1.69
709.105	-2.31
709.133	2.69
709.16	1.69
709.188	19.69
709.215	17.69
709.243	29.69
709.27	-15.31
709.298	-2.31
709.325	-4.31
709.353	8.69
709.38	23.69
709.408	21.69
709.435	9.69
709.462	-10.31
709.49	-0.31
709.517	-24.31
709.545	-11.31
709.572	2.69
709.6	5.69
709.627	24.69
709.655	0.69
709.682	9.69
709.709	-18.31
709.737	5.69
709.764	2.69
709.792	9.69
709.819	4.69
709.846	11.69
709.874	6.69
709.901	18.69
709.929	19.69
709.956	5.69
709.983	0.69
710.011	1.69
710.038	11.69
710.066	19.69
710.093	3.69
710.12	0.69
710.148	0.69
710.175	-3.31
710.202	4.69
710.23	0.69
710.257	5.69
710.284	10.69
710.312	-0.31
710.339	-16.31
710.366	-6.31
710.394	-8.31
710.421	-1.31
710.448	4.69
710.476	-2.31
710.503	7.69
710.53	6.69
710.558	12.69
710.585	15.69
710.612	6.69
710.64	4.69
710.667	4.69
710.694	6.69
710.722	6.69
710.749	1.69
710.776	4.69
710.804	11.69
710.831	0.69
710.858	8.69
710.885	5.69
710.913	10.69
710.94	16.69
710.967	21.69
710.995	24.69
711.022	1.69
711.049	24.69
711.076	0.69
711.104	4.69
711.131	-7.31
711.158	10.69
711.185	4.69
711.213	5.69
711.24	-13.31
711.267	-6.31
711.294	1.69
711.322	7.69
711.349	-3.31
711.376	10.69
711.403	14.69
711.431	9.69
711.458	7.69
711.485	3.69
711.512	4.69
711.54	-17.31
711.567	4.69
711.594	-2.31
711.621	-3.31
711.648	7.69
711.676	-7.31
711.703	3.69
711.73	-12.31
711.757	0.69
711.784	17.69
711.812	11.69
711.839	11.69
711.866	-6.31
711.893	3.69
711.92	9.69
711.947	-7.31
711.975	20.69
712.002	2.69
712.029	5.69
712.056	13.69
712.083	9.69
712.11	-19.31
712.138	2.69
712.165	-13.31
712.192	8.69
712.219	5.69
712.246	-0.31
712.273	-7.31
712.3	-4.31
712.328	10.69
712.355	2.69
712.382	7.69
712.409	7.69
712.436	-1.31
712.463	9.69
712.49	20.69
712.517	7.69
712.544	8.69
712.572	8.69
712.599	-5.31
712.626	3.69
712.653	-3.31
712.68	3.69
712.707	1.69
712.734	5.69
712.761	12.69
712.788	8.69
712.815	16.69
712.842	17.69
712.87	3.69
712.897	0.69
712.924	0.69
712.951	5.69
712.978	16.69
713.005	21.69
713.032	19.69
713.059	14.69
713.086	8.69
713.113	-0.31
713.14	-1.31
713.167	11.69
713.194	6.69
713.221	17.69
713.248	2.69
713.275	7.69
713.302	5.69
713.329	10.69
713.356	13.69
713.383	8.69
713.41	16.69
713.437	2.69
713.464	10.69
713.491	24.69
713.518	19.69
713.545	-2.31
713.572	1.69
713.599	10.69
713.626	-5.31
713.653	-4.31
713.68	-3.31
713.707	7.69
713.734	12.69
713.761	5.69
713.788	10.69
713.815	9.69
713.842	4.69
713.869	8.69
713.896	11.69
713.923	0.69
713.95	-2.31
713.977	10.69
714.004	20.69
714.031	8.69
714.058	4.69
714.085	4.69
714.112	0.69
714.139	12.69
714.165	8.69
714.192	-1.31
714.219	9.69
714.246	11.69
714.273	16.69
714.3	-8.31
714.327	9.69
714.354	23.69
714.381	-4.31
714.408	-8.31
714.435	-0.31
714.461	-8.31
714.488	15.69
714.515	12.69
714.542	-2.31
714.569	-8.31
714.596	-3.31
714.623	12.69
714.65	0.69
714.677	11.69
714.703	7.69
714.73	0.69
714.757	0.69
714.784	13.69
714.811	10.69
714.838	3.69
714.865	-7.31
714.891	23.69
714.918	7.69
714.945	-4.31
714.972	4.69
714.999	12.69
715.026	3.69
715.052	16.69
715.079	-4.31
715.106	21.69
715.133	10.69
715.16	-0.31
715.187	2.69
715.213	15.69
715.24	1.69
715.267	4.69
715.294	11.69
715.321	-6.31
715.347	11.69
715.374	9.69
715.401	5.69
715.428	8.69
715.455	3.69
715.481	-4.31
715.508	8.69
715.535	-3.31
715.562	23.69
715.588	4.69
715.615	-2.31
715.642	11.69
715.669	14.69
715.695	9.69
715.722	-9.31
715.749	7.69
715.776	26.69
715.802	25.69
715.829	0.69
715.856	-0.31
715.883	27.69
715.909	6.69
715.936	14.69
715.963	11.69
715.99	0.69
716.016	0.69
716.043	-1.31
716.07	-1.31
716.096	3.69
716.123	5.69
716.15	10.69
716.177	20.69
716.203	26.69
716.23	10.69
716.257	4.69
716.283	27.69
716.31	8.69
716.337	14.69
716.363	7.69
716.39	4.69
716.417	5.69
716.443	5.69
716.47	18.69
716.497	21.69
716.523	18.69
716.55	3.69
716.577	8.69
716.603	-1.31
716.63	9.69
716.657	10.69
716.683	-0.31
716.71	-6.31
716.737	1.69
716.763	15.69
716.79	16.69
716.817	19.69
716.843	25.69
716.87	11.69
716.897	-7.31
716.923	16.69
716.95	1.69
716.976	-4.31
717.003	3.69
717.03	11.69
717.056	10.69
717.083	-10.31
717.109	13.69
717.136	20.69
717.163	5.69
717.189	6.69
717.216	-0.31
717.242	-2.31
717.269	7.69
717.296	14.69
717.322	12.69
717.349	1.69
717.375	-0.31
717.402	-0.31
717.428	6.69
717.455	-0.31
717.481	11.69
717.508	29.69
717.535	15.69
717.561	-0.31
717.588	15.69
717.614	-0.31
717.641	1.69
717.667	8.69
717.694	10.69
717.72	7.69
717.747	6.69
717.773	8.69
717.8	5.69
717.826	11.69
717.853	2.69
717.88	11.69
717.906	10.69
717.933	23.69
717.959	23.69
717.986	18.69
718.012	10.69
718.039	18.69
718.065	21.69
718.092	20.69
718.118	-10.31
718.144	-22.31
718.171	15.69
718.197	9.69
718.224	5.69
718.25	26.69
718.277	18.69
718.303	11.69
718.33	1.69
718.356	-3.31
718.383	-8.31
718.409	20.69
718.436	16.69
718.462	13.69
718.489	10.69
718.515	14.69
718.541	23.69
718.568	7.69
718.594	10.69
718.621	24.69
718.647	16.69
718.674	7.69
718.7	-0.31
718.726	-1.31
718.753	11.69
718.779	7.69
718.806	-5.31
718.832	10.69
718.858	-5.31
718.885	-6.31
718.911	5.69
718.938	12.69
718.964	4.69
718.99	11.69
719.017	4.69
719.043	3.69
719.07	20.69
719.096	-6.31
719.122	10.69
719.149	15.69
719.175	12.69
719.201	15.69
719.228	11.69
719.254	14.69
719.281	8.69
719.307	7.69
719.333	15.69
719.36	18.69
719.386	9.69
719.412	29.69
719.439	11.69
719.465	-3.31
719.491	7.69
719.518	7.69
719.544	1.69
719.57	12.69
719.597	12.69
719.623	10.69
719.649	10.69
719.675	5.69
719.702	15.69
719.728	26.69
719.754	2.69
719.781	2.69
719.807	8.69
719.833	1.69
719.86	2.69
719.886	1.69
719.912	6.69
719.938	-0.31
719.965	17.69
719.991	19.69
720.017	9.69
720.044	5.69
720.07	8.69
720.096	21.69
720.122	2.69
720.149	15.69
720.175	32.69
720.201	14.69
720.227	7.69
720.254	10.69
720.28	8.69
720.306	13.69
720.332	21.69
720.359	14.69
720.385	2.69
720.411	19.69
720.437	26.69
720.463	18.69
720.49	16.69
720.516	3.69
720.542	2.69
720.568	18.69
720.595	29.69
720.621	14.69
720.647	8.69
720.673	4.69
720.699	-4.31
720.725	13.69
720.752	15.69
720.778	14.69
720.804	9.69
720.83	1.69
720.856	16.69
720.883	-0.31
720.909	1.69
720.935	6.69
720.961	19.69
720.987	19.69
721.013	7.69
721.04	3.69
721.066	3.69
721.092	-4.31
721.118	6.69
721.144	19.69
721.17	18.69
721.196	9.69
721.223	4.69
721.249	7.69
721.275	8.69
721.301	7.69
721.327	5.69
721.353	25.69
721.379	12.69
721.405	20.69
721.432	13.69
721.458	-0.31
721.484	8.69
721.51	-2.31
721.536	11.69
721.562	1.69
721.588	20.69
721.614	-4.31
721.64	-4.31
721.666	-11.31
721.693	3.69
721.719	-0.31
721.745	-5.31
721.771	11.69
721.797	-2.31
721.823	16.69
721.849	14.69
721.875	18.69
721.901	29.69
721.927	9.69
721.953	5.69
721.979	29.69
722.005	28.69
722.031	7.69
722.057	12.69
722.083	21.69
722.109	9.69
722.135	5.69
722.161	18.69
722.187	24.69
722.214	-2.31
722.24	11.69
722.266	12.69
722.292	14.69
722.318	14.69
722.344	19.69
722.37	11.69
722.396	20.69
722.422	9.69
722.448	8.69
722.474	-7.31
722.5	23.69
722.526	17.69
722.552	7.69
722.578	9.69
722.603	9.69
722.629	-17.31
722.655	4.69
722.681	-7.31
722.707	-9.31
722.733	3.69
722.759	11.69
722.785	7.69
722.811	0.69
722.837	16.69
722.863	16.69
722.889	35.69
722.915	9.69
722.941	2.69
722.967	8.69
722.993	7.69
723.019	2.69
723.045	16.69
723.071	27.69
723.097	5.69
723.122	24.69
723.148	8.69
723.174	0.69
723.2	20.69
723.226	1.69
723.252	16.69
723.278	6.69
723.304	-8.31
723.33	28.69
723.356	-2.31
723.381	-12.31
723.407	-4.31
723.433	7.69
723.459	-17.31
723.485	7.69
723.511	19.69
723.537	7.69
723.563	8.69
723.588	4.69
723.614	12.69
723.64	11.69
723.666	-0.31
723.692	17.69
723.718	-1.31
723.744	-4.31
723.769	12.69
723.795	8.69
723.821	11.69
723.847	8.69
723.873	-3.31
723.899	9.69
723.924	3.69
723.95	8.69
723.976	7.69
724.002	16.69
724.028	24.69
724.053	0.69
724.079	0.69
724.105	25.69
724.131	20.69
724.157	19.69
724.182	7.69
724.208	5.69
724.234	14.69
724.26	6.69
724.286	9.69
724.311	11.69
724.337	0.69
724.363	-23.31
724.389	7.69
724.415	5.69
724.44	22.69
724.466	-4.31
724.492	14.69
724.518	12.69
724.543	11.69
724.569	10.69
724.595	15.69
724.621	10.69
724.646	-3.31
724.672	-0.31
724.698	15.69
724.723	-4.31
724.749	5.69
724.775	0.69
724.801	4.69
724.826	2.69
724.852	1.69
724.878	2.69
724.904	-10.31
724.929	21.69
724.955	-4.31
724.981	-3.31
725.006	13.69
725.032	4.69
725.058	12.69
725.083	-2.31
725.109	-4.31
725.135	2.69
725.161	0.69
725.186	8.69
725.212	-1.31
725.238	18.69
725.263	4.69
725.289	-8.31
725.315	-19.31
725.34	8.69
725.366	24.69
725.392	11.69
725.417	18.69
725.443	12.69
725.468	5.69
725.494	10.69
725.52	27.69
725.545	15.69
725.571	-9.31
725.597	4.69
725.622	-7.31
725.648	-1.31
725.674	17.69
725.699	2.69
725.725	-0.31
725.75	11.69
725.776	-4.31
725.802	8.69
725.827	17.69
725.853	4.69
725.878	17.69
725.904	1.69
725.93	3.69
725.955	2.69
725.981	-5.31
726.006	8.69
726.032	7.69
726.057	-0.31
726.083	-1.31
726.109	10.69
726.134	3.69
726.16	-10.31
726.185	7.69
726.211	0.69
726.236	7.69
726.262	10.69
726.288	27.69
726.313	8.69
726.339	14.69
726.364	-3.31
726.39	8.69
726.415	5.69
726.441	0.69
726.466	16.69
726.492	1.69
726.517	11.69
726.543	-3.31
726.568	-5.31
726.594	-12.31
726.619	4.69
726.645	13.69
726.67	15.69
726.696	15.69
726.721	-1.31
726.747	-18.31
726.772	-3.31
726.798	7.69
726.823	4.69
726.849	-5.31
726.874	5.69
726.9	25.69
726.925	26.69
726.951	-3.31
726.976	-4.31
727.002	-8.31
727.027	13.69
727.053	19.69
727.078	-0.31
727.104	0.69
727.129	-14.31
727.155	-10.31
727.18	5.69
727.205	18.69
727.231	-0.31
727.256	-7.31
727.282	7.69
727.307	8.69
727.333	-8.31
727.358	-10.31
727.383	-4.31
727.409	-7.31
727.434	4.69
727.46	-1.31
727.485	-5.31
727.511	4.69
727.536	-6.31
727.561	1.69
727.587	7.69
727.612	1.69
727.637	3.69
727.663	-4.31
727.688	22.69
727.714	-2.31
727.739	-0.31
727.764	3.69
727.79	15.69
727.815	1.69
727.841	7.69
727.866	0.69
727.891	12.69
727.917	-7.31
727.942	-13.31
727.967	-12.31
727.993	-7.31
728.018	3.69
728.043	-3.31
728.069	-2.31
728.094	17.69
728.119	8.69
728.145	9.69
728.17	-0.31
728.195	18.69
728.221	8.69
728.246	-8.31
728.271	-15.31
728.297	7.69
728.322	4.69
728.347	8.69
728.373	12.69
728.398	19.69
728.423	2.69
728.448	13.69
728.474	5.69
728.499	22.69
728.524	2.69
728.55	12.69
728.575	-4.31
728.6	-0.31
728.625	-2.31
728.651	3.69
728.676	15.69
728.701	-0.31
728.727	14.69
728.752	-11.31
728.777	9.69
728.802	-1.31
728.828	2.69
728.853	13.69
728.878	-3.31
728.903	4.69
728.929	-14.31
728.954	9.69
728.979	24.69
729.004	19.69
729.03	8.69
729.055	20.69
729.08	7.69
729.105	3.69
729.13	12.69
729.156	28.69
729.181	9.69
729.206	-0.31
729.231	0.69
729.256	15.69
729.282	4.69
729.307	-10.31
729.332	7.69
729.357	-3.31
729.382	2.69
729.408	8.69
729.433	4.69
729.458	13.69
729.483	9.69
729.508	16.69
729.533	3.69
729.559	0.69
729.584	-1.31
729.609	21.69
729.634	27.69
729.659	8.69
729.684	-6.31
729.71	12.69
729.735	10.69
729.76	1.69
729.785	12.69
729.81	19.69
729.835	-1.31
729.86	8.69
729.886	9.69
729.911	13.69
729.936	1.69
729.961	11.69
729.986	1.69
730.011	6.69
730.036	4.69
730.061	-14.31
730.086	11.69
730.112	8.69
730.137	18.69
730.162	17.69
730.187	-5.31
730.212	3.69
730.237	-0.31
730.262	1.69
730.287	-2.31
730.312	13.69
730.337	-9.31
730.362	16.69
730.387	17.69
730.413	8.69
730.438	-0.31
730.463	21.69
730.488	8.69
730.513	10.69
730.538	6.69
730.563	19.69
730.588	12.69
730.613	5.69
730.638	-2.31
730.663	-18.31
730.688	15.69
730.713	-4.31
730.738	12.69
730.763	3.69
730.788	-6.31
730.813	8.69
730.838	2.69
730.863	1.69
730.888	-4.31
730.913	-3.31
730.938	-11.31
730.963	4.69
730.988	16.69
731.013	16.69
731.038	6.69
731.063	10.69
731.088	14.69
731.113	3.69
731.138	17.69
731.163	4.69
731.188	-13.31
731.213	6.69
731.238	11.69
731.263	-4.31
731.288	9.69
731.313	1.69
731.338	-0.31
731.363	20.69
731.388	4.69
731.413	-3.31
731.438	20.69
731.463	13.69
731.487	18.69
731.512	11.69
731.537	1.69
731.562	-10.31
731.587	-1.31
731.612	-19.31
731.637	5.69
731.662	3.69
731.687	-14.31
731.712	-11.31
731.737	3.69
731.762	10.69
731.786	14.69
731.811	16.69
731.836	9.69
731.861	9.69
731.886	9.69
731.911	25.69
731.936	22.69
731.961	7.69
731.986	-11.31
732.01	7.69
732.035	1.69
732.06	15.69
732.085	1.69
732.11	-14.31
732.135	-2.31
732.16	7.69
732.184	7.69
732.209	-5.31
732.234	30.69
732.259	5.69
732.284	25.69
732.309	6.69
732.334	10.69
732.358	-22.31
732.383	-24.31
732.408	-6.31
732.433	11.69
732.458	-6.31
732.482	6.69
732.507	7.69
732.532	15.69
732.557	7.69
732.582	8.69
732.607	21.69
732.631	-8.31
732.656	-1.31
732.681	4.69
732.706	3.69
732.73	3.69
732.755	-4.31
732.78	7.69
732.805	4.69
732.83	4.69
732.854	-5.31
732.879	9.69
732.904	-4.31
732.929	-11.31
732.953	3.69
732.978	15.69
733.003	4.69
733.028	6.69
733.052	7.69
733.077	1.69
733.102	22.69
733.127	6.69
733.151	5.69
733.176	5.69
733.201	9.69
733.226	-5.31
733.25	15.69
733.275	-7.31
733.3	-1.31
733.324	25.69
733.349	20.69
733.374	23.69
733.399	8.69
733.423	-2.31
733.448	-2.31
733.473	0.69
733.497	-0.31
733.522	-0.31
733.547	19.69
733.571	22.69
733.596	19.69
733.621	10.69
733.646	10.69
733.67	13.69
733.695	-12.31
733.72	12.69
733.744	17.69
733.769	0.69
733.794	21.69
733.818	-0.31
733.843	-5.31
733.867	-6.31
733.892	-0.31
733.917	-7.31
733.941	-1.31
733.966	18.69
733.991	5.69
734.015	10.69
734.04	12.69
734.065	12.69
734.089	21.69
734.114	4.69
734.138	13.69
734.163	8.69
734.188	12.69
734.212	28.69
734.237	28.69
734.261	0.69
734.286	16.69
734.311	9.69
734.335	5.69
734.36	8.69
734.384	6.69
734.409	8.69
734.434	-9.31
734.458	7.69
734.483	1.69
734.507	-11.31
734.532	9.69
734.556	27.69
734.581	3.69
734.606	7.69
734.63	3.69
734.655	8.69
734.679	17.69
734.704	2.69
734.728	4.69
734.753	2.69
734.777	11.69
734.802	17.69
734.826	7.69
734.851	26.69
734.876	14.69
734.9	11.69
734.925	13.69
734.949	18.69
734.974	17.69
734.998	18.69
735.023	-5.31
735.047	-15.31
735.072	34.69
735.096	4.69
735.121	3.69
735.145	-0.31
735.17	9.69
735.194	20.69
735.219	14.69
735.243	20.69
735.268	21.69
735.292	25.69
735.317	18.69
735.341	22.69
735.365	-4.31
735.39	17.69
735.414	10.69
735.439	7.69
735.463	1.69
735.488	11.69
735.512	5.69
735.537	8.69
735.561	9.69
735.586	7.69
735.61	23.69
735.634	1.69
735.659	17.69
735.683	29.69
735.708	-8.31
735.732	-14.31
735.757	-6.31
735.781	15.69
735.805	13.69
735.83	-0.31
735.854	2.69
735.879	14.69
735.903	21.69
735.927	6.69
735.952	7.69
735.976	12.69
736.001	20.69
736.025	25.69
736.049	13.69
736.074	10.69
736.098	0.69
736.123	2.69
736.147	11.69
736.171	9.69
736.196	4.69
736.22	4.69
736.244	-0.31
736.269	9.69
736.293	3.69
736.317	12.69
736.342	9.69
736.366	23.69
736.39	21.69
736.415	16.69
736.439	3.69
736.463	17.69
736.488	15.69
736.512	8.69
736.536	11.69
736.561	8.69
736.585	0.69
736.609	9.69
736.634	-4.31
736.658	4.69
736.682	5.69
736.707	2.69
736.731	7.69
736.755	4.69
736.78	7.69
736.804	19.69
736.828	21.69
736.852	-4.31
736.877	4.69
736.901	21.69
736.925	9.69
736.949	3.69
736.974	11.69
736.998	8.69
737.022	16.69
737.047	11.69
737.071	-1.31
737.095	23.69
737.119	14.69
737.144	28.69
737.168	14.69
737.192	8.69
737.216	-3.31
737.241	2.69
737.265	17.69
737.289	3.69
737.313	11.69
737.337	23.69
737.362	15.69
737.386	9.69
737.41	4.69
737.434	7.69
737.459	16.69
737.483	20.69
737.507	14.69
737.531	3.69
737.555	5.69
737.58	11.69
737.604	16.69
737.628	1.69
737.652	-0.31
737.676	2.69
737.701	11.69
737.725	9.69
737.749	15.69
737.773	18.69
737.797	5.69
737.821	16.69
737.846	9.69
737.87	23.69
737.894	0.69
737.918	5.69
737.942	4.69
737.966	12.69
737.99	-5.31
738.015	9.69
738.039	-2.31
738.063	-7.31
738.087	31.69
738.111	11.69
738.135	23.69
738.159	17.69
738.184	26.69
738.208	14.69
738.232	21.69
738.256	16.69
738.28	20.69
738.304	8.69
738.328	10.69
738.352	8.69
738.376	-5.31
738.4	7.69
738.425	11.69
738.449	15.69
738.473	26.69
738.497	16.69
738.521	-0.31
738.545	12.69
738.569	16.69
738.593	27.69
738.617	8.69
738.641	3.69
738.665	11.69
738.689	19.69
738.713	4.69
738.737	13.69
738.762	11.69
738.786	13.69
738.81	-18.31
738.834	7.69
738.858	2.69
738.882	8.69
738.906	4.69
738.93	-0.31
738.954	20.69
738.978	19.69
739.002	10.69
739.026	16.69
739.05	-0.31
739.074	-3.31
739.098	24.69
739.122	19.69
739.146	19.69
739.17	20.69
739.194	32.69
739.218	8.69
739.242	5.69
739.266	14.69
739.29	3.69
739.314	11.69
739.338	10.69
739.362	5.69
739.386	14.69
739.41	4.69
739.434	-5.31
739.458	20.69
739.482	22.69
739.506	11.69
739.53	2.69
739.554	16.69
739.577	-0.31
739.601	9.69
739.625	-3.31
739.649	17.69
739.673	7.69
739.697	22.69
739.721	0.69
739.745	18.69
739.769	12.69
739.793	12.69
739.817	18.69
739.841	1.69
739.865	9.69
739.889	-10.31
739.912	4.69
739.936	-3.31
739.96	4.69
739.984	-7.31
740.008	5.69
740.032	8.69
740.056	17.69
740.08	13.69
740.104	2.69
740.127	4.69
740.151	1.69
740.175	8.69
740.199	2.69
740.223	43.69
740.247	19.69
740.271	19.69
740.295	6.69
740.318	-5.31
740.342	-0.31
740.366	17.69
740.39	1.69
740.414	2.69
740.438	5.69
740.461	27.69
740.485	17.69
740.509	8.69
740.533	15.69
740.557	8.69
740.581	7.69
740.604	1.69
740.628	7.69
740.652	1.69
740.676	10.69
740.7	1.69
740.723	14.69
740.747	-1.31
740.771	-0.31
740.795	-0.31
740.819	-1.31
740.842	12.69
740.866	13.69
740.89	14.69
740.914	2.69
740.938	-6.31
740.961	25.69
740.985	31.69
741.009	5.69
741.033	12.69
741.056	11.69
741.08	11.69
741.104	8.69
741.128	7.69
741.151	4.69
741.175	9.69
741.199	12.69
741.223	16.69
741.246	-4.31
741.27	10.69
741.294	17.69
741.318	-8.31
741.341	-5.31
741.365	5.69
741.389	0.69
741.413	10.69
741.436	4.69
741.46	4.69
741.484	8.69
741.507	4.69
741.531	29.69
741.555	30.69
741.579	18.69
741.602	0.69
741.626	18.69
741.65	1.69
741.673	12.69
741.697	10.69
741.721	8.69
741.744	-4.31
741.768	-0.31
741.792	17.69
741.815	9.69
741.839	23.69
741.863	31.69
741.886	10.69
741.91	15.69
741.934	4.69
741.957	-6.31
741.981	17.69
742.005	4.69
742.028	-4.31
742.052	-6.31
742.075	11.69
742.099	23.69
742.123	5.69
742.146	6.69
742.17	8.69
742.194	-16.31
742.217	-0.31
742.241	-3.31
742.264	-5.31
742.288	22.69
742.312	19.69
742.335	3.69
742.359	24.69
742.382	7.69
742.406	18.69
742.43	13.69
742.453	1.69
742.477	-11.31
742.5	11.69
742.524	4.69
742.548	-0.31
742.571	10.69
742.595	-2.31
742.618	3.69
742.642	-2.31
742.665	16.69
742.689	-12.31
742.712	-0.31
742.736	4.69
742.76	11.69
742.783	-4.31
742.807	7.69
742.83	25.69
742.854	0.69
742.877	-4.31
742.901	9.69
742.924	-0.31
742.948	-0.31
742.971	7.69
742.995	14.69
743.018	2.69
743.042	0.69
743.065	8.69
743.089	5.69
743.112	3.69
743.136	1.69
743.159	-0.31
743.183	3.69
743.206	7.69
743.23	0.69
743.253	-2.31
743.277	17.69
743.3	-3.31
743.324	-1.31
743.347	-10.31
743.371	7.69
743.394	7.69
743.418	30.69
743.441	17.69
743.465	8.69
743.488	10.69
743.512	4.69
743.535	5.69
743.558	15.69
743.582	7.69
743.605	4.69
743.629	18.69
743.652	11.69
743.676	23.69
743.699	28.69
743.723	7.69
743.746	5.69
743.769	12.69
743.793	0.69
743.816	-4.31
743.84	9.69
743.863	10.69
743.886	8.69
743.91	21.69
743.933	2.69
743.957	-1.31
743.98	9.69
744.003	14.69
744.027	0.69
744.05	0.69
744.074	-0.31
744.097	-3.31
744.12	-3.31
744.144	-25.31
744.167	22.69
744.19	12.69
744.214	-11.31
744.237	-17.31
744.26	3.69
744.284	12.69
744.307	-12.31
744.331	7.69
744.354	-6.31
744.377	-15.31
744.401	7.69
744.424	3.69
744.447	-15.31
744.471	-12.31
