Data from HighRes_H2D2_15_04_11_07_2024_HR4C61891__6__15-05-35-043.txt Node

Date: Thu Nov 07 15:05:35 EST 2024
User: crc00042
Spectrometer: HR4C6189
Trigger mode: 4
Integration Time (sec): 1.000000E-1
Scans to average: 1
Electric dark correction enabled: true
Nonlinearity correction enabled: false
Boxcar width: 0
XAxis mode: Wavelengths
Number of Pixels in Spectrum: 3648
>>>>>Begin Spectral Data<<<<<
639.567	-69.92
639.602	-69.92
639.636	-69.92
639.67	-41.92
639.704	-5.92
639.738	9.08
639.773	8.08
639.807	-24.92
639.841	-5.92
639.875	5.08
639.909	-2.92
639.943	6.08
639.978	-7.92
640.012	5.08
640.046	9.08
640.08	16.08
640.114	-0.92
640.148	-15.92
640.182	-14.92
640.217	-4.92
640.251	24.08
640.285	14.08
640.319	3.08
640.353	16.08
640.387	9.08
640.421	8.08
640.455	2.08
640.49	-5.92
640.524	-7.92
640.558	11.08
640.592	3.08
640.626	3.08
640.66	26.08
640.694	7.08
640.728	5.08
640.762	4.08
640.796	32.08
640.83	26.08
640.865	4.08
640.899	14.08
640.933	13.08
640.967	18.08
641.001	14.08
641.035	13.08
641.069	-0.92
641.103	-15.92
641.137	-0.92
641.171	-1.92
641.205	-4.92
641.239	15.08
641.273	-0.92
641.307	3.08
641.341	0.08
641.375	-5.92
641.409	-1.92
641.443	-4.92
641.477	10.08
641.511	-2.92
641.545	19.08
641.579	8.08
641.614	-5.92
641.648	22.08
641.682	6.08
641.716	9.08
641.75	18.08
641.784	3.08
641.818	11.08
641.852	21.08
641.886	13.08
641.919	34.08
641.953	-10.92
641.987	-14.92
642.021	2.08
642.055	11.08
642.089	5.08
642.123	-9.92
642.157	4.08
642.191	20.08
642.225	19.08
642.259	15.08
642.293	26.08
642.327	8.08
642.361	2.08
642.395	10.08
642.429	20.08
642.463	11.08
642.497	15.08
642.531	8.08
642.565	1.08
642.599	1.08
642.633	-16.92
642.666	18.08
642.7	7.08
642.734	7.08
642.768	-6.92
642.802	1.08
642.836	0.08
642.87	-11.92
642.904	24.08
642.938	18.08
642.972	14.08
643.005	-5.92
643.039	13.08
643.073	12.08
643.107	-0.92
643.141	-2.92
643.175	10.08
643.209	2.08
643.243	0.08
643.276	17.08
643.31	5.08
643.344	17.08
643.378	10.08
643.412	12.08
643.446	15.08
643.48	-6.92
643.513	11.08
643.547	10.08
643.581	-2.92
643.615	21.08
643.649	8.08
643.683	1.08
643.716	7.08
643.75	13.08
643.784	-5.92
643.818	11.08
643.852	4.08
643.886	11.08
643.919	16.08
643.953	3.08
643.987	19.08
644.021	12.08
644.055	22.08
644.088	4.08
644.122	-8.92
644.156	14.08
644.19	19.08
644.224	12.08
644.257	18.08
644.291	17.08
644.325	22.08
644.359	7.08
644.392	19.08
644.426	24.08
644.46	15.08
644.494	9.08
644.527	-2.92
644.561	13.08
644.595	16.08
644.629	-5.92
644.662	14.08
644.696	31.08
644.73	-1.92
644.764	16.08
644.797	13.08
644.831	14.08
644.865	21.08
644.899	3.08
644.932	22.08
644.966	4.08
645	12.08
645.033	23.08
645.067	14.08
645.101	17.08
645.135	-0.92
645.168	19.08
645.202	6.08
645.236	3.08
645.269	2.08
645.303	4.08
645.337	-5.92
645.37	-13.92
645.404	16.08
645.438	8.08
645.471	4.08
645.505	6.08
645.539	8.08
645.572	-3.92
645.606	10.08
645.64	-0.92
645.673	14.08
645.707	30.08
645.741	21.08
645.774	7.08
645.808	6.08
645.842	0.08
645.875	11.08
645.909	0.08
645.943	4.08
645.976	15.08
646.01	15.08
646.043	7.08
646.077	31.08
646.111	7.08
646.144	18.08
646.178	6.08
646.212	-5.92
646.245	5.08
646.279	12.08
646.312	16.08
646.346	12.08
646.38	4.08
646.413	8.08
646.447	14.08
646.48	0.08
646.514	15.08
646.547	23.08
646.581	-0.92
646.615	-1.92
646.648	8.08
646.682	12.08
646.715	8.08
646.749	20.08
646.782	9.08
646.816	14.08
646.85	12.08
646.883	8.08
646.917	13.08
646.95	1.08
646.984	11.08
647.017	8.08
647.051	12.08
647.084	5.08
647.118	-3.92
647.151	3.08
647.185	0.08
647.218	-15.92
647.252	4.08
647.285	-7.92
647.319	2.08
647.353	10.08
647.386	15.08
647.42	16.08
647.453	2.08
647.487	4.08
647.52	16.08
647.553	17.08
647.587	0.08
647.62	1.08
647.654	-3.92
647.687	6.08
647.721	18.08
647.754	6.08
647.788	11.08
647.821	4.08
647.855	1.08
647.888	7.08
647.922	11.08
647.955	10.08
647.989	-0.92
648.022	4.08
648.055	20.08
648.089	7.08
648.122	34.08
648.156	8.08
648.189	6.08
648.223	7.08
648.256	29.08
648.29	8.08
648.323	4.08
648.356	6.08
648.39	25.08
648.423	9.08
648.457	12.08
648.49	27.08
648.523	13.08
648.557	15.08
648.59	8.08
648.624	18.08
648.657	15.08
648.69	20.08
648.724	23.08
648.757	27.08
648.791	4.08
648.824	5.08
648.857	19.08
648.891	20.08
648.924	11.08
648.957	21.08
648.991	0.08
649.024	21.08
649.057	11.08
649.091	-14.92
649.124	14.08
649.158	7.08
649.191	34.08
649.224	11.08
649.258	14.08
649.291	11.08
649.324	16.08
649.358	14.08
649.391	0.08
649.424	-4.92
649.458	5.08
649.491	18.08
649.524	17.08
649.557	8.08
649.591	-3.92
649.624	18.08
649.657	-9.92
649.691	-6.92
649.724	12.08
649.757	-14.92
649.791	-18.92
649.824	24.08
649.857	21.08
649.89	10.08
649.924	-13.92
649.957	6.08
649.99	-12.92
650.023	-1.92
650.057	0.08
650.09	9.08
650.123	17.08
650.157	19.08
650.19	29.08
650.223	5.08
650.256	3.08
650.29	-4.92
650.323	8.08
650.356	17.08
650.389	10.08
650.423	-1.92
650.456	5.08
650.489	-15.92
650.522	4.08
650.555	15.08
650.589	21.08
650.622	1.08
650.655	10.08
650.688	2.08
650.721	-7.92
650.755	18.08
650.788	31.08
650.821	1.08
650.854	15.08
650.887	3.08
650.921	5.08
650.954	8.08
650.987	-1.92
651.02	-10.92
651.053	1.08
651.087	1.08
651.12	21.08
651.153	22.08
651.186	7.08
651.219	1.08
651.252	10.08
651.286	14.08
651.319	-3.92
651.352	9.08
651.385	-5.92
651.418	11.08
651.451	24.08
651.484	-1.92
651.518	-3.92
651.551	29.08
651.584	-10.92
651.617	22.08
651.65	13.08
651.683	21.08
651.716	18.08
651.749	5.08
651.783	4.08
651.816	5.08
651.849	9.08
651.882	8.08
651.915	5.08
651.948	9.08
651.981	1.08
652.014	1.08
652.047	0.08
652.08	2.08
652.114	24.08
652.147	26.08
652.18	5.08
652.213	35.08
652.246	6.08
652.279	-9.92
652.312	20.08
652.345	15.08
652.378	17.08
652.411	31.08
652.444	20.08
652.477	21.08
652.51	-0.92
652.543	-8.92
652.576	11.08
652.609	-14.92
652.642	3.08
652.675	11.08
652.709	18.08
652.742	12.08
652.775	6.08
652.808	25.08
652.841	11.08
652.874	21.08
652.907	-7.92
652.94	3.08
652.973	-0.92
653.006	-10.92
653.039	2.08
653.072	15.08
653.105	3.08
653.138	-4.92
653.171	7.08
653.204	6.08
653.237	10.08
653.27	0.08
653.303	16.08
653.336	2.08
653.368	10.08
653.401	20.08
653.434	11.08
653.467	0.08
653.5	11.08
653.533	-11.92
653.566	15.08
653.599	3.08
653.632	0.08
653.665	3.08
653.698	-0.92
653.731	-7.92
653.764	25.08
653.797	0.08
653.83	9.08
653.863	4.08
653.896	6.08
653.929	-3.92
653.961	21.08
653.994	17.08
654.027	-7.92
654.06	13.08
654.093	10.08
654.126	29.08
654.159	8.08
654.192	3.08
654.225	10.08
654.258	4.08
654.29	3.08
654.323	6.08
654.356	-1.92
654.389	3.08
654.422	9.08
654.455	-2.92
654.488	3.08
654.521	0.08
654.553	5.08
654.586	27.08
654.619	10.08
654.652	-7.92
654.685	11.08
654.718	-4.92
654.751	11.08
654.783	4.08
654.816	6.08
654.849	-3.92
654.882	4.08
654.915	-7.92
654.948	-5.92
654.98	7.08
655.013	9.08
655.046	11.08
655.079	-3.92
655.112	5.08
655.144	1.08
655.177	14.08
655.21	35.08
655.243	27.08
655.276	15.08
655.308	-4.92
655.341	-8.92
655.374	20.08
655.407	-3.92
655.44	0.08
655.472	14.08
655.505	19.08
655.538	3.08
655.571	19.08
655.603	0.08
655.636	-13.92
655.669	13.08
655.702	-4.92
655.734	-3.92
655.767	7.08
655.8	16.08
655.833	1.08
655.865	4.08
655.898	14.08
655.931	4.08
655.964	26.08
655.996	31.08
656.029	32.08
656.062	47.08
656.095	38.08
656.127	85.08
656.16	204.08
656.193	622.08
656.225	943.08
656.258	547.08
656.291	217.08
656.324	194.08
656.356	368.08
656.389	788.08
656.422	705.08
656.454	224.08
656.487	85.08
656.52	39.08
656.552	15.08
656.585	11.08
656.618	-0.92
656.65	29.08
656.683	10.08
656.716	1.08
656.748	2.08
656.781	11.08
656.814	-5.92
656.846	20.08
656.879	0.08
656.912	2.08
656.944	-26.92
656.977	-3.92
657.01	2.08
657.042	16.08
657.075	9.08
657.108	-0.92
657.14	1.08
657.173	20.08
657.205	27.08
657.238	0.08
657.271	8.08
657.303	-7.92
657.336	11.08
657.369	5.08
657.401	5.08
657.434	2.08
657.466	19.08
657.499	9.08
657.532	-4.92
657.564	16.08
657.597	11.08
657.629	10.08
657.662	11.08
657.694	7.08
657.727	-8.92
657.76	19.08
657.792	2.08
657.825	-1.92
657.857	-1.92
657.89	2.08
657.922	20.08
657.955	15.08
657.987	15.08
658.02	11.08
658.053	22.08
658.085	10.08
658.118	0.08
658.15	-3.92
658.183	19.08
658.215	-3.92
658.248	0.08
658.28	-10.92
658.313	14.08
658.345	16.08
658.378	1.08
658.41	-0.92
658.443	12.08
658.475	8.08
658.508	0.08
658.54	12.08
658.573	-6.92
658.605	7.08
658.638	4.08
658.67	-0.92
658.703	0.08
658.735	-8.92
658.768	4.08
658.8	-0.92
658.833	3.08
658.865	-2.92
658.898	10.08
658.93	-0.92
658.963	23.08
658.995	-4.92
659.028	10.08
659.06	-5.92
659.092	1.08
659.125	-4.92
659.157	17.08
659.19	4.08
659.222	4.08
659.255	10.08
659.287	-3.92
659.32	-0.92
659.352	17.08
659.384	14.08
659.417	7.08
659.449	17.08
659.482	14.08
659.514	-2.92
659.546	14.08
659.579	19.08
659.611	12.08
659.644	-3.92
659.676	-5.92
659.708	-7.92
659.741	8.08
659.773	10.08
659.806	3.08
659.838	3.08
659.87	7.08
659.903	6.08
659.935	4.08
659.967	4.08
660	-7.92
660.032	-9.92
660.065	22.08
660.097	-4.92
660.129	-8.92
660.162	10.08
660.194	-0.92
660.226	-1.92
660.259	22.08
660.291	20.08
660.323	8.08
660.356	13.08
660.388	5.08
660.42	-4.92
660.453	12.08
660.485	16.08
660.517	21.08
660.55	13.08
660.582	4.08
660.614	18.08
660.647	11.08
660.679	4.08
660.711	-7.92
660.743	-11.92
660.776	11.08
660.808	11.08
660.84	-8.92
660.873	9.08
660.905	6.08
660.937	2.08
660.969	-10.92
661.002	9.08
661.034	19.08
661.066	14.08
661.099	7.08
661.131	21.08
661.163	9.08
661.195	14.08
661.228	18.08
661.26	1.08
661.292	7.08
661.324	7.08
661.357	-0.92
661.389	5.08
661.421	16.08
661.453	14.08
661.485	15.08
661.518	14.08
661.55	-7.92
661.582	-0.92
661.614	11.08
661.647	12.08
661.679	9.08
661.711	11.08
661.743	-7.92
661.775	18.08
661.808	29.08
661.84	-3.92
661.872	18.08
661.904	2.08
661.936	8.08
661.969	7.08
662.001	2.08
662.033	11.08
662.065	0.08
662.097	32.08
662.129	14.08
662.162	-6.92
662.194	15.08
662.226	-1.92
662.258	17.08
662.29	1.08
662.322	0.08
662.355	-4.92
662.387	9.08
662.419	0.08
662.451	14.08
662.483	14.08
662.515	-3.92
662.547	0.08
662.58	-3.92
662.612	5.08
662.644	-1.92
662.676	-7.92
662.708	32.08
662.74	11.08
662.772	17.08
662.804	5.08
662.836	5.08
662.869	-18.92
662.901	28.08
662.933	17.08
662.965	18.08
662.997	3.08
663.029	-2.92
663.061	5.08
663.093	10.08
663.125	9.08
663.157	6.08
663.189	6.08
663.221	16.08
663.254	0.08
663.286	13.08
663.318	4.08
663.35	-1.92
663.382	13.08
663.414	0.08
663.446	3.08
663.478	8.08
663.51	20.08
663.542	-9.92
663.574	0.08
663.606	13.08
663.638	-7.92
663.67	-1.92
663.702	3.08
663.734	6.08
663.766	8.08
663.798	20.08
663.83	-0.92
663.862	2.08
663.894	16.08
663.926	7.08
663.958	21.08
663.99	7.08
664.022	19.08
664.054	14.08
664.086	-3.92
664.118	5.08
664.15	-10.92
664.182	12.08
664.214	7.08
664.246	16.08
664.278	9.08
664.31	8.08
664.342	27.08
664.374	6.08
664.406	11.08
664.438	10.08
664.47	35.08
664.502	16.08
664.534	5.08
664.566	-0.92
664.598	6.08
664.63	-3.92
664.662	6.08
664.693	3.08
664.725	14.08
664.757	16.08
664.789	-3.92
664.821	1.08
664.853	13.08
664.885	13.08
664.917	-0.92
664.949	20.08
664.981	14.08
665.013	7.08
665.045	-2.92
665.076	8.08
665.108	1.08
665.14	-5.92
665.172	0.08
665.204	3.08
665.236	-11.92
665.268	9.08
665.3	8.08
665.331	-4.92
665.363	18.08
665.395	14.08
665.427	2.08
665.459	16.08
665.491	16.08
665.523	14.08
665.555	8.08
665.586	9.08
665.618	0.08
665.65	-10.92
665.682	19.08
665.714	3.08
665.746	2.08
665.777	-0.92
665.809	6.08
665.841	9.08
665.873	-2.92
665.905	-1.92
665.937	3.08
665.968	-0.92
666	-2.92
666.032	-3.92
666.064	-9.92
666.096	5.08
666.127	8.08
666.159	19.08
666.191	15.08
666.223	13.08
666.255	4.08
666.286	0.08
666.318	-2.92
666.35	23.08
666.382	8.08
666.413	-5.92
666.445	-4.92
666.477	2.08
666.509	12.08
666.54	17.08
666.572	10.08
666.604	10.08
666.636	1.08
666.667	19.08
666.699	30.08
666.731	15.08
666.763	12.08
666.794	6.08
666.826	14.08
666.858	-0.92
666.89	19.08
666.921	21.08
666.953	6.08
666.985	10.08
667.017	27.08
667.048	33.08
667.08	17.08
667.112	-7.92
667.143	2.08
667.175	1.08
667.207	15.08
667.238	16.08
667.27	9.08
667.302	6.08
667.334	3.08
667.365	23.08
667.397	14.08
667.429	11.08
667.46	15.08
667.492	28.08
667.524	19.08
667.555	-6.92
667.587	11.08
667.619	-2.92
667.65	-1.92
667.682	10.08
667.714	23.08
667.745	14.08
667.777	16.08
667.808	20.08
667.84	25.08
667.872	5.08
667.903	28.08
667.935	2.08
667.967	-4.92
667.998	10.08
668.03	24.08
668.061	22.08
668.093	22.08
668.125	14.08
668.156	-4.92
668.188	-4.92
668.22	3.08
668.251	13.08
668.283	19.08
668.314	25.08
668.346	11.08
668.377	8.08
668.409	-5.92
668.441	19.08
668.472	17.08
668.504	1.08
668.535	18.08
668.567	19.08
668.599	12.08
668.63	-8.92
668.662	9.08
668.693	17.08
668.725	3.08
668.756	22.08
668.788	3.08
668.819	-8.92
668.851	6.08
668.882	10.08
668.914	14.08
668.946	22.08
668.977	4.08
669.009	-9.92
669.04	-5.92
669.072	21.08
669.103	3.08
669.135	6.08
669.166	11.08
669.198	27.08
669.229	1.08
669.261	3.08
669.292	-8.92
669.324	12.08
669.355	20.08
669.387	0.08
669.418	10.08
669.45	-3.92
669.481	-5.92
669.513	0.08
669.544	4.08
669.576	10.08
669.607	28.08
669.639	28.08
669.67	-0.92
669.701	14.08
669.733	-8.92
669.764	-5.92
669.796	-7.92
669.827	8.08
669.859	-3.92
669.89	20.08
669.922	9.08
669.953	18.08
669.985	22.08
670.016	20.08
670.047	5.08
670.079	6.08
670.11	-4.92
670.142	7.08
670.173	5.08
670.204	2.08
670.236	13.08
670.267	6.08
670.299	18.08
670.33	-0.92
670.362	20.08
670.393	7.08
670.424	14.08
670.456	-25.92
670.487	14.08
670.518	10.08
670.55	12.08
670.581	1.08
670.613	6.08
670.644	0.08
670.675	-1.92
670.707	12.08
670.738	19.08
670.769	2.08
670.801	-0.92
670.832	25.08
670.864	1.08
670.895	0.08
670.926	-7.92
670.958	-0.92
670.989	0.08
671.02	-0.92
671.052	5.08
671.083	5.08
671.114	-0.92
671.146	10.08
671.177	-0.92
671.208	14.08
671.24	4.08
671.271	16.08
671.302	21.08
671.333	4.08
671.365	8.08
671.396	2.08
671.427	4.08
671.459	6.08
671.49	20.08
671.521	26.08
671.553	7.08
671.584	16.08
671.615	-5.92
671.646	19.08
671.678	4.08
671.709	2.08
671.74	-20.92
671.771	9.08
671.803	16.08
671.834	15.08
671.865	0.08
671.896	25.08
671.928	1.08
671.959	-6.92
671.99	0.08
672.021	22.08
672.053	-4.92
672.084	12.08
672.115	28.08
672.146	9.08
672.178	-17.92
672.209	1.08
672.24	10.08
672.271	28.08
672.303	-1.92
672.334	4.08
672.365	-0.92
672.396	20.08
672.427	3.08
672.459	2.08
672.49	17.08
672.521	-1.92
672.552	-1.92
672.583	-1.92
672.615	12.08
672.646	19.08
672.677	6.08
672.708	3.08
672.739	8.08
672.77	16.08
672.802	19.08
672.833	-0.92
672.864	-2.92
672.895	14.08
672.926	11.08
672.957	-8.92
672.989	2.08
673.02	12.08
673.051	-0.92
673.082	19.08
673.113	14.08
673.144	4.08
673.175	20.08
673.206	-9.92
673.238	-5.92
673.269	12.08
673.3	11.08
673.331	8.08
673.362	10.08
673.393	8.08
673.424	17.08
673.455	31.08
673.487	11.08
673.518	10.08
673.549	19.08
673.58	17.08
673.611	9.08
673.642	-2.92
673.673	-17.92
673.704	31.08
673.735	-7.92
673.766	-0.92
673.797	-6.92
673.828	8.08
673.86	11.08
673.891	-19.92
673.922	-4.92
673.953	1.08
673.984	1.08
674.015	16.08
674.046	2.08
674.077	24.08
674.108	6.08
674.139	-5.92
674.17	7.08
674.201	-2.92
674.232	0.08
674.263	-4.92
674.294	-3.92
674.325	-10.92
674.356	0.08
674.387	18.08
674.418	18.08
674.449	10.08
674.48	17.08
674.511	8.08
674.542	0.08
674.573	-3.92
674.604	19.08
674.635	13.08
674.666	11.08
674.697	10.08
674.728	14.08
674.759	5.08
674.79	0.08
674.821	-5.92
674.852	4.08
674.883	-0.92
674.914	10.08
674.945	11.08
674.976	0.08
675.007	0.08
675.038	-15.92
675.069	11.08
675.1	25.08
675.131	5.08
675.162	-5.92
675.193	10.08
675.224	9.08
675.254	17.08
675.285	13.08
675.316	25.08
675.347	9.08
675.378	2.08
675.409	0.08
675.44	12.08
675.471	-10.92
675.502	-7.92
675.533	15.08
675.564	17.08
675.595	10.08
675.625	22.08
675.656	19.08
675.687	8.08
675.718	-0.92
675.749	19.08
675.78	17.08
675.811	-11.92
675.842	14.08
675.873	-1.92
675.903	5.08
675.934	16.08
675.965	-11.92
675.996	-1.92
676.027	9.08
676.058	-2.92
676.089	-20.92
676.119	9.08
676.15	4.08
676.181	11.08
676.212	3.08
676.243	17.08
676.274	4.08
676.304	22.08
676.335	0.08
676.366	3.08
676.397	7.08
676.428	12.08
676.459	8.08
676.489	10.08
676.52	4.08
676.551	2.08
676.582	5.08
676.613	14.08
676.643	12.08
676.674	30.08
676.705	11.08
676.736	17.08
676.767	24.08
676.797	11.08
676.828	16.08
676.859	0.08
676.89	-1.92
676.92	6.08
676.951	6.08
676.982	7.08
677.013	-1.92
677.044	17.08
677.074	12.08
677.105	8.08
677.136	20.08
677.167	0.08
677.197	11.08
677.228	21.08
677.259	-6.92
677.289	6.08
677.32	-1.92
677.351	-5.92
677.382	7.08
677.412	-9.92
677.443	19.08
677.474	8.08
677.505	-1.92
677.535	4.08
677.566	-11.92
677.597	-8.92
677.627	-3.92
677.658	7.08
677.689	2.08
677.72	0.08
677.75	6.08
677.781	-3.92
677.812	1.08
677.842	6.08
677.873	5.08
677.904	10.08
677.934	8.08
677.965	11.08
677.996	-9.92
678.026	6.08
678.057	2.08
678.088	-6.92
678.118	5.08
678.149	8.08
678.18	3.08
678.21	2.08
678.241	-0.92
678.272	5.08
678.302	0.08
678.333	12.08
678.363	27.08
678.394	-0.92
678.425	3.08
678.455	13.08
678.486	17.08
678.517	-6.92
678.547	-0.92
678.578	13.08
678.608	-5.92
678.639	0.08
678.67	4.08
678.7	-7.92
678.731	7.08
678.761	-5.92
678.792	11.08
678.823	16.08
678.853	13.08
678.884	-4.92
678.914	8.08
678.945	3.08
678.975	10.08
679.006	15.08
679.037	4.08
679.067	24.08
679.098	-3.92
679.128	-7.92
679.159	-0.92
679.189	27.08
679.22	6.08
679.25	19.08
679.281	5.08
679.312	5.08
679.342	5.08
679.373	17.08
679.403	14.08
679.434	2.08
679.464	-1.92
679.495	9.08
679.525	24.08
679.556	19.08
679.586	7.08
679.617	3.08
679.647	11.08
679.678	0.08
679.708	-3.92
679.739	1.08
679.769	-3.92
679.8	-1.92
679.83	-0.92
679.861	15.08
679.891	11.08
679.922	5.08
679.952	1.08
679.983	9.08
680.013	8.08
680.044	-10.92
680.074	6.08
680.105	14.08
680.135	0.08
680.165	6.08
680.196	14.08
680.226	11.08
680.257	6.08
680.287	0.08
680.318	9.08
680.348	-2.92
680.379	16.08
680.409	7.08
680.439	10.08
680.47	9.08
680.5	1.08
680.531	6.08
680.561	-3.92
680.592	3.08
680.622	25.08
680.652	8.08
680.683	16.08
680.713	15.08
680.744	8.08
680.774	13.08
680.804	34.08
680.835	7.08
680.865	10.08
680.896	26.08
680.926	18.08
680.956	19.08
680.987	3.08
681.017	8.08
681.047	16.08
681.078	-1.92
681.108	15.08
681.139	12.08
681.169	8.08
681.199	4.08
681.23	16.08
681.26	12.08
681.29	3.08
681.321	-5.92
681.351	10.08
681.381	1.08
681.412	18.08
681.442	5.08
681.472	16.08
681.503	9.08
681.533	-5.92
681.563	8.08
681.594	10.08
681.624	6.08
681.654	5.08
681.685	-5.92
681.715	9.08
681.745	-3.92
681.775	-2.92
681.806	11.08
681.836	12.08
681.866	-9.92
681.897	13.08
681.927	12.08
681.957	-16.92
681.987	17.08
682.018	-1.92
682.048	-7.92
682.078	12.08
682.109	21.08
682.139	24.08
682.169	23.08
682.199	3.08
682.23	-10.92
682.26	8.08
682.29	16.08
682.32	1.08
682.351	8.08
682.381	6.08
682.411	-4.92
682.441	3.08
682.472	-3.92
682.502	-10.92
682.532	10.08
682.562	11.08
682.592	18.08
682.623	23.08
682.653	13.08
682.683	-12.92
682.713	14.08
682.743	4.08
682.774	-4.92
682.804	6.08
682.834	16.08
682.864	0.08
682.894	-2.92
682.925	-5.92
682.955	2.08
682.985	8.08
683.015	20.08
683.045	9.08
683.076	10.08
683.106	7.08
683.136	-0.92
683.166	3.08
683.196	6.08
683.226	-2.92
683.257	-8.92
683.287	-3.92
683.317	17.08
683.347	7.08
683.377	5.08
683.407	18.08
683.437	23.08
683.468	14.08
683.498	3.08
683.528	6.08
683.558	8.08
683.588	4.08
683.618	10.08
683.648	3.08
683.678	6.08
683.708	20.08
683.739	4.08
683.769	-11.92
683.799	2.08
683.829	17.08
683.859	23.08
683.889	8.08
683.919	-10.92
683.949	11.08
683.979	-0.92
684.009	10.08
684.039	-1.92
684.07	2.08
684.1	10.08
684.13	7.08
684.16	15.08
684.19	-1.92
684.22	22.08
684.25	20.08
684.28	-13.92
684.31	14.08
684.34	18.08
684.37	1.08
684.4	-8.92
684.43	1.08
684.46	1.08
684.49	21.08
684.52	15.08
684.55	37.08
684.58	20.08
684.61	12.08
684.64	8.08
684.67	10.08
684.7	17.08
684.73	18.08
684.76	5.08
684.79	24.08
684.82	8.08
684.85	-1.92
684.88	7.08
684.91	8.08
684.94	2.08
684.97	-12.92
685	-1.92
685.03	-2.92
685.06	8.08
685.09	2.08
685.12	19.08
685.15	-2.92
685.18	24.08
685.21	13.08
685.24	16.08
685.27	21.08
685.3	-3.92
685.33	-1.92
685.36	11.08
685.39	-5.92
685.42	1.08
685.45	7.08
685.48	7.08
685.51	2.08
685.54	11.08
685.569	11.08
685.599	7.08
685.629	14.08
685.659	12.08
685.689	1.08
685.719	20.08
685.749	11.08
685.779	5.08
685.809	4.08
685.839	16.08
685.869	10.08
685.898	35.08
685.928	29.08
685.958	1.08
685.988	14.08
686.018	10.08
686.048	19.08
686.078	16.08
686.108	23.08
686.137	14.08
686.167	13.08
686.197	-8.92
686.227	-6.92
686.257	20.08
686.287	12.08
686.317	3.08
686.346	7.08
686.376	3.08
686.406	-7.92
686.436	3.08
686.466	4.08
686.496	17.08
686.525	4.08
686.555	10.08
686.585	15.08
686.615	32.08
686.645	12.08
686.675	-4.92
686.704	2.08
686.734	0.08
686.764	7.08
686.794	13.08
686.824	11.08
686.853	16.08
686.883	28.08
686.913	22.08
686.943	13.08
686.973	8.08
687.002	26.08
687.032	11.08
687.062	-0.92
687.092	23.08
687.121	3.08
687.151	-11.92
687.181	17.08
687.211	26.08
687.24	-1.92
687.27	8.08
687.3	-2.92
687.33	0.08
687.359	-5.92
687.389	9.08
687.419	5.08
687.449	1.08
687.478	5.08
687.508	16.08
687.538	18.08
687.568	19.08
687.597	-10.92
687.627	8.08
687.657	17.08
687.686	16.08
687.716	22.08
687.746	0.08
687.776	-2.92
687.805	25.08
687.835	3.08
687.865	15.08
687.894	11.08
687.924	11.08
687.954	14.08
687.983	7.08
688.013	16.08
688.043	29.08
688.072	4.08
688.102	-0.92
688.132	10.08
688.161	15.08
688.191	16.08
688.221	34.08
688.25	9.08
688.28	4.08
688.31	0.08
688.339	-3.92
688.369	-8.92
688.399	2.08
688.428	8.08
688.458	12.08
688.488	2.08
688.517	8.08
688.547	7.08
688.576	40.08
688.606	2.08
688.636	-1.92
688.665	22.08
688.695	11.08
688.725	20.08
688.754	19.08
688.784	9.08
688.813	15.08
688.843	15.08
688.873	16.08
688.902	6.08
688.932	-2.92
688.961	18.08
688.991	31.08
689.02	21.08
689.05	11.08
689.08	28.08
689.109	25.08
689.139	10.08
689.168	14.08
689.198	17.08
689.227	2.08
689.257	0.08
689.287	19.08
689.316	15.08
689.346	2.08
689.375	-1.92
689.405	14.08
689.434	0.08
689.464	14.08
689.493	25.08
689.523	12.08
689.552	6.08
689.582	14.08
689.611	-1.92
689.641	16.08
689.67	19.08
689.7	26.08
689.73	10.08
689.759	12.08
689.789	15.08
689.818	-9.92
689.848	7.08
689.877	23.08
689.906	4.08
689.936	8.08
689.965	27.08
689.995	20.08
690.024	15.08
690.054	8.08
690.083	5.08
690.113	10.08
690.142	9.08
690.172	6.08
690.201	5.08
690.231	-1.92
690.26	14.08
690.29	24.08
690.319	15.08
690.348	14.08
690.378	13.08
690.407	14.08
690.437	6.08
690.466	-4.92
690.496	3.08
690.525	17.08
690.555	11.08
690.584	14.08
690.613	1.08
690.643	12.08
690.672	14.08
690.702	12.08
690.731	5.08
690.76	3.08
690.79	5.08
690.819	4.08
690.849	4.08
690.878	8.08
690.907	20.08
690.937	16.08
690.966	25.08
690.996	15.08
691.025	6.08
691.054	-0.92
691.084	-2.92
691.113	7.08
691.142	12.08
691.172	17.08
691.201	21.08
691.23	10.08
691.26	22.08
691.289	15.08
691.319	0.08
691.348	3.08
691.377	22.08
691.407	0.08
691.436	15.08
691.465	15.08
691.495	-2.92
691.524	11.08
691.553	2.08
691.583	4.08
691.612	27.08
691.641	6.08
691.67	6.08
691.7	15.08
691.729	3.08
691.758	20.08
691.788	15.08
691.817	14.08
691.846	16.08
691.876	11.08
691.905	7.08
691.934	8.08
691.963	26.08
691.993	2.08
692.022	-0.92
692.051	-9.92
692.081	5.08
692.11	18.08
692.139	2.08
692.168	15.08
692.198	20.08
692.227	26.08
692.256	18.08
692.285	26.08
692.315	17.08
692.344	11.08
692.373	7.08
692.402	0.08
692.432	11.08
692.461	6.08
692.49	-2.92
692.519	-0.92
692.548	9.08
692.578	26.08
692.607	-1.92
692.636	2.08
692.665	19.08
692.694	15.08
692.724	18.08
692.753	22.08
692.782	15.08
692.811	0.08
692.84	9.08
692.87	18.08
692.899	-0.92
692.928	-1.92
692.957	5.08
692.986	20.08
693.016	16.08
693.045	7.08
693.074	1.08
693.103	1.08
693.132	8.08
693.161	9.08
693.191	-2.92
693.22	-7.92
693.249	20.08
693.278	2.08
693.307	19.08
693.336	-5.92
693.365	1.08
693.395	6.08
693.424	12.08
693.453	22.08
693.482	8.08
693.511	22.08
693.54	28.08
693.569	13.08
693.598	-1.92
693.628	13.08
693.657	15.08
693.686	14.08
693.715	20.08
693.744	35.08
693.773	39.08
693.802	10.08
693.831	-0.92
693.86	16.08
693.889	4.08
693.919	16.08
693.948	6.08
693.977	7.08
694.006	2.08
694.035	8.08
694.064	1.08
694.093	14.08
694.122	9.08
694.151	5.08
694.18	11.08
694.209	29.08
694.238	19.08
694.267	23.08
694.296	8.08
694.325	4.08
694.354	26.08
694.383	6.08
694.412	12.08
694.441	9.08
694.471	7.08
694.5	-5.92
694.529	11.08
694.558	29.08
694.587	30.08
694.616	11.08
694.645	28.08
694.674	15.08
694.703	14.08
694.732	15.08
694.761	37.08
694.79	18.08
694.819	-4.92
694.848	22.08
694.877	27.08
694.906	34.08
694.935	14.08
694.963	33.08
694.992	7.08
695.021	15.08
695.05	11.08
695.079	23.08
695.108	7.08
695.137	18.08
695.166	10.08
695.195	-1.92
695.224	19.08
695.253	11.08
695.282	-3.92
695.311	20.08
695.34	10.08
695.369	9.08
695.398	6.08
695.427	38.08
695.456	11.08
695.485	20.08
695.513	6.08
695.542	4.08
695.571	9.08
695.6	23.08
695.629	18.08
695.658	15.08
695.687	16.08
695.716	14.08
695.745	25.08
695.774	4.08
695.802	-5.92
695.831	7.08
695.86	27.08
695.889	22.08
695.918	14.08
695.947	2.08
695.976	10.08
696.005	1.08
696.033	-0.92
696.062	18.08
696.091	13.08
696.12	12.08
696.149	18.08
696.178	-1.92
696.207	23.08
696.235	3.08
696.264	12.08
696.293	-5.92
696.322	16.08
696.351	34.08
696.38	3.08
696.408	18.08
696.437	8.08
696.466	11.08
696.495	46.08
696.524	24.08
696.553	18.08
696.581	29.08
696.61	5.08
696.639	5.08
696.668	16.08
696.697	17.08
696.725	17.08
696.754	12.08
696.783	-4.92
696.812	11.08
696.84	14.08
696.869	13.08
696.898	4.08
696.927	0.08
696.956	28.08
696.984	11.08
697.013	23.08
697.042	16.08
697.071	12.08
697.099	11.08
697.128	26.08
697.157	31.08
697.186	14.08
697.214	9.08
697.243	7.08
697.272	14.08
697.301	20.08
697.329	22.08
697.358	10.08
697.387	21.08
697.415	10.08
697.444	-1.92
697.473	8.08
697.502	4.08
697.53	18.08
697.559	13.08
697.588	12.08
697.616	8.08
697.645	-10.92
697.674	21.08
697.703	16.08
697.731	25.08
697.76	13.08
697.789	21.08
697.817	18.08
697.846	15.08
697.875	5.08
697.903	26.08
697.932	8.08
697.961	12.08
697.989	15.08
698.018	12.08
698.047	20.08
698.075	30.08
698.104	4.08
698.133	11.08
698.161	0.08
698.19	4.08
698.218	6.08
698.247	1.08
698.276	12.08
698.304	17.08
698.333	3.08
698.362	15.08
698.39	22.08
698.419	40.08
698.447	14.08
698.476	9.08
698.505	22.08
698.533	19.08
698.562	12.08
698.591	12.08
698.619	-1.92
698.648	12.08
698.676	-2.92
698.705	16.08
698.733	7.08
698.762	5.08
698.791	13.08
698.819	12.08
698.848	14.08
698.876	17.08
698.905	20.08
698.933	23.08
698.962	-2.92
698.991	6.08
699.019	23.08
699.048	10.08
699.076	16.08
699.105	-4.92
699.133	0.08
699.162	5.08
699.19	14.08
699.219	22.08
699.248	11.08
699.276	3.08
699.305	5.08
699.333	8.08
699.362	3.08
699.39	27.08
699.419	15.08
699.447	24.08
699.476	17.08
699.504	12.08
699.533	6.08
699.561	15.08
699.59	11.08
699.618	17.08
699.647	12.08
699.675	15.08
699.704	6.08
699.732	13.08
699.761	20.08
699.789	20.08
699.818	20.08
699.846	6.08
699.874	6.08
699.903	2.08
699.931	-0.92
699.96	0.08
699.988	-2.92
700.017	-1.92
700.045	-7.92
700.074	10.08
700.102	8.08
700.13	9.08
700.159	16.08
700.187	23.08
700.216	5.08
700.244	6.08
700.273	18.08
700.301	8.08
700.329	-7.92
700.358	17.08
700.386	-2.92
700.415	3.08
700.443	12.08
700.472	18.08
700.5	-0.92
700.528	19.08
700.557	10.08
700.585	11.08
700.614	11.08
700.642	24.08
700.67	11.08
700.699	26.08
700.727	2.08
700.755	19.08
700.784	6.08
700.812	15.08
700.841	33.08
700.869	0.08
700.897	-3.92
700.926	-0.92
700.954	16.08
700.982	14.08
701.011	5.08
701.039	5.08
701.067	1.08
701.096	5.08
701.124	4.08
701.152	10.08
701.181	14.08
701.209	-7.92
701.237	11.08
701.266	-11.92
701.294	-5.92
701.322	6.08
701.351	28.08
701.379	6.08
701.407	-14.92
701.435	15.08
701.464	23.08
701.492	25.08
701.52	2.08
701.549	14.08
701.577	-4.92
701.605	1.08
701.634	12.08
701.662	23.08
701.69	-1.92
701.718	1.08
701.747	18.08
701.775	20.08
701.803	14.08
701.831	16.08
701.86	2.08
701.888	14.08
701.916	13.08
701.944	13.08
701.973	6.08
702.001	-0.92
702.029	-0.92
702.057	2.08
702.086	-17.92
702.114	-3.92
702.142	4.08
702.17	3.08
702.199	20.08
702.227	20.08
702.255	15.08
702.283	3.08
702.311	21.08
702.34	-1.92
702.368	4.08
702.396	6.08
702.424	-1.92
702.452	9.08
702.481	1.08
702.509	3.08
702.537	24.08
702.565	15.08
702.593	-3.92
702.621	0.08
702.65	15.08
702.678	11.08
702.706	14.08
702.734	11.08
702.762	12.08
702.79	14.08
702.819	26.08
702.847	22.08
702.875	22.08
702.903	22.08
702.931	-0.92
702.959	3.08
702.988	2.08
703.016	-2.92
703.044	-0.92
703.072	8.08
703.1	2.08
703.128	9.08
703.156	19.08
703.184	-2.92
703.212	20.08
703.241	24.08
703.269	7.08
703.297	13.08
703.325	26.08
703.353	10.08
703.381	6.08
703.409	14.08
703.437	3.08
703.465	-1.92
703.493	0.08
703.522	17.08
703.55	19.08
703.578	23.08
703.606	-1.92
703.634	5.08
703.662	-4.92
703.69	4.08
703.718	11.08
703.746	38.08
703.774	14.08
703.802	23.08
703.83	8.08
703.858	6.08
703.886	2.08
703.914	5.08
703.942	22.08
703.97	18.08
703.998	13.08
704.027	22.08
704.055	18.08
704.083	1.08
704.111	2.08
704.139	10.08
704.167	7.08
704.195	4.08
704.223	0.08
704.251	15.08
704.279	12.08
704.307	11.08
704.335	-13.92
704.363	9.08
704.391	1.08
704.419	3.08
704.447	14.08
704.475	10.08
704.503	-8.92
704.531	9.08
704.558	0.08
704.586	20.08
704.614	-5.92
704.642	14.08
704.67	11.08
704.698	-0.92
704.726	7.08
704.754	7.08
704.782	-2.92
704.81	3.08
704.838	38.08
704.866	14.08
704.894	-6.92
704.922	6.08
704.95	10.08
704.978	15.08
705.006	8.08
705.034	9.08
705.061	-2.92
705.089	3.08
705.117	-1.92
705.145	15.08
705.173	4.08
705.201	8.08
705.229	20.08
705.257	0.08
705.285	2.08
705.313	11.08
705.34	9.08
705.368	1.08
705.396	7.08
705.424	20.08
705.452	10.08
705.48	22.08
705.508	-0.92
705.536	-5.92
705.563	4.08
705.591	18.08
705.619	15.08
705.647	4.08
705.675	11.08
705.703	11.08
705.731	6.08
705.758	10.08
705.786	4.08
705.814	27.08
705.842	-2.92
705.87	19.08
705.898	-0.92
705.925	-3.92
705.953	14.08
705.981	5.08
706.009	-3.92
706.037	3.08
706.065	10.08
706.092	9.08
706.12	-1.92
706.148	3.08
706.176	1.08
706.204	8.08
706.231	2.08
706.259	-3.92
706.287	-1.92
706.315	24.08
706.342	11.08
706.37	30.08
706.398	10.08
706.426	11.08
706.454	16.08
706.481	14.08
706.509	14.08
706.537	-0.92
706.565	4.08
706.592	17.08
706.62	11.08
706.648	15.08
706.676	2.08
706.703	19.08
706.731	4.08
706.759	1.08
706.787	2.08
706.814	5.08
706.842	5.08
706.87	2.08
706.897	9.08
706.925	-5.92
706.953	11.08
706.981	32.08
707.008	10.08
707.036	9.08
707.064	11.08
707.091	-17.92
707.119	2.08
707.147	6.08
707.174	7.08
707.202	0.08
707.23	-14.92
707.258	2.08
707.285	4.08
707.313	4.08
707.341	12.08
707.368	0.08
707.396	15.08
707.424	25.08
707.451	17.08
707.479	8.08
707.507	10.08
707.534	-1.92
707.562	2.08
707.59	12.08
707.617	2.08
707.645	6.08
707.672	4.08
707.7	18.08
707.728	15.08
707.755	10.08
707.783	-3.92
707.811	14.08
707.838	7.08
707.866	8.08
707.893	6.08
707.921	9.08
707.949	-7.92
707.976	19.08
708.004	11.08
708.031	11.08
708.059	-3.92
708.087	17.08
708.114	-0.92
708.142	-4.92
708.169	2.08
708.197	3.08
708.225	9.08
708.252	3.08
708.28	12.08
708.307	-1.92
708.335	17.08
708.362	13.08
708.39	-5.92
708.418	18.08
708.445	-6.92
708.473	-15.92
708.5	-11.92
708.528	13.08
708.555	16.08
708.583	7.08
708.61	8.08
708.638	13.08
708.665	4.08
708.693	0.08
708.72	8.08
708.748	-1.92
708.776	0.08
708.803	27.08
708.831	22.08
708.858	32.08
708.886	19.08
708.913	10.08
708.941	8.08
708.968	26.08
708.996	5.08
709.023	35.08
709.051	0.08
709.078	-1.92
709.105	4.08
709.133	11.08
709.16	3.08
709.188	21.08
709.215	16.08
709.243	2.08
709.27	9.08
709.298	2.08
709.325	-2.92
709.353	13.08
709.38	3.08
709.408	6.08
709.435	20.08
709.462	-8.92
709.49	3.08
709.517	7.08
709.545	-0.92
709.572	-12.92
709.6	-4.92
709.627	2.08
709.655	9.08
709.682	10.08
709.709	27.08
709.737	2.08
709.764	10.08
709.792	27.08
709.819	4.08
709.846	2.08
709.874	8.08
709.901	6.08
709.929	7.08
709.956	12.08
709.983	8.08
710.011	-5.92
710.038	7.08
710.066	5.08
710.093	18.08
710.12	14.08
710.148	2.08
710.175	-1.92
710.202	6.08
710.23	3.08
710.257	23.08
710.284	13.08
710.312	23.08
710.339	6.08
710.366	21.08
710.394	1.08
710.421	12.08
710.448	14.08
710.476	-0.92
710.503	10.08
710.53	13.08
710.558	22.08
710.585	27.08
710.612	2.08
710.64	1.08
710.667	7.08
710.694	2.08
710.722	12.08
710.749	7.08
710.776	-10.92
710.804	22.08
710.831	15.08
710.858	6.08
710.885	-3.92
710.913	-9.92
710.94	18.08
710.967	25.08
710.995	14.08
711.022	8.08
711.049	14.08
711.076	9.08
711.104	17.08
711.131	-11.92
711.158	4.08
711.185	11.08
711.213	-1.92
711.24	7.08
711.267	-2.92
711.294	4.08
711.322	22.08
711.349	6.08
711.376	-3.92
711.403	9.08
711.431	-5.92
711.458	2.08
711.485	7.08
711.512	3.08
711.54	18.08
711.567	8.08
711.594	3.08
711.621	-4.92
711.648	17.08
711.676	1.08
711.703	2.08
711.73	-0.92
711.757	4.08
711.784	12.08
711.812	12.08
711.839	1.08
711.866	15.08
711.893	-1.92
711.92	18.08
711.947	11.08
711.975	4.08
712.002	-4.92
712.029	5.08
712.056	10.08
712.083	0.08
712.11	5.08
712.138	12.08
712.165	15.08
712.192	5.08
712.219	2.08
712.246	-1.92
712.273	19.08
712.3	10.08
712.328	15.08
712.355	1.08
712.382	-2.92
712.409	11.08
712.436	4.08
712.463	30.08
712.49	22.08
712.517	20.08
712.544	14.08
712.572	10.08
712.599	19.08
712.626	15.08
712.653	7.08
712.68	-7.92
712.707	6.08
712.734	25.08
712.761	24.08
712.788	29.08
712.815	8.08
712.842	24.08
712.87	4.08
712.897	9.08
712.924	-1.92
712.951	14.08
712.978	19.08
713.005	15.08
713.032	37.08
713.059	17.08
713.086	-4.92
713.113	2.08
713.14	-8.92
713.167	5.08
713.194	25.08
713.221	18.08
713.248	22.08
713.275	25.08
713.302	2.08
713.329	8.08
713.356	10.08
713.383	6.08
713.41	15.08
713.437	7.08
713.464	6.08
713.491	22.08
713.518	10.08
713.545	9.08
713.572	10.08
713.599	11.08
713.626	17.08
713.653	20.08
713.68	-1.92
713.707	24.08
713.734	6.08
713.761	1.08
713.788	-12.92
713.815	9.08
713.842	3.08
713.869	19.08
713.896	4.08
713.923	7.08
713.95	12.08
713.977	-16.92
714.004	-0.92
714.031	-0.92
714.058	0.08
714.085	1.08
714.112	16.08
714.139	12.08
714.165	4.08
714.192	-5.92
714.219	15.08
714.246	7.08
714.273	5.08
714.3	9.08
714.327	5.08
714.354	13.08
714.381	8.08
714.408	-4.92
714.435	9.08
714.461	2.08
714.488	18.08
714.515	-11.92
714.542	6.08
714.569	13.08
714.596	-10.92
714.623	5.08
714.65	3.08
714.677	6.08
714.703	18.08
714.73	18.08
714.757	4.08
714.784	2.08
714.811	-1.92
714.838	1.08
714.865	12.08
714.891	14.08
714.918	2.08
714.945	-12.92
714.972	-5.92
714.999	18.08
715.026	6.08
715.052	19.08
715.079	7.08
715.106	4.08
715.133	29.08
715.16	2.08
715.187	11.08
715.213	13.08
715.24	10.08
715.267	8.08
715.294	7.08
715.321	9.08
715.347	8.08
715.374	6.08
715.401	-4.92
715.428	7.08
715.455	4.08
715.481	7.08
715.508	17.08
715.535	4.08
715.562	27.08
715.588	6.08
715.615	0.08
715.642	6.08
715.669	13.08
715.695	-7.92
715.722	1.08
715.749	11.08
715.776	11.08
715.802	18.08
715.829	10.08
715.856	-2.92
715.883	6.08
715.909	-0.92
715.936	24.08
715.963	9.08
715.99	-14.92
716.016	12.08
716.043	11.08
716.07	-5.92
716.096	4.08
716.123	11.08
716.15	12.08
716.177	21.08
716.203	24.08
716.23	14.08
716.257	7.08
716.283	13.08
716.31	14.08
716.337	3.08
716.363	-0.92
716.39	4.08
716.417	19.08
716.443	12.08
716.47	17.08
716.497	21.08
716.523	18.08
716.55	16.08
716.577	29.08
716.603	21.08
716.63	5.08
716.657	19.08
716.683	8.08
716.71	-1.92
716.737	0.08
716.763	8.08
716.79	10.08
716.817	19.08
716.843	5.08
716.87	-16.92
716.897	11.08
716.923	26.08
716.95	0.08
716.976	2.08
717.003	13.08
717.03	15.08
717.056	15.08
717.083	-2.92
717.109	14.08
717.136	15.08
717.163	-3.92
717.189	4.08
717.216	6.08
717.242	-1.92
717.269	-0.92
717.296	13.08
717.322	12.08
717.349	17.08
717.375	12.08
717.402	-5.92
717.428	3.08
717.455	23.08
717.481	22.08
717.508	6.08
717.535	10.08
717.561	25.08
717.588	14.08
717.614	10.08
717.641	9.08
717.667	1.08
717.694	2.08
717.72	10.08
717.747	5.08
717.773	1.08
717.8	0.08
717.826	19.08
717.853	4.08
717.88	11.08
717.906	10.08
717.933	16.08
717.959	17.08
717.986	16.08
718.012	15.08
718.039	22.08
718.065	27.08
718.092	5.08
718.118	-1.92
718.144	-0.92
718.171	22.08
718.197	20.08
718.224	7.08
718.25	7.08
718.277	31.08
718.303	13.08
718.33	8.08
718.356	12.08
718.383	8.08
718.409	6.08
718.436	17.08
718.462	16.08
718.489	15.08
718.515	21.08
718.541	20.08
718.568	11.08
718.594	16.08
718.621	14.08
718.647	-1.92
718.674	30.08
718.7	18.08
718.726	7.08
718.753	16.08
718.779	8.08
718.806	-14.92
718.832	-1.92
718.858	4.08
718.885	5.08
718.911	8.08
718.938	9.08
718.964	-7.92
718.99	5.08
719.017	20.08
719.043	9.08
719.07	22.08
719.096	-1.92
719.122	1.08
719.149	11.08
719.175	8.08
719.201	3.08
719.228	5.08
719.254	18.08
719.281	-2.92
719.307	-1.92
719.333	4.08
719.36	17.08
719.386	-3.92
719.412	8.08
719.439	-19.92
719.465	11.08
719.491	-2.92
719.518	2.08
719.544	17.08
719.57	14.08
719.597	1.08
719.623	3.08
719.649	25.08
719.675	11.08
719.702	14.08
719.728	35.08
719.754	-0.92
719.781	-0.92
719.807	8.08
719.833	7.08
719.86	-2.92
719.886	4.08
719.912	20.08
719.938	-1.92
719.965	7.08
719.991	17.08
720.017	19.08
720.044	11.08
720.07	11.08
720.096	23.08
720.122	22.08
720.149	5.08
720.175	21.08
720.201	-5.92
720.227	12.08
720.254	14.08
720.28	7.08
720.306	9.08
720.332	13.08
720.359	14.08
720.385	19.08
720.411	14.08
720.437	6.08
720.463	-0.92
720.49	18.08
720.516	0.08
720.542	-8.92
720.568	12.08
720.595	13.08
720.621	19.08
720.647	18.08
720.673	22.08
720.699	8.08
720.725	12.08
720.752	11.08
720.778	7.08
720.804	8.08
720.83	23.08
720.856	18.08
720.883	8.08
720.909	5.08
720.935	10.08
720.961	15.08
720.987	6.08
721.013	22.08
721.04	7.08
721.066	-3.92
721.092	23.08
721.118	16.08
721.144	13.08
721.17	-9.92
721.196	3.08
721.223	4.08
721.249	7.08
721.275	18.08
721.301	7.08
721.327	33.08
721.353	36.08
721.379	26.08
721.405	20.08
721.432	11.08
721.458	5.08
721.484	12.08
721.51	-0.92
721.536	5.08
721.562	15.08
721.588	18.08
721.614	12.08
721.64	12.08
721.666	-5.92
721.693	7.08
721.719	-1.92
721.745	12.08
721.771	6.08
721.797	15.08
721.823	3.08
721.849	26.08
721.875	17.08
721.901	14.08
721.927	6.08
721.953	36.08
721.979	22.08
722.005	25.08
722.031	0.08
722.057	10.08
722.083	22.08
722.109	21.08
722.135	11.08
722.161	3.08
722.187	-4.92
722.214	3.08
722.24	7.08
722.266	6.08
722.292	12.08
722.318	35.08
722.344	8.08
722.37	12.08
722.396	22.08
722.422	8.08
722.448	7.08
722.474	-2.92
722.5	22.08
722.526	19.08
722.552	6.08
722.578	11.08
722.603	26.08
722.629	-0.92
722.655	-4.92
722.681	-0.92
722.707	8.08
722.733	3.08
722.759	7.08
722.785	3.08
722.811	-1.92
722.837	18.08
722.863	17.08
722.889	15.08
722.915	3.08
722.941	14.08
722.967	2.08
722.993	16.08
723.019	17.08
723.045	7.08
723.071	12.08
723.097	5.08
723.122	7.08
723.148	3.08
723.174	23.08
723.2	3.08
723.226	18.08
723.252	5.08
723.278	20.08
723.304	-1.92
723.33	17.08
723.356	11.08
723.381	8.08
723.407	-2.92
723.433	31.08
723.459	13.08
723.485	-3.92
723.511	14.08
723.537	5.08
723.563	4.08
723.588	-4.92
723.614	21.08
723.64	14.08
723.666	20.08
723.692	33.08
723.718	7.08
723.744	1.08
723.769	12.08
723.795	15.08
723.821	20.08
723.847	19.08
723.873	6.08
723.899	8.08
723.924	2.08
723.95	11.08
723.976	1.08
724.002	11.08
724.028	5.08
724.053	7.08
724.079	10.08
724.105	12.08
724.131	8.08
724.157	11.08
724.182	5.08
724.208	8.08
724.234	14.08
724.26	13.08
724.286	19.08
724.311	9.08
724.337	-1.92
724.363	2.08
724.389	14.08
724.415	15.08
724.44	17.08
724.466	10.08
724.492	8.08
724.518	-4.92
724.543	11.08
724.569	22.08
724.595	11.08
724.621	3.08
724.646	-0.92
724.672	-9.92
724.698	12.08
724.723	18.08
724.749	7.08
724.775	20.08
724.801	25.08
724.826	13.08
724.852	4.08
724.878	-1.92
724.904	-10.92
724.929	2.08
724.955	-2.92
724.981	10.08
725.006	10.08
725.032	8.08
725.058	15.08
725.083	4.08
725.109	12.08
725.135	5.08
725.161	9.08
725.186	11.08
725.212	0.08
725.238	10.08
725.263	12.08
725.289	-0.92
725.315	-4.92
725.34	4.08
725.366	15.08
725.392	10.08
725.417	7.08
725.443	15.08
725.468	1.08
725.494	17.08
725.52	25.08
725.545	-5.92
725.571	-15.92
725.597	-2.92
725.622	4.08
725.648	-4.92
725.674	9.08
725.699	-0.92
725.725	11.08
725.75	11.08
725.776	4.08
725.802	-3.92
725.827	15.08
725.853	10.08
725.878	18.08
725.904	5.08
725.93	11.08
725.955	7.08
725.981	-3.92
726.006	9.08
726.032	11.08
726.057	3.08
726.083	-5.92
726.109	16.08
726.134	16.08
726.16	6.08
726.185	8.08
726.211	-16.92
726.236	14.08
726.262	23.08
726.288	24.08
726.313	24.08
726.339	27.08
726.364	10.08
726.39	15.08
726.415	2.08
726.441	8.08
726.466	1.08
726.492	16.08
726.517	19.08
726.543	4.08
726.568	-2.92
726.594	14.08
726.619	11.08
726.645	15.08
726.67	10.08
726.696	1.08
726.721	4.08
726.747	10.08
726.772	2.08
726.798	23.08
726.823	20.08
726.849	-3.92
726.874	15.08
726.9	20.08
726.925	14.08
726.951	3.08
726.976	7.08
727.002	7.08
727.027	6.08
727.053	32.08
727.078	7.08
727.104	3.08
727.129	-18.92
727.155	-0.92
727.18	-0.92
727.205	7.08
727.231	11.08
727.256	13.08
727.282	16.08
727.307	13.08
727.333	13.08
727.358	14.08
727.383	-1.92
727.409	14.08
727.434	17.08
727.46	6.08
727.485	8.08
727.511	25.08
727.536	8.08
727.561	4.08
727.587	12.08
727.612	-3.92
727.637	11.08
727.663	-10.92
727.688	37.08
727.714	4.08
727.739	8.08
727.764	14.08
727.79	9.08
727.815	19.08
727.841	15.08
727.866	16.08
727.891	10.08
727.917	3.08
727.942	-5.92
727.967	-1.92
727.993	-7.92
728.018	5.08
728.043	7.08
728.069	23.08
728.094	19.08
728.119	11.08
728.145	25.08
728.17	6.08
728.195	7.08
728.221	23.08
728.246	14.08
728.271	8.08
728.297	5.08
728.322	0.08
728.347	-0.92
728.373	24.08
728.398	9.08
728.423	1.08
728.448	11.08
728.474	10.08
728.499	12.08
728.524	3.08
728.55	-8.92
728.575	0.08
728.6	3.08
728.625	3.08
728.651	22.08
728.676	6.08
728.701	-4.92
728.727	6.08
728.752	-8.92
728.777	-7.92
728.802	2.08
728.828	15.08
728.853	7.08
728.878	21.08
728.903	-6.92
728.929	-9.92
728.954	6.08
728.979	16.08
729.004	6.08
729.03	-14.92
729.055	23.08
729.08	0.08
729.105	2.08
729.13	10.08
729.156	10.08
729.181	6.08
729.206	-2.92
729.231	0.08
729.256	12.08
729.282	19.08
729.307	7.08
729.332	-14.92
729.357	4.08
729.382	5.08
729.408	17.08
729.433	11.08
729.458	19.08
729.483	16.08
729.508	31.08
729.533	8.08
729.559	8.08
729.584	-5.92
729.609	26.08
729.634	35.08
729.659	19.08
729.684	2.08
729.71	27.08
729.735	17.08
729.76	0.08
729.785	20.08
729.81	25.08
729.835	3.08
729.86	7.08
729.886	24.08
729.911	12.08
729.936	5.08
729.961	16.08
729.986	-4.92
730.011	13.08
730.036	5.08
730.061	10.08
730.086	6.08
730.112	10.08
730.137	31.08
730.162	23.08
730.187	-2.92
730.212	21.08
730.237	8.08
730.262	2.08
730.287	4.08
730.312	25.08
730.337	6.08
730.362	25.08
730.387	13.08
730.413	4.08
730.438	10.08
730.463	10.08
730.488	8.08
730.513	3.08
730.538	7.08
730.563	20.08
730.588	10.08
730.613	8.08
730.638	10.08
730.663	-4.92
730.688	24.08
730.713	22.08
730.738	13.08
730.763	4.08
730.788	-7.92
730.813	7.08
730.838	-9.92
730.863	10.08
730.888	2.08
730.913	-0.92
730.938	0.08
730.963	1.08
730.988	7.08
731.013	30.08
731.038	-1.92
731.063	17.08
731.088	23.08
731.113	2.08
731.138	13.08
731.163	7.08
731.188	11.08
731.213	19.08
731.238	31.08
731.263	5.08
731.288	4.08
731.313	15.08
731.338	3.08
731.363	2.08
731.388	8.08
731.413	23.08
731.438	22.08
731.463	12.08
731.487	16.08
731.512	14.08
731.537	-3.92
731.562	-10.92
731.587	22.08
731.612	7.08
731.637	-2.92
731.662	5.08
731.687	10.08
731.712	-8.92
731.737	24.08
731.762	5.08
731.786	13.08
731.811	20.08
731.836	4.08
731.861	-3.92
731.886	3.08
731.911	22.08
731.936	19.08
731.961	-6.92
731.986	-8.92
732.01	3.08
732.035	4.08
732.06	2.08
732.085	0.08
732.11	5.08
732.135	-11.92
732.16	27.08
732.184	3.08
732.209	-1.92
732.234	2.08
732.259	-5.92
732.284	16.08
732.309	4.08
732.334	4.08
732.358	-8.92
732.383	-12.92
732.408	2.08
732.433	8.08
732.458	12.08
732.482	-1.92
732.507	-1.92
732.532	8.08
732.557	12.08
732.582	15.08
732.607	23.08
732.631	8.08
732.656	8.08
732.681	10.08
732.706	4.08
732.73	26.08
732.755	24.08
732.78	8.08
732.805	15.08
732.83	5.08
732.854	8.08
732.879	2.08
732.904	10.08
732.929	5.08
732.953	14.08
732.978	3.08
733.003	-7.92
733.028	-8.92
733.052	23.08
733.077	10.08
733.102	31.08
733.127	-2.92
733.151	6.08
733.176	5.08
733.201	0.08
733.226	-0.92
733.25	11.08
733.275	21.08
733.3	-0.92
733.324	17.08
733.349	8.08
733.374	31.08
733.399	19.08
733.423	20.08
733.448	4.08
733.473	2.08
733.497	4.08
733.522	-10.92
733.547	19.08
733.571	23.08
733.596	15.08
733.621	6.08
733.646	18.08
733.67	19.08
733.695	19.08
733.72	8.08
733.744	19.08
733.769	6.08
733.794	23.08
733.818	1.08
733.843	0.08
733.867	-8.92
733.892	-8.92
733.917	-1.92
733.941	16.08
733.966	0.08
733.991	-10.92
734.015	31.08
734.04	12.08
734.065	4.08
734.089	22.08
734.114	-7.92
734.138	11.08
734.163	11.08
734.188	11.08
734.212	13.08
734.237	19.08
734.261	10.08
734.286	12.08
734.311	-3.92
734.335	0.08
734.36	17.08
734.384	14.08
734.409	12.08
734.434	10.08
734.458	1.08
734.483	4.08
734.507	0.08
734.532	6.08
734.556	9.08
734.581	7.08
734.606	4.08
734.63	7.08
734.655	8.08
734.679	18.08
734.704	11.08
734.728	5.08
734.753	-0.92
734.777	16.08
734.802	9.08
734.826	15.08
734.851	19.08
734.876	17.08
734.9	21.08
734.925	15.08
734.949	14.08
734.974	4.08
734.998	20.08
735.023	-14.92
735.047	1.08
735.072	4.08
735.096	5.08
735.121	7.08
735.145	15.08
735.17	13.08
735.194	3.08
735.219	11.08
735.243	7.08
735.268	11.08
735.292	20.08
735.317	5.08
735.341	6.08
735.365	-0.92
735.39	19.08
735.414	20.08
735.439	4.08
735.463	7.08
735.488	5.08
735.512	3.08
735.537	5.08
735.561	6.08
735.586	10.08
735.61	17.08
735.634	3.08
735.659	19.08
735.683	26.08
735.708	-3.92
735.732	11.08
735.757	8.08
735.781	19.08
735.805	26.08
735.83	-1.92
735.854	12.08
735.879	11.08
735.903	21.08
735.927	3.08
735.952	24.08
735.976	-4.92
736.001	8.08
736.025	2.08
736.049	7.08
736.074	5.08
736.098	2.08
736.123	10.08
736.147	-9.92
736.171	5.08
736.196	21.08
736.22	-2.92
736.244	5.08
736.269	4.08
736.293	-9.92
736.317	13.08
736.342	18.08
736.366	11.08
736.39	23.08
736.415	22.08
736.439	11.08
736.463	14.08
736.488	16.08
736.512	15.08
736.536	2.08
736.561	34.08
736.585	2.08
736.609	10.08
736.634	0.08
736.658	7.08
736.682	-7.92
736.707	6.08
736.731	0.08
736.755	-0.92
736.78	24.08
736.804	22.08
736.828	15.08
736.852	5.08
736.877	9.08
736.901	27.08
736.925	-1.92
736.949	9.08
736.974	5.08
736.998	4.08
737.022	12.08
737.047	5.08
737.071	-5.92
737.095	18.08
737.119	33.08
737.144	23.08
737.168	19.08
737.192	3.08
737.216	20.08
737.241	0.08
737.265	13.08
737.289	0.08
737.313	22.08
737.337	19.08
737.362	7.08
737.386	18.08
737.41	14.08
737.434	15.08
737.459	8.08
737.483	7.08
737.507	13.08
737.531	29.08
737.555	16.08
737.58	19.08
737.604	24.08
737.628	-8.92
737.652	11.08
737.676	14.08
737.701	1.08
737.725	8.08
737.749	10.08
737.773	11.08
737.797	0.08
737.821	6.08
737.846	10.08
737.87	26.08
737.894	10.08
737.918	-0.92
737.942	6.08
737.966	10.08
737.99	8.08
738.015	14.08
738.039	10.08
738.063	14.08
738.087	16.08
738.111	1.08
738.135	14.08
738.159	-0.92
738.184	-7.92
738.208	-0.92
738.232	8.08
738.256	26.08
738.28	11.08
738.304	19.08
738.328	11.08
738.352	10.08
738.376	4.08
738.4	14.08
738.425	18.08
738.449	8.08
738.473	12.08
738.497	22.08
738.521	4.08
738.545	5.08
738.569	-0.92
738.593	4.08
738.617	18.08
738.641	4.08
738.665	6.08
738.689	19.08
738.713	5.08
738.737	20.08
738.762	13.08
738.786	7.08
738.81	2.08
738.834	18.08
738.858	8.08
738.882	0.08
738.906	3.08
738.93	6.08
738.954	21.08
738.978	19.08
739.002	10.08
739.026	14.08
739.05	18.08
739.074	-1.92
739.098	22.08
739.122	31.08
739.146	20.08
739.17	15.08
739.194	10.08
739.218	8.08
739.242	0.08
739.266	-1.92
739.29	-6.92
739.314	8.08
739.338	15.08
739.362	8.08
739.386	4.08
739.41	8.08
739.434	9.08
739.458	15.08
739.482	6.08
739.506	16.08
739.53	-8.92
739.554	13.08
739.577	14.08
739.601	19.08
739.625	-9.92
739.649	15.08
739.673	11.08
739.697	19.08
739.721	10.08
739.745	8.08
739.769	14.08
739.793	11.08
739.817	10.08
739.841	13.08
739.865	9.08
739.889	0.08
739.912	13.08
739.936	8.08
739.96	10.08
739.984	18.08
740.008	-6.92
740.032	-6.92
740.056	-0.92
740.08	7.08
740.104	5.08
740.127	8.08
740.151	11.08
740.175	20.08
740.199	11.08
740.223	45.08
740.247	28.08
740.271	14.08
740.295	13.08
740.318	-8.92
740.342	8.08
740.366	22.08
740.39	35.08
740.414	7.08
740.438	-14.92
740.461	21.08
740.485	16.08
740.509	-2.92
740.533	9.08
740.557	-3.92
740.581	15.08
740.604	-0.92
740.628	20.08
740.652	16.08
740.676	4.08
740.7	11.08
740.723	9.08
740.747	-2.92
740.771	2.08
740.795	3.08
740.819	10.08
740.842	-5.92
740.866	10.08
740.89	-0.92
740.914	2.08
740.938	0.08
740.961	20.08
740.985	8.08
741.009	11.08
741.033	16.08
741.056	13.08
741.08	2.08
741.104	4.08
741.128	-5.92
741.151	20.08
741.175	12.08
741.199	2.08
741.223	10.08
741.246	-1.92
741.27	8.08
741.294	14.08
741.318	-2.92
741.341	10.08
741.365	7.08
741.389	-5.92
741.413	13.08
741.436	13.08
741.46	13.08
741.484	16.08
741.507	4.08
741.531	19.08
741.555	28.08
741.579	12.08
741.602	6.08
741.626	25.08
741.65	16.08
741.673	15.08
741.697	16.08
741.721	10.08
741.744	-12.92
741.768	15.08
741.792	16.08
741.815	11.08
741.839	15.08
741.863	38.08
741.886	25.08
741.91	27.08
741.934	11.08
741.957	1.08
741.981	7.08
742.005	6.08
742.028	-10.92
742.052	2.08
742.075	9.08
742.099	20.08
742.123	4.08
742.146	15.08
742.17	13.08
742.194	12.08
742.217	11.08
742.241	4.08
742.264	16.08
742.288	19.08
742.312	23.08
742.335	17.08
742.359	28.08
742.382	10.08
742.406	17.08
742.43	15.08
742.453	12.08
742.477	-7.92
742.5	4.08
742.524	4.08
742.548	-9.92
742.571	3.08
742.595	14.08
742.618	-0.92
742.642	8.08
742.665	19.08
742.689	6.08
742.712	15.08
742.736	10.08
742.76	13.08
742.783	-5.92
742.807	21.08
742.83	23.08
742.854	-5.92
742.877	10.08
742.901	-0.92
742.924	-1.92
742.948	14.08
742.971	3.08
742.995	6.08
743.018	-11.92
743.042	8.08
743.065	-9.92
743.089	-1.92
743.112	14.08
743.136	11.08
743.159	13.08
743.183	5.08
743.206	3.08
743.23	0.08
743.253	6.08
743.277	19.08
743.3	-12.92
743.324	10.08
743.347	7.08
743.371	23.08
743.394	22.08
743.418	24.08
743.441	25.08
743.465	12.08
743.488	26.08
743.512	3.08
743.535	3.08
743.558	4.08
743.582	10.08
743.605	15.08
743.629	6.08
743.652	29.08
743.676	-1.92
743.699	10.08
743.723	6.08
743.746	8.08
743.769	12.08
743.793	21.08
743.816	3.08
743.84	16.08
743.863	-15.92
743.886	-5.92
743.91	19.08
743.933	29.08
743.957	19.08
743.98	8.08
744.003	14.08
744.027	10.08
744.05	15.08
744.074	6.08
744.097	5.08
744.12	-3.92
744.144	-0.92
744.167	6.08
744.19	2.08
744.214	-8.92
744.237	4.08
744.26	14.08
744.284	0.08
744.307	-2.92
744.331	20.08
744.354	1.08
744.377	7.08
744.401	11.08
744.424	5.08
744.447	-0.92
744.471	-0.92
