Data from HighRes_H2D2_15_04_11_07_2024_HR4C61891__52__15-05-39-643.txt Node

Date: Thu Nov 07 15:05:39 EST 2024
User: crc00042
Spectrometer: HR4C6189
Trigger mode: 4
Integration Time (sec): 1.000000E-1
Scans to average: 1
Electric dark correction enabled: true
Nonlinearity correction enabled: false
Boxcar width: 0
XAxis mode: Wavelengths
Number of Pixels in Spectrum: 3648
>>>>>Begin Spectral Data<<<<<
639.567	-103.31
639.602	-103.31
639.636	-103.31
639.67	-47.31
639.704	-11.31
639.738	6.69
639.773	13.69
639.807	-25.31
639.841	-1.31
639.875	8.69
639.909	1.69
639.943	-16.31
639.978	5.69
640.012	6.69
640.046	10.69
640.08	8.69
640.114	-2.31
640.148	-17.31
640.182	0.69
640.217	0.69
640.251	14.69
640.285	20.69
640.319	0.69
640.353	-3.31
640.387	2.69
640.421	-1.31
640.455	6.69
640.49	-0.31
640.524	6.69
640.558	2.69
640.592	-4.31
640.626	0.69
640.66	3.69
640.694	-5.31
640.728	1.69
640.762	4.69
640.796	20.69
640.83	28.69
640.865	-2.31
640.899	3.69
640.933	3.69
640.967	3.69
641.001	5.69
641.035	4.69
641.069	-3.31
641.103	4.69
641.137	5.69
641.171	-5.31
641.205	12.69
641.239	11.69
641.273	10.69
641.307	16.69
641.341	5.69
641.375	1.69
641.409	-14.31
641.443	7.69
641.477	7.69
641.511	9.69
641.545	4.69
641.579	-2.31
641.614	3.69
641.648	19.69
641.682	1.69
641.716	4.69
641.75	3.69
641.784	-5.31
641.818	8.69
641.852	1.69
641.886	1.69
641.919	23.69
641.953	6.69
641.987	-22.31
642.021	14.69
642.055	17.69
642.089	4.69
642.123	-4.31
642.157	-18.31
642.191	6.69
642.225	8.69
642.259	-2.31
642.293	8.69
642.327	-5.31
642.361	-6.31
642.395	11.69
642.429	15.69
642.463	-0.31
642.497	15.69
642.531	-6.31
642.565	-8.31
642.599	12.69
642.633	0.69
642.666	9.69
642.7	13.69
642.734	11.69
642.768	1.69
642.802	11.69
642.836	15.69
642.87	23.69
642.904	14.69
642.938	3.69
642.972	-2.31
643.005	11.69
643.039	19.69
643.073	6.69
643.107	6.69
643.141	-9.31
643.175	4.69
643.209	3.69
643.243	14.69
643.276	6.69
643.31	-7.31
643.344	-9.31
643.378	-9.31
643.412	9.69
643.446	6.69
643.48	4.69
643.513	3.69
643.547	2.69
643.581	-2.31
643.615	19.69
643.649	8.69
643.683	6.69
643.716	-7.31
643.75	-1.31
643.784	-14.31
643.818	-8.31
643.852	-9.31
643.886	0.69
643.919	0.69
643.953	-23.31
643.987	-6.31
644.021	18.69
644.055	8.69
644.088	1.69
644.122	-4.31
644.156	-4.31
644.19	18.69
644.224	-14.31
644.257	18.69
644.291	2.69
644.325	4.69
644.359	4.69
644.392	16.69
644.426	12.69
644.46	7.69
644.494	9.69
644.527	0.69
644.561	-4.31
644.595	0.69
644.629	-8.31
644.662	-12.31
644.696	10.69
644.73	6.69
644.764	16.69
644.797	-5.31
644.831	-0.31
644.865	-9.31
644.899	1.69
644.932	17.69
644.966	-0.31
645	14.69
645.033	20.69
645.067	7.69
645.101	12.69
645.135	-5.31
645.168	0.69
645.202	-8.31
645.236	-19.31
645.269	10.69
645.303	-7.31
645.337	-11.31
645.37	-1.31
645.404	15.69
645.438	20.69
645.471	-3.31
645.505	7.69
645.539	0.69
645.572	-15.31
645.606	1.69
645.64	13.69
645.673	17.69
645.707	25.69
645.741	8.69
645.774	-20.31
645.808	7.69
645.842	-1.31
645.875	1.69
645.909	-5.31
645.943	-11.31
645.976	0.69
646.01	2.69
646.043	2.69
646.077	2.69
646.111	3.69
646.144	4.69
646.178	23.69
646.212	-15.31
646.245	5.69
646.279	13.69
646.312	-0.31
646.346	8.69
646.38	6.69
646.413	12.69
646.447	-5.31
646.48	13.69
646.514	10.69
646.547	-6.31
646.581	2.69
646.615	-6.31
646.648	-17.31
646.682	0.69
646.715	8.69
646.749	15.69
646.782	-4.31
646.816	-4.31
646.85	20.69
646.883	-0.31
646.917	10.69
646.95	2.69
646.984	4.69
647.017	2.69
647.051	24.69
647.084	1.69
647.118	-5.31
647.151	17.69
647.185	6.69
647.218	-6.31
647.252	11.69
647.285	-9.31
647.319	-14.31
647.353	1.69
647.386	34.69
647.42	10.69
647.453	-1.31
647.487	-4.31
647.52	7.69
647.553	4.69
647.587	-7.31
647.62	5.69
647.654	-0.31
647.687	10.69
647.721	0.69
647.754	-1.31
647.788	0.69
647.821	-12.31
647.855	7.69
647.888	11.69
647.922	15.69
647.955	-0.31
647.989	6.69
648.022	4.69
648.055	11.69
648.089	2.69
648.122	26.69
648.156	9.69
648.189	2.69
648.223	2.69
648.256	16.69
648.29	-5.31
648.323	-2.31
648.356	12.69
648.39	3.69
648.423	-3.31
648.457	11.69
648.49	12.69
648.523	5.69
648.557	0.69
648.59	-3.31
648.624	-2.31
648.657	-4.31
648.69	10.69
648.724	14.69
648.757	23.69
648.791	17.69
648.824	4.69
648.857	11.69
648.891	25.69
648.924	13.69
648.957	21.69
648.991	-13.31
649.024	20.69
649.057	-1.31
649.091	10.69
649.124	7.69
649.158	18.69
649.191	25.69
649.224	9.69
649.258	17.69
649.291	12.69
649.324	6.69
649.358	-2.31
649.391	-0.31
649.424	16.69
649.458	-2.31
649.491	10.69
649.524	-6.31
649.557	-7.31
649.591	-20.31
649.624	10.69
649.657	-2.31
649.691	-2.31
649.724	1.69
649.757	15.69
649.791	0.69
649.824	13.69
649.857	24.69
649.89	4.69
649.924	-18.31
649.957	-10.31
649.99	-7.31
650.023	-4.31
650.057	-0.31
650.09	15.69
650.123	0.69
650.157	8.69
650.19	18.69
650.223	-24.31
650.256	-5.31
650.29	3.69
650.323	7.69
650.356	24.69
650.389	4.69
650.423	-0.31
650.456	7.69
650.489	-0.31
650.522	23.69
650.555	16.69
650.589	10.69
650.622	11.69
650.655	10.69
650.688	13.69
650.721	3.69
650.755	3.69
650.788	12.69
650.821	-3.31
650.854	10.69
650.887	-1.31
650.921	0.69
650.954	-19.31
650.987	-1.31
651.02	5.69
651.053	-18.31
651.087	-9.31
651.12	23.69
651.153	12.69
651.186	10.69
651.219	-3.31
651.252	8.69
651.286	13.69
651.319	1.69
651.352	11.69
651.385	-10.31
651.418	4.69
651.451	17.69
651.484	12.69
651.518	-3.31
651.551	19.69
651.584	4.69
651.617	18.69
651.65	-0.31
651.683	2.69
651.716	-3.31
651.749	-16.31
651.783	-10.31
651.816	-4.31
651.849	3.69
651.882	14.69
651.915	10.69
651.948	11.69
651.981	1.69
652.014	-6.31
652.047	-15.31
652.08	2.69
652.114	2.69
652.147	-0.31
652.18	28.69
652.213	32.69
652.246	-10.31
652.279	-13.31
652.312	16.69
652.345	16.69
652.378	16.69
652.411	18.69
652.444	17.69
652.477	0.69
652.51	9.69
652.543	-3.31
652.576	6.69
652.609	-4.31
652.642	2.69
652.675	12.69
652.709	-2.31
652.742	19.69
652.775	6.69
652.808	2.69
652.841	-1.31
652.874	4.69
652.907	5.69
652.94	2.69
652.973	-14.31
653.006	-5.31
653.039	4.69
653.072	0.69
653.105	-0.31
653.138	-3.31
653.171	1.69
653.204	-1.31
653.237	0.69
653.27	-13.31
653.303	-3.31
653.336	16.69
653.368	5.69
653.401	9.69
653.434	11.69
653.467	16.69
653.5	-1.31
653.533	-8.31
653.566	-2.31
653.599	-3.31
653.632	-4.31
653.665	-2.31
653.698	-27.31
653.731	-6.31
653.764	2.69
653.797	-2.31
653.83	8.69
653.863	-3.31
653.896	8.69
653.929	14.69
653.961	3.69
653.994	-3.31
654.027	-12.31
654.06	4.69
654.093	5.69
654.126	-5.31
654.159	-7.31
654.192	10.69
654.225	-8.31
654.258	18.69
654.29	-0.31
654.323	10.69
654.356	-7.31
654.389	5.69
654.422	-6.31
654.455	1.69
654.488	6.69
654.521	-24.31
654.553	-6.31
654.586	6.69
654.619	-3.31
654.652	-10.31
654.685	10.69
654.718	-2.31
654.751	9.69
654.783	-2.31
654.816	16.69
654.849	13.69
654.882	-18.31
654.915	-18.31
654.948	6.69
654.98	-9.31
655.013	-16.31
655.046	0.69
655.079	-0.31
655.112	16.69
655.144	-0.31
655.177	-2.31
655.21	11.69
655.243	19.69
655.276	4.69
655.308	-5.31
655.341	-16.31
655.374	13.69
655.407	1.69
655.44	-5.31
655.472	24.69
655.505	13.69
655.538	-11.31
655.571	8.69
655.603	1.69
655.636	7.69
655.669	-0.31
655.702	2.69
655.734	-13.31
655.767	-7.31
655.8	21.69
655.833	7.69
655.865	11.69
655.898	18.69
655.931	30.69
655.964	21.69
655.996	12.69
656.029	17.69
656.062	24.69
656.095	44.69
656.127	69.69
656.16	212.69
656.193	645.69
656.225	962.69
656.258	537.69
656.291	207.69
656.324	174.69
656.356	372.69
656.389	788.69
656.422	662.69
656.454	230.69
656.487	82.69
656.52	38.69
656.552	26.69
656.585	7.69
656.618	-2.31
656.65	20.69
656.683	7.69
656.716	7.69
656.748	11.69
656.781	4.69
656.814	-11.31
656.846	10.69
656.879	11.69
656.912	5.69
656.944	-1.31
656.977	-3.31
657.01	-0.31
657.042	6.69
657.075	1.69
657.108	5.69
657.14	3.69
657.173	19.69
657.205	18.69
657.238	-2.31
657.271	12.69
657.303	-9.31
657.336	4.69
657.369	12.69
657.401	18.69
657.434	-4.31
657.466	2.69
657.499	17.69
657.532	0.69
657.564	-13.31
657.597	-1.31
657.629	16.69
657.662	6.69
657.694	8.69
657.727	-9.31
657.76	7.69
657.792	0.69
657.825	-2.31
657.857	-8.31
657.89	-2.31
657.922	13.69
657.955	-17.31
657.987	-6.31
658.02	6.69
658.053	15.69
658.085	1.69
658.118	8.69
658.15	3.69
658.183	33.69
658.215	4.69
658.248	-14.31
658.28	-3.31
658.313	15.69
658.345	15.69
658.378	8.69
658.41	19.69
658.443	3.69
658.475	11.69
658.508	1.69
658.54	8.69
658.573	-14.31
658.605	5.69
658.638	6.69
658.67	12.69
658.703	2.69
658.735	-0.31
658.768	-5.31
658.8	0.69
658.833	15.69
658.865	6.69
658.898	20.69
658.93	10.69
658.963	2.69
658.995	-19.31
659.028	13.69
659.06	-8.31
659.092	-15.31
659.125	7.69
659.157	6.69
659.19	-18.31
659.222	17.69
659.255	11.69
659.287	1.69
659.32	11.69
659.352	-2.31
659.384	11.69
659.417	9.69
659.449	6.69
659.482	8.69
659.514	-3.31
659.546	9.69
659.579	-5.31
659.611	10.69
659.644	12.69
659.676	-9.31
659.708	-11.31
659.741	-9.31
659.773	4.69
659.806	7.69
659.838	11.69
659.87	2.69
659.903	-9.31
659.935	8.69
659.967	7.69
660	3.69
660.032	-5.31
660.065	9.69
660.097	-4.31
660.129	0.69
660.162	-4.31
660.194	0.69
660.226	16.69
660.259	11.69
660.291	9.69
660.323	8.69
660.356	-1.31
660.388	-6.31
660.42	4.69
660.453	3.69
660.485	-0.31
660.517	1.69
660.55	24.69
660.582	2.69
660.614	8.69
660.647	-1.31
660.679	-24.31
660.711	2.69
660.743	-12.31
660.776	0.69
660.808	-5.31
660.84	-0.31
660.873	6.69
660.905	9.69
660.937	13.69
660.969	14.69
661.002	-5.31
661.034	13.69
661.066	5.69
661.099	4.69
661.131	15.69
661.163	-3.31
661.195	6.69
661.228	25.69
661.26	-16.31
661.292	0.69
661.324	-5.31
661.357	7.69
661.389	18.69
661.421	9.69
661.453	0.69
661.485	14.69
661.518	2.69
661.55	8.69
661.582	-19.31
661.614	-4.31
661.647	11.69
661.679	13.69
661.711	12.69
661.743	-6.31
661.775	7.69
661.808	2.69
661.84	1.69
661.872	16.69
661.904	-5.31
661.936	-12.31
661.969	-9.31
662.001	2.69
662.033	-7.31
662.065	-12.31
662.097	18.69
662.129	17.69
662.162	-13.31
662.194	4.69
662.226	6.69
662.258	19.69
662.29	-6.31
662.322	-10.31
662.355	0.69
662.387	18.69
662.419	17.69
662.451	13.69
662.483	23.69
662.515	7.69
662.547	1.69
662.58	-10.31
662.612	-8.31
662.644	-6.31
662.676	1.69
662.708	14.69
662.74	-3.31
662.772	8.69
662.804	15.69
662.836	23.69
662.869	7.69
662.901	2.69
662.933	-1.31
662.965	21.69
662.997	9.69
663.029	-4.31
663.061	8.69
663.093	3.69
663.125	20.69
663.157	-4.31
663.189	20.69
663.221	8.69
663.254	-4.31
663.286	5.69
663.318	-8.31
663.35	-5.31
663.382	-3.31
663.414	0.69
663.446	-18.31
663.478	-5.31
663.51	49.69
663.542	6.69
663.574	-9.31
663.606	16.69
663.638	-0.31
663.67	3.69
663.702	0.69
663.734	2.69
663.766	7.69
663.798	-22.31
663.83	3.69
663.862	12.69
663.894	12.69
663.926	-5.31
663.958	14.69
663.99	7.69
664.022	16.69
664.054	10.69
664.086	-11.31
664.118	-20.31
664.15	4.69
664.182	5.69
664.214	-9.31
664.246	5.69
664.278	2.69
664.31	-0.31
664.342	0.69
664.374	-13.31
664.406	4.69
664.438	8.69
664.47	25.69
664.502	-14.31
664.534	-4.31
664.566	-3.31
664.598	13.69
664.63	-4.31
664.662	6.69
664.693	8.69
664.725	-7.31
664.757	11.69
664.789	-1.31
664.821	8.69
664.853	21.69
664.885	-5.31
664.917	-2.31
664.949	29.69
664.981	37.69
665.013	-3.31
665.045	-14.31
665.076	-16.31
665.108	9.69
665.14	-0.31
665.172	-6.31
665.204	-10.31
665.236	-0.31
665.268	-0.31
665.3	-2.31
665.331	-12.31
665.363	25.69
665.395	12.69
665.427	-9.31
665.459	17.69
665.491	0.69
665.523	14.69
665.555	-2.31
665.586	-12.31
665.618	-5.31
665.65	-5.31
665.682	16.69
665.714	16.69
665.746	7.69
665.777	-5.31
665.809	-4.31
665.841	15.69
665.873	-12.31
665.905	7.69
665.937	17.69
665.968	10.69
666	-5.31
666.032	8.69
666.064	-4.31
666.096	-4.31
666.127	-0.31
666.159	7.69
666.191	-1.31
666.223	6.69
666.255	1.69
666.286	15.69
666.318	16.69
666.35	16.69
666.382	18.69
666.413	7.69
666.445	-6.31
666.477	9.69
666.509	-6.31
666.54	-7.31
666.572	0.69
666.604	3.69
666.636	14.69
666.667	28.69
666.699	24.69
666.731	-1.31
666.763	9.69
666.794	8.69
666.826	-5.31
666.858	-22.31
666.89	-1.31
666.921	9.69
666.953	-4.31
666.985	17.69
667.017	9.69
667.048	3.69
667.08	8.69
667.112	-2.31
667.143	-5.31
667.175	14.69
667.207	-2.31
667.238	9.69
667.27	16.69
667.302	-6.31
667.334	7.69
667.365	0.69
667.397	-5.31
667.429	-0.31
667.46	0.69
667.492	-9.31
667.524	-6.31
667.555	7.69
667.587	0.69
667.619	3.69
667.65	-2.31
667.682	0.69
667.714	22.69
667.745	15.69
667.777	-7.31
667.808	10.69
667.84	0.69
667.872	17.69
667.903	41.69
667.935	-0.31
667.967	6.69
667.998	-1.31
668.03	-6.31
668.061	13.69
668.093	9.69
668.125	-5.31
668.156	6.69
668.188	-17.31
668.22	-6.31
668.251	2.69
668.283	7.69
668.314	23.69
668.346	-7.31
668.377	1.69
668.409	-7.31
668.441	4.69
668.472	15.69
668.504	7.69
668.535	-4.31
668.567	10.69
668.599	-11.31
668.63	-19.31
668.662	5.69
668.693	31.69
668.725	13.69
668.756	4.69
668.788	13.69
668.819	10.69
668.851	3.69
668.882	0.69
668.914	3.69
668.946	-1.31
668.977	2.69
669.009	0.69
669.04	-0.31
669.072	9.69
669.103	14.69
669.135	9.69
669.166	0.69
669.198	14.69
669.229	15.69
669.261	-1.31
669.292	19.69
669.324	11.69
669.355	17.69
669.387	-12.31
669.418	3.69
669.45	-0.31
669.481	10.69
669.513	9.69
669.544	-1.31
669.576	-7.31
669.607	19.69
669.639	14.69
669.67	-7.31
669.701	4.69
669.733	-17.31
669.764	4.69
669.796	-3.31
669.827	-6.31
669.859	-2.31
669.89	17.69
669.922	0.69
669.953	13.69
669.985	13.69
670.016	17.69
670.047	-6.31
670.079	-5.31
670.11	5.69
670.142	13.69
670.173	-14.31
670.204	-14.31
670.236	9.69
670.267	5.69
670.299	10.69
670.33	5.69
670.362	6.69
670.393	-17.31
670.424	4.69
670.456	-17.31
670.487	-0.31
670.518	3.69
670.55	7.69
670.581	-3.31
670.613	22.69
670.644	-4.31
670.675	-12.31
670.707	1.69
670.738	0.69
670.769	-15.31
670.801	-0.31
670.832	16.69
670.864	9.69
670.895	3.69
670.926	11.69
670.958	7.69
670.989	9.69
671.02	10.69
671.052	9.69
671.083	14.69
671.114	7.69
671.146	-1.31
671.177	10.69
671.208	-5.31
671.24	9.69
671.271	-11.31
671.302	17.69
671.333	-7.31
671.365	5.69
671.396	-5.31
671.427	6.69
671.459	5.69
671.49	0.69
671.521	8.69
671.553	-17.31
671.584	9.69
671.615	9.69
671.646	10.69
671.678	5.69
671.709	0.69
671.74	-4.31
671.771	-1.31
671.803	-10.31
671.834	0.69
671.865	-12.31
671.896	-2.31
671.928	10.69
671.959	2.69
671.99	-0.31
672.021	-2.31
672.053	-10.31
672.084	4.69
672.115	5.69
672.146	-3.31
672.178	-5.31
672.209	-10.31
672.24	12.69
672.271	28.69
672.303	21.69
672.334	10.69
672.365	6.69
672.396	22.69
672.427	17.69
672.459	12.69
672.49	18.69
672.521	11.69
672.552	5.69
672.583	11.69
672.615	-6.31
672.646	6.69
672.677	3.69
672.708	-6.31
672.739	-20.31
672.77	7.69
672.802	3.69
672.833	4.69
672.864	-1.31
672.895	0.69
672.926	-19.31
672.957	-14.31
672.989	-6.31
673.02	3.69
673.051	12.69
673.082	15.69
673.113	-2.31
673.144	3.69
673.175	11.69
673.206	1.69
673.238	1.69
673.269	8.69
673.3	8.69
673.331	9.69
673.362	14.69
673.393	3.69
673.424	18.69
673.455	14.69
673.487	7.69
673.518	-0.31
673.549	10.69
673.58	-1.31
673.611	6.69
673.642	3.69
673.673	-24.31
673.704	5.69
673.735	17.69
673.766	11.69
673.797	16.69
673.828	10.69
673.86	-2.31
673.891	-14.31
673.922	-4.31
673.953	14.69
673.984	9.69
674.015	13.69
674.046	10.69
674.077	21.69
674.108	4.69
674.139	14.69
674.17	7.69
674.201	-13.31
674.232	6.69
674.263	-10.31
674.294	-8.31
674.325	-10.31
674.356	3.69
674.387	24.69
674.418	15.69
674.449	4.69
674.48	-5.31
674.511	-3.31
674.542	3.69
674.573	-13.31
674.604	14.69
674.635	1.69
674.666	14.69
674.697	15.69
674.728	7.69
674.759	1.69
674.79	-8.31
674.821	-2.31
674.852	-10.31
674.883	-13.31
674.914	1.69
674.945	8.69
674.976	4.69
675.007	-0.31
675.038	-2.31
675.069	-10.31
675.1	-5.31
675.131	5.69
675.162	-21.31
675.193	-21.31
675.224	-17.31
675.254	11.69
675.285	11.69
675.316	22.69
675.347	2.69
675.378	-15.31
675.409	-8.31
675.44	11.69
675.471	5.69
675.502	-10.31
675.533	5.69
675.564	0.69
675.595	8.69
675.625	22.69
675.656	20.69
675.687	11.69
675.718	-16.31
675.749	12.69
675.78	8.69
675.811	-1.31
675.842	2.69
675.873	7.69
675.903	3.69
675.934	9.69
675.965	1.69
675.996	1.69
676.027	6.69
676.058	3.69
676.089	-18.31
676.119	6.69
676.15	14.69
676.181	-3.31
676.212	-1.31
676.243	21.69
676.274	7.69
676.304	13.69
676.335	-15.31
676.366	2.69
676.397	-3.31
676.428	-7.31
676.459	11.69
676.489	3.69
676.52	8.69
676.551	-0.31
676.582	-10.31
676.613	2.69
676.643	-14.31
676.674	5.69
676.705	6.69
676.736	10.69
676.767	20.69
676.797	17.69
676.828	11.69
676.859	-7.31
676.89	-3.31
676.92	13.69
676.951	25.69
676.982	4.69
677.013	-12.31
677.044	14.69
677.074	14.69
677.105	-8.31
677.136	18.69
677.167	12.69
677.197	6.69
677.228	3.69
677.259	-2.31
677.289	3.69
677.32	-10.31
677.351	-12.31
677.382	-7.31
677.412	-16.31
677.443	6.69
677.474	5.69
677.505	-6.31
677.535	-0.31
677.566	-19.31
677.597	-24.31
677.627	-8.31
677.658	2.69
677.689	12.69
677.72	8.69
677.75	-6.31
677.781	-6.31
677.812	0.69
677.842	15.69
677.873	-5.31
677.904	2.69
677.934	-2.31
677.965	-10.31
677.996	-1.31
678.026	5.69
678.057	12.69
678.088	1.69
678.118	-5.31
678.149	-17.31
678.18	-5.31
678.21	14.69
678.241	1.69
678.272	-4.31
678.302	4.69
678.333	6.69
678.363	8.69
678.394	12.69
678.425	-1.31
678.455	5.69
678.486	10.69
678.517	-2.31
678.547	-8.31
678.578	5.69
678.608	-10.31
678.639	-12.31
678.67	-2.31
678.7	-5.31
678.731	13.69
678.761	6.69
678.792	6.69
678.823	5.69
678.853	-0.31
678.884	-5.31
678.914	2.69
678.945	15.69
678.975	-3.31
679.006	9.69
679.037	-6.31
679.067	22.69
679.098	3.69
679.128	0.69
679.159	4.69
679.189	17.69
679.22	-13.31
679.25	-2.31
679.281	-13.31
679.312	-5.31
679.342	4.69
679.373	36.69
679.403	2.69
679.434	-1.31
679.464	10.69
679.495	10.69
679.525	-2.31
679.556	10.69
679.586	12.69
679.617	21.69
679.647	8.69
679.678	1.69
679.708	-1.31
679.739	1.69
679.769	3.69
679.8	5.69
679.83	11.69
679.861	0.69
679.891	5.69
679.922	-10.31
679.952	-1.31
679.983	4.69
680.013	9.69
680.044	-18.31
680.074	6.69
680.105	9.69
680.135	3.69
680.165	14.69
680.196	5.69
680.226	10.69
680.257	11.69
680.287	-1.31
680.318	9.69
680.348	0.69
680.379	4.69
680.409	-27.31
680.439	-2.31
680.47	5.69
680.5	3.69
680.531	3.69
680.561	14.69
680.592	9.69
680.622	19.69
680.652	10.69
680.683	23.69
680.713	4.69
680.744	-12.31
680.774	-7.31
680.804	28.69
680.835	12.69
680.865	-4.31
680.896	17.69
680.926	9.69
680.956	18.69
680.987	8.69
681.017	8.69
681.047	9.69
681.078	3.69
681.108	-2.31
681.139	-7.31
681.169	12.69
681.199	11.69
681.23	-1.31
681.26	-1.31
681.29	22.69
681.321	-2.31
681.351	3.69
681.381	-5.31
681.412	-12.31
681.442	16.69
681.472	22.69
681.503	-6.31
681.533	4.69
681.563	16.69
681.594	-9.31
681.624	-6.31
681.654	-24.31
681.685	-17.31
681.715	10.69
681.745	5.69
681.775	1.69
681.806	4.69
681.836	10.69
681.866	-4.31
681.897	-2.31
681.927	3.69
681.957	-4.31
681.987	4.69
682.018	-4.31
682.048	9.69
682.078	6.69
682.109	-1.31
682.139	7.69
682.169	12.69
682.199	-4.31
682.23	-17.31
682.26	7.69
682.29	-0.31
682.32	7.69
682.351	-16.31
682.381	11.69
682.411	6.69
682.441	-5.31
682.472	-15.31
682.502	-2.31
682.532	-15.31
682.562	-12.31
682.592	1.69
682.623	12.69
682.653	10.69
682.683	-4.31
682.713	-3.31
682.743	0.69
682.774	5.69
682.804	-7.31
682.834	10.69
682.864	-3.31
682.894	6.69
682.925	4.69
682.955	3.69
682.985	23.69
683.015	10.69
683.045	4.69
683.076	-6.31
683.106	-8.31
683.136	-2.31
683.166	-2.31
683.196	-9.31
683.226	-5.31
683.257	-5.31
683.287	-2.31
683.317	-11.31
683.347	-12.31
683.377	-11.31
683.407	-9.31
683.437	-14.31
683.468	-2.31
683.498	8.69
683.528	17.69
683.558	6.69
683.588	15.69
683.618	9.69
683.648	15.69
683.678	11.69
683.708	12.69
683.739	6.69
683.769	5.69
683.799	-8.31
683.829	-6.31
683.859	4.69
683.889	24.69
683.919	-8.31
683.949	-9.31
683.979	-16.31
684.009	0.69
684.039	8.69
684.07	-1.31
684.1	23.69
684.13	14.69
684.16	7.69
684.19	-1.31
684.22	9.69
684.25	7.69
684.28	-12.31
684.31	23.69
684.34	11.69
684.37	10.69
684.4	0.69
684.43	9.69
684.46	5.69
684.49	-6.31
684.52	6.69
684.55	15.69
684.58	11.69
684.61	14.69
684.64	7.69
684.67	16.69
684.7	7.69
684.73	2.69
684.76	6.69
684.79	15.69
684.82	-2.31
684.85	-1.31
684.88	8.69
684.91	-11.31
684.94	1.69
684.97	-9.31
685	-5.31
685.03	-3.31
685.06	2.69
685.09	-0.31
685.12	22.69
685.15	-7.31
685.18	14.69
685.21	14.69
685.24	25.69
685.27	16.69
685.3	12.69
685.33	15.69
685.36	-0.31
685.39	6.69
685.42	2.69
685.45	-1.31
685.48	-4.31
685.51	-0.31
685.54	14.69
685.569	4.69
685.599	3.69
685.629	12.69
685.659	10.69
685.689	6.69
685.719	11.69
685.749	4.69
685.779	15.69
685.809	14.69
685.839	6.69
685.869	19.69
685.898	12.69
685.928	-2.31
685.958	5.69
685.988	14.69
686.018	4.69
686.048	4.69
686.078	12.69
686.108	5.69
686.137	2.69
686.167	8.69
686.197	-6.31
686.227	15.69
686.257	17.69
686.287	23.69
686.317	14.69
686.346	5.69
686.376	2.69
686.406	4.69
686.436	9.69
686.466	15.69
686.496	7.69
686.525	5.69
686.555	13.69
686.585	22.69
686.615	27.69
686.645	19.69
686.675	-6.31
686.704	16.69
686.734	11.69
686.764	-5.31
686.794	15.69
686.824	-12.31
686.853	4.69
686.883	13.69
686.913	15.69
686.943	-7.31
686.973	-7.31
687.002	7.69
687.032	-0.31
687.062	-2.31
687.092	6.69
687.121	-0.31
687.151	3.69
687.181	7.69
687.211	16.69
687.24	10.69
687.27	-2.31
687.3	1.69
687.33	-2.31
687.359	-25.31
687.389	16.69
687.419	13.69
687.449	0.69
687.478	-1.31
687.508	0.69
687.538	-2.31
687.568	-2.31
687.597	-7.31
687.627	-9.31
687.657	-7.31
687.686	7.69
687.716	12.69
687.746	6.69
687.776	-2.31
687.805	9.69
687.835	3.69
687.865	8.69
687.894	3.69
687.924	7.69
687.954	-0.31
687.983	12.69
688.013	11.69
688.043	10.69
688.072	-4.31
688.102	10.69
688.132	22.69
688.161	6.69
688.191	-5.31
688.221	14.69
688.25	-4.31
688.28	-6.31
688.31	3.69
688.339	10.69
688.369	-2.31
688.399	3.69
688.428	-9.31
688.458	-10.31
688.488	9.69
688.517	11.69
688.547	9.69
688.576	35.69
688.606	0.69
688.636	2.69
688.665	13.69
688.695	16.69
688.725	10.69
688.754	10.69
688.784	13.69
688.813	16.69
688.843	8.69
688.873	-6.31
688.902	-8.31
688.932	-12.31
688.961	-4.31
688.991	0.69
689.02	14.69
689.05	-3.31
689.08	11.69
689.109	26.69
689.139	7.69
689.168	3.69
689.198	16.69
689.227	-11.31
689.257	0.69
689.287	13.69
689.316	8.69
689.346	-1.31
689.375	0.69
689.405	11.69
689.434	6.69
689.464	8.69
689.493	5.69
689.523	-14.31
689.552	-4.31
689.582	3.69
689.611	4.69
689.641	5.69
689.67	2.69
689.7	9.69
689.73	10.69
689.759	26.69
689.789	14.69
689.818	-6.31
689.848	6.69
689.877	19.69
689.906	7.69
689.936	7.69
689.965	18.69
689.995	16.69
690.024	23.69
690.054	5.69
690.083	7.69
690.113	-0.31
690.142	-4.31
690.172	12.69
690.201	15.69
690.231	-1.31
690.26	14.69
690.29	-0.31
690.319	9.69
690.348	-7.31
690.378	11.69
690.407	8.69
690.437	2.69
690.466	-6.31
690.496	-2.31
690.525	11.69
690.555	-1.31
690.584	5.69
690.613	10.69
690.643	13.69
690.672	18.69
690.702	13.69
690.731	9.69
690.76	-2.31
690.79	-2.31
690.819	-7.31
690.849	6.69
690.878	2.69
690.907	-4.31
690.937	10.69
690.966	18.69
690.996	14.69
691.025	1.69
691.054	13.69
691.084	4.69
691.113	12.69
691.142	25.69
691.172	14.69
691.201	9.69
691.23	4.69
691.26	3.69
691.289	9.69
691.319	2.69
691.348	0.69
691.377	20.69
691.407	13.69
691.436	17.69
691.465	11.69
691.495	-0.31
691.524	6.69
691.553	-2.31
691.583	6.69
691.612	31.69
691.641	10.69
691.67	-7.31
691.7	10.69
691.729	-13.31
691.758	0.69
691.788	7.69
691.817	-0.31
691.846	-4.31
691.876	10.69
691.905	-2.31
691.934	7.69
691.963	22.69
691.993	3.69
692.022	0.69
692.051	-16.31
692.081	2.69
692.11	15.69
692.139	7.69
692.168	6.69
692.198	20.69
692.227	8.69
692.256	10.69
692.285	8.69
692.315	4.69
692.344	19.69
692.373	24.69
692.402	-21.31
692.432	0.69
692.461	-3.31
692.49	8.69
692.519	1.69
692.548	10.69
692.578	9.69
692.607	-6.31
692.636	-4.31
692.665	17.69
692.694	3.69
692.724	22.69
692.753	15.69
692.782	0.69
692.811	15.69
692.84	12.69
692.87	-1.31
692.899	11.69
692.928	7.69
692.957	-2.31
692.986	10.69
693.016	6.69
693.045	19.69
693.074	11.69
693.103	8.69
693.132	10.69
693.161	6.69
693.191	-12.31
693.22	-15.31
693.249	-1.31
693.278	13.69
693.307	16.69
693.336	-4.31
693.365	-5.31
693.395	3.69
693.424	1.69
693.453	20.69
693.482	7.69
693.511	14.69
693.54	18.69
693.569	24.69
693.598	29.69
693.628	9.69
693.657	28.69
693.686	17.69
693.715	20.69
693.744	22.69
693.773	18.69
693.802	13.69
693.831	6.69
693.86	21.69
693.889	-8.31
693.919	0.69
693.948	10.69
693.977	20.69
694.006	5.69
694.035	0.69
694.064	6.69
694.093	16.69
694.122	3.69
694.151	18.69
694.18	17.69
694.209	35.69
694.238	9.69
694.267	20.69
694.296	10.69
694.325	9.69
694.354	17.69
694.383	13.69
694.412	11.69
694.441	-6.31
694.471	-5.31
694.5	-7.31
694.529	17.69
694.558	29.69
694.587	11.69
694.616	-0.31
694.645	8.69
694.674	18.69
694.703	7.69
694.732	-9.31
694.761	13.69
694.79	9.69
694.819	-14.31
694.848	-2.31
694.877	9.69
694.906	23.69
694.935	10.69
694.963	12.69
694.992	1.69
695.021	10.69
695.05	17.69
695.079	18.69
695.108	-4.31
695.137	15.69
695.166	8.69
695.195	-6.31
695.224	15.69
695.253	12.69
695.282	7.69
695.311	19.69
695.34	7.69
695.369	3.69
695.398	4.69
695.427	14.69
695.456	6.69
695.485	8.69
695.513	-2.31
695.542	9.69
695.571	13.69
695.6	37.69
695.629	2.69
695.658	12.69
695.687	12.69
695.716	-5.31
695.745	23.69
695.774	-2.31
695.802	8.69
695.831	15.69
695.86	6.69
695.889	9.69
695.918	-1.31
695.947	3.69
695.976	6.69
696.005	3.69
696.033	14.69
696.062	20.69
696.091	-1.31
696.12	8.69
696.149	8.69
696.178	7.69
696.207	15.69
696.235	-12.31
696.264	14.69
696.293	11.69
696.322	20.69
696.351	19.69
696.38	0.69
696.408	16.69
696.437	6.69
696.466	-3.31
696.495	37.69
696.524	24.69
696.553	9.69
696.581	15.69
696.61	7.69
696.639	-10.31
696.668	17.69
696.697	5.69
696.725	18.69
696.754	7.69
696.783	-5.31
696.812	-9.31
696.84	2.69
696.869	-5.31
696.898	-1.31
696.927	7.69
696.956	13.69
696.984	-6.31
697.013	6.69
697.042	13.69
697.071	30.69
697.099	17.69
697.128	6.69
697.157	5.69
697.186	5.69
697.214	-2.31
697.243	0.69
697.272	6.69
697.301	15.69
697.329	-0.31
697.358	20.69
697.387	23.69
697.415	5.69
697.444	1.69
697.473	-7.31
697.502	-27.31
697.53	9.69
697.559	9.69
697.588	22.69
697.616	5.69
697.645	-6.31
697.674	9.69
697.703	-9.31
697.731	12.69
697.76	15.69
697.789	13.69
697.817	3.69
697.846	5.69
697.875	8.69
697.903	26.69
697.932	7.69
697.961	6.69
697.989	18.69
698.018	18.69
698.047	17.69
698.075	7.69
698.104	6.69
698.133	-5.31
698.161	3.69
698.19	-10.31
698.218	-8.31
698.247	10.69
698.276	4.69
698.304	17.69
698.333	8.69
698.362	25.69
698.39	15.69
698.419	21.69
698.447	17.69
698.476	2.69
698.505	5.69
698.533	-0.31
698.562	18.69
698.591	-7.31
698.619	-13.31
698.648	-0.31
698.676	-3.31
698.705	-3.31
698.733	0.69
698.762	29.69
698.791	10.69
698.819	15.69
698.848	12.69
698.876	19.69
698.905	16.69
698.933	18.69
698.962	7.69
698.991	6.69
699.019	15.69
699.048	8.69
699.076	21.69
699.105	-7.31
699.133	-4.31
699.162	30.69
699.19	29.69
699.219	16.69
699.248	12.69
699.276	-0.31
699.305	-2.31
699.333	24.69
699.362	6.69
699.39	23.69
699.419	-1.31
699.447	10.69
699.476	2.69
699.504	3.69
699.533	8.69
699.561	-5.31
699.59	3.69
699.618	16.69
699.647	9.69
699.675	15.69
699.704	11.69
699.732	7.69
699.761	23.69
699.789	6.69
699.818	8.69
699.846	-12.31
699.874	-7.31
699.903	-1.31
699.931	2.69
699.96	1.69
699.988	-0.31
700.017	9.69
700.045	8.69
700.074	2.69
700.102	-2.31
700.13	7.69
700.159	-6.31
700.187	-16.31
700.216	-7.31
700.244	-1.31
700.273	10.69
700.301	10.69
700.329	1.69
700.358	14.69
700.386	5.69
700.415	9.69
700.443	19.69
700.472	15.69
700.5	2.69
700.528	12.69
700.557	4.69
700.585	-5.31
700.614	-8.31
700.642	1.69
700.67	16.69
700.699	17.69
700.727	10.69
700.755	12.69
700.784	-1.31
700.812	-19.31
700.841	11.69
700.869	18.69
700.897	-18.31
700.926	-17.31
700.954	6.69
700.982	15.69
701.011	13.69
701.039	24.69
701.067	7.69
701.096	-5.31
701.124	-13.31
701.152	18.69
701.181	1.69
701.209	-1.31
701.237	7.69
701.266	0.69
701.294	4.69
701.322	14.69
701.351	16.69
701.379	6.69
701.407	-2.31
701.435	3.69
701.464	11.69
701.492	9.69
701.52	0.69
701.549	1.69
701.577	-4.31
701.605	-5.31
701.634	9.69
701.662	13.69
701.69	-2.31
701.718	-16.31
701.747	3.69
701.775	7.69
701.803	3.69
701.831	22.69
701.86	-6.31
701.888	1.69
701.916	-1.31
701.944	4.69
701.973	-3.31
702.001	-0.31
702.029	-11.31
702.057	-0.31
702.086	2.69
702.114	-3.31
702.142	3.69
702.17	-2.31
702.199	4.69
702.227	8.69
702.255	14.69
702.283	-5.31
702.311	7.69
702.34	13.69
702.368	3.69
702.396	1.69
702.424	0.69
702.452	3.69
702.481	5.69
702.509	7.69
702.537	13.69
702.565	3.69
702.593	-4.31
702.621	6.69
702.65	6.69
702.678	-0.31
702.706	9.69
702.734	-7.31
702.762	5.69
702.79	6.69
702.819	14.69
702.847	17.69
702.875	17.69
702.903	10.69
702.931	-1.31
702.959	14.69
702.988	15.69
703.016	2.69
703.044	9.69
703.072	0.69
703.1	-5.31
703.128	2.69
703.156	1.69
703.184	8.69
703.212	19.69
703.241	-3.31
703.269	2.69
703.297	2.69
703.325	10.69
703.353	3.69
703.381	-6.31
703.409	5.69
703.437	-1.31
703.465	5.69
703.493	0.69
703.522	22.69
703.55	20.69
703.578	11.69
703.606	3.69
703.634	-3.31
703.662	5.69
703.69	3.69
703.718	5.69
703.746	17.69
703.774	0.69
703.802	9.69
703.83	9.69
703.858	-0.31
703.886	-33.31
703.914	1.69
703.942	13.69
703.97	15.69
703.998	11.69
704.027	8.69
704.055	11.69
704.083	9.69
704.111	-4.31
704.139	-5.31
704.167	2.69
704.195	9.69
704.223	4.69
704.251	-4.31
704.279	1.69
704.307	-8.31
704.335	-0.31
704.363	7.69
704.391	1.69
704.419	-15.31
704.447	-1.31
704.475	-2.31
704.503	3.69
704.531	8.69
704.558	18.69
704.586	4.69
704.614	2.69
704.642	10.69
704.67	-5.31
704.698	-2.31
704.726	16.69
704.754	10.69
704.782	6.69
704.81	-2.31
704.838	24.69
704.866	10.69
704.894	0.69
704.922	-0.31
704.95	21.69
704.978	6.69
705.006	8.69
705.034	22.69
705.061	5.69
705.089	-0.31
705.117	-13.31
705.145	-5.31
705.173	10.69
705.201	14.69
705.229	6.69
705.257	1.69
705.285	12.69
705.313	-2.31
705.34	-14.31
705.368	-6.31
705.396	-3.31
705.424	6.69
705.452	-14.31
705.48	12.69
705.508	-24.31
705.536	6.69
705.563	-15.31
705.591	7.69
705.619	13.69
705.647	-12.31
705.675	-10.31
705.703	7.69
705.731	7.69
705.758	17.69
705.786	0.69
705.814	24.69
705.842	13.69
705.87	13.69
705.898	22.69
705.925	2.69
705.953	5.69
705.981	-5.31
706.009	0.69
706.037	14.69
706.065	6.69
706.092	-13.31
706.12	6.69
706.148	-14.31
706.176	3.69
706.204	3.69
706.231	-3.31
706.259	-0.31
706.287	6.69
706.315	20.69
706.342	11.69
706.37	10.69
706.398	-7.31
706.426	3.69
706.454	6.69
706.481	2.69
706.509	0.69
706.537	13.69
706.565	11.69
706.592	8.69
706.62	6.69
706.648	-6.31
706.676	-5.31
706.703	2.69
706.731	-3.31
706.759	-5.31
706.787	-5.31
706.814	-5.31
706.842	-9.31
706.87	9.69
706.897	-0.31
706.925	-1.31
706.953	7.69
706.981	14.69
707.008	3.69
707.036	-6.31
707.064	7.69
707.091	-14.31
707.119	-2.31
707.147	0.69
707.174	-2.31
707.202	6.69
707.23	7.69
707.258	13.69
707.285	-25.31
707.313	-9.31
707.341	1.69
707.368	-12.31
707.396	1.69
707.424	26.69
707.451	8.69
707.479	-1.31
707.507	-11.31
707.534	1.69
707.562	0.69
707.59	-12.31
707.617	-2.31
707.645	6.69
707.672	7.69
707.7	5.69
707.728	18.69
707.755	7.69
707.783	2.69
707.811	5.69
707.838	2.69
707.866	3.69
707.893	7.69
707.921	-3.31
707.949	-2.31
707.976	-9.31
708.004	5.69
708.031	8.69
708.059	5.69
708.087	5.69
708.114	0.69
708.142	18.69
708.169	3.69
708.197	-4.31
708.225	-3.31
708.252	1.69
708.28	7.69
708.307	9.69
708.335	6.69
708.362	2.69
708.39	-3.31
708.418	22.69
708.445	-8.31
708.473	-15.31
708.5	0.69
708.528	-1.31
708.555	6.69
708.583	2.69
708.61	0.69
708.638	16.69
708.665	-2.31
708.693	3.69
708.72	-9.31
708.748	-8.31
708.776	-16.31
708.803	-3.31
708.831	9.69
708.858	12.69
708.886	5.69
708.913	-9.31
708.941	-6.31
708.968	5.69
708.996	-10.31
709.023	15.69
709.051	-10.31
709.078	-5.31
709.105	3.69
709.133	-8.31
709.16	5.69
709.188	6.69
709.215	-6.31
709.243	6.69
709.27	9.69
709.298	3.69
709.325	4.69
709.353	-8.31
709.38	0.69
709.408	12.69
709.435	2.69
709.462	6.69
709.49	8.69
709.517	-6.31
709.545	-13.31
709.572	7.69
709.6	9.69
709.627	7.69
709.655	10.69
709.682	9.69
709.709	-1.31
709.737	0.69
709.764	-5.31
709.792	-6.31
709.819	-13.31
709.846	-2.31
709.874	10.69
709.901	16.69
709.929	15.69
709.956	-5.31
709.983	-5.31
710.011	1.69
710.038	-0.31
710.066	9.69
710.093	13.69
710.12	2.69
710.148	-7.31
710.175	-10.31
710.202	-5.31
710.23	1.69
710.257	3.69
710.284	-1.31
710.312	-6.31
710.339	-13.31
710.366	-5.31
710.394	-6.31
710.421	11.69
710.448	2.69
710.476	-2.31
710.503	18.69
710.53	6.69
710.558	20.69
710.585	10.69
710.612	0.69
710.64	4.69
710.667	8.69
710.694	9.69
710.722	17.69
710.749	7.69
710.776	2.69
710.804	26.69
710.831	5.69
710.858	12.69
710.885	7.69
710.913	-4.31
710.94	15.69
710.967	-1.31
710.995	-5.31
711.022	3.69
711.049	6.69
711.076	-16.31
711.104	-19.31
711.131	-10.31
711.158	15.69
711.185	17.69
711.213	-10.31
711.24	-3.31
711.267	1.69
711.294	11.69
711.322	3.69
711.349	-8.31
711.376	13.69
711.403	16.69
711.431	7.69
711.458	11.69
711.485	-7.31
711.512	9.69
711.54	11.69
711.567	0.69
711.594	-7.31
711.621	8.69
711.648	7.69
711.676	-1.31
711.703	-4.31
711.73	3.69
711.757	8.69
711.784	-4.31
711.812	1.69
711.839	-7.31
711.866	-3.31
711.893	-6.31
711.92	4.69
711.947	6.69
711.975	5.69
712.002	-2.31
712.029	7.69
712.056	8.69
712.083	1.69
712.11	-3.31
712.138	3.69
712.165	14.69
712.192	10.69
712.219	-8.31
712.246	-8.31
712.273	13.69
712.3	-5.31
712.328	-1.31
712.355	-1.31
712.382	-4.31
712.409	23.69
712.436	9.69
712.463	11.69
712.49	8.69
712.517	9.69
712.544	3.69
712.572	10.69
712.599	-9.31
712.626	5.69
712.653	2.69
712.68	-0.31
712.707	5.69
712.734	6.69
712.761	-13.31
712.788	11.69
712.815	4.69
712.842	4.69
712.87	-2.31
712.897	8.69
712.924	-15.31
712.951	13.69
712.978	14.69
713.005	14.69
713.032	19.69
713.059	-5.31
713.086	-3.31
713.113	-6.31
713.14	-25.31
713.167	-2.31
713.194	26.69
713.221	2.69
713.248	9.69
713.275	-1.31
713.302	3.69
713.329	16.69
713.356	4.69
713.383	4.69
713.41	10.69
713.437	-3.31
713.464	-2.31
713.491	14.69
713.518	11.69
713.545	-4.31
713.572	9.69
713.599	12.69
713.626	-15.31
713.653	17.69
713.68	0.69
713.707	9.69
713.734	1.69
713.761	16.69
713.788	5.69
713.815	21.69
713.842	6.69
713.869	1.69
713.896	0.69
713.923	3.69
713.95	-5.31
713.977	-4.31
714.004	12.69
714.031	-15.31
714.058	-3.31
714.085	0.69
714.112	22.69
714.139	1.69
714.165	-1.31
714.192	3.69
714.219	8.69
714.246	1.69
714.273	9.69
714.3	3.69
714.327	16.69
714.354	16.69
714.381	6.69
714.408	3.69
714.435	-3.31
714.461	11.69
714.488	23.69
714.515	-5.31
714.542	-9.31
714.569	-17.31
714.596	-5.31
714.623	-13.31
714.65	8.69
714.677	12.69
714.703	5.69
714.73	18.69
714.757	-1.31
714.784	-6.31
714.811	-12.31
714.838	-0.31
714.865	-14.31
714.891	16.69
714.918	7.69
714.945	-9.31
714.972	1.69
714.999	20.69
715.026	-3.31
715.052	23.69
715.079	5.69
715.106	4.69
715.133	0.69
715.16	-7.31
715.187	2.69
715.213	13.69
715.24	-9.31
715.267	11.69
715.294	0.69
715.321	-0.31
715.347	-2.31
715.374	-4.31
715.401	-4.31
715.428	-5.31
715.455	-5.31
715.481	2.69
715.508	14.69
715.535	-3.31
715.562	31.69
715.588	15.69
715.615	-7.31
715.642	15.69
715.669	18.69
715.695	2.69
715.722	8.69
715.749	19.69
715.776	12.69
715.802	6.69
715.829	3.69
715.856	1.69
715.883	20.69
715.909	-12.31
715.936	-2.31
715.963	-7.31
715.99	3.69
716.016	11.69
716.043	5.69
716.07	-0.31
716.096	-0.31
716.123	16.69
716.15	12.69
716.177	12.69
716.203	23.69
716.23	16.69
716.257	1.69
716.283	27.69
716.31	15.69
716.337	9.69
716.363	10.69
716.39	10.69
716.417	9.69
716.443	7.69
716.47	17.69
716.497	8.69
716.523	11.69
716.55	19.69
716.577	11.69
716.603	8.69
716.63	3.69
716.657	7.69
716.683	11.69
716.71	-2.31
716.737	5.69
716.763	5.69
716.79	11.69
716.817	5.69
716.843	7.69
716.87	-10.31
716.897	7.69
716.923	17.69
716.95	-3.31
716.976	0.69
717.003	0.69
717.03	-2.31
717.056	-1.31
717.083	-8.31
717.109	3.69
717.136	5.69
717.163	-1.31
717.189	-2.31
717.216	6.69
717.242	5.69
717.269	-10.31
717.296	2.69
717.322	3.69
717.349	5.69
717.375	-5.31
717.402	6.69
717.428	9.69
717.455	6.69
717.481	-5.31
717.508	11.69
717.535	6.69
717.561	-12.31
717.588	-1.31
717.614	8.69
717.641	9.69
717.667	5.69
717.694	6.69
717.72	-5.31
717.747	4.69
717.773	-3.31
717.8	0.69
717.826	-3.31
717.853	-4.31
717.88	9.69
717.906	14.69
717.933	22.69
717.959	10.69
717.986	17.69
718.012	14.69
718.039	23.69
718.065	19.69
718.092	9.69
718.118	-1.31
718.144	-10.31
718.171	18.69
718.197	31.69
718.224	0.69
718.25	-0.31
718.277	14.69
718.303	10.69
718.33	11.69
718.356	-21.31
718.383	-18.31
718.409	15.69
718.436	6.69
718.462	-9.31
718.489	9.69
718.515	16.69
718.541	21.69
718.568	16.69
718.594	0.69
718.621	10.69
718.647	5.69
718.674	7.69
718.7	11.69
718.726	10.69
718.753	8.69
718.779	9.69
718.806	10.69
718.832	15.69
718.858	1.69
718.885	0.69
718.911	-3.31
718.938	8.69
718.964	-13.31
718.99	9.69
719.017	-2.31
719.043	-2.31
719.07	18.69
719.096	-13.31
719.122	5.69
719.149	5.69
719.175	-0.31
719.201	14.69
719.228	9.69
719.254	5.69
719.281	-16.31
719.307	-10.31
719.333	-9.31
719.36	9.69
719.386	5.69
719.412	10.69
719.439	1.69
719.465	-0.31
719.491	4.69
719.518	7.69
719.544	6.69
719.57	-1.31
719.597	17.69
719.623	8.69
719.649	1.69
719.675	10.69
719.702	33.69
719.728	5.69
719.754	-1.31
719.781	9.69
719.807	9.69
719.833	5.69
719.86	5.69
719.886	4.69
719.912	19.69
719.938	1.69
719.965	1.69
719.991	7.69
720.017	9.69
720.044	7.69
720.07	11.69
720.096	19.69
720.122	0.69
720.149	12.69
720.175	27.69
720.201	2.69
720.227	3.69
720.254	2.69
720.28	-13.31
720.306	-4.31
720.332	14.69
720.359	-1.31
720.385	26.69
720.411	5.69
720.437	13.69
720.463	-2.31
720.49	5.69
720.516	3.69
720.542	-9.31
720.568	4.69
720.595	9.69
720.621	2.69
720.647	9.69
720.673	17.69
720.699	10.69
720.725	17.69
720.752	16.69
720.778	17.69
720.804	22.69
720.83	5.69
720.856	-0.31
720.883	-18.31
720.909	0.69
720.935	18.69
720.961	23.69
720.987	18.69
721.013	9.69
721.04	-5.31
721.066	-1.31
721.092	15.69
721.118	23.69
721.144	7.69
721.17	-2.31
721.196	-3.31
721.223	-14.31
721.249	-2.31
721.275	13.69
721.301	3.69
721.327	1.69
721.353	15.69
721.379	15.69
721.405	21.69
721.432	13.69
721.458	8.69
721.484	11.69
721.51	-9.31
721.536	15.69
721.562	11.69
721.588	9.69
721.614	9.69
721.64	4.69
721.666	5.69
721.693	1.69
721.719	12.69
721.745	-2.31
721.771	-5.31
721.797	16.69
721.823	13.69
721.849	8.69
721.875	13.69
721.901	12.69
721.927	-9.31
721.953	2.69
721.979	16.69
722.005	-3.31
722.031	-15.31
722.057	1.69
722.083	10.69
722.109	9.69
722.135	1.69
722.161	8.69
722.187	-5.31
722.214	-0.31
722.24	-0.31
722.266	-7.31
722.292	1.69
722.318	22.69
722.344	-0.31
722.37	0.69
722.396	11.69
722.422	7.69
722.448	-5.31
722.474	7.69
722.5	12.69
722.526	7.69
722.552	2.69
722.578	1.69
722.603	16.69
722.629	-3.31
722.655	5.69
722.681	1.69
722.707	12.69
722.733	6.69
722.759	-2.31
722.785	-6.31
722.811	1.69
722.837	7.69
722.863	12.69
722.889	11.69
722.915	-0.31
722.941	-5.31
722.967	-15.31
722.993	15.69
723.019	17.69
723.045	9.69
723.071	12.69
723.097	0.69
723.122	7.69
723.148	-18.31
723.174	7.69
723.2	11.69
723.226	-12.31
723.252	-1.31
723.278	3.69
723.304	1.69
723.33	1.69
723.356	-5.31
723.381	7.69
723.407	-4.31
723.433	-0.31
723.459	-3.31
723.485	9.69
723.511	18.69
723.537	-2.31
723.563	3.69
723.588	-4.31
723.614	7.69
723.64	5.69
723.666	18.69
723.692	8.69
723.718	13.69
723.744	9.69
723.769	4.69
723.795	8.69
723.821	15.69
723.847	6.69
723.873	7.69
723.899	10.69
723.924	-1.31
723.95	-10.31
723.976	-7.31
724.002	5.69
724.028	13.69
724.053	12.69
724.079	2.69
724.105	-2.31
724.131	2.69
724.157	11.69
724.182	6.69
724.208	1.69
724.234	5.69
724.26	-9.31
724.286	17.69
724.311	3.69
724.337	0.69
724.363	-9.31
724.389	10.69
724.415	2.69
724.44	30.69
724.466	7.69
724.492	1.69
724.518	11.69
724.543	-1.31
724.569	12.69
724.595	0.69
724.621	-3.31
724.646	-3.31
724.672	3.69
724.698	12.69
724.723	1.69
724.749	1.69
724.775	21.69
724.801	14.69
724.826	-6.31
724.852	20.69
724.878	17.69
724.904	-6.31
724.929	5.69
724.955	0.69
724.981	3.69
725.006	6.69
725.032	17.69
725.058	20.69
725.083	-4.31
725.109	3.69
725.135	9.69
725.161	5.69
725.186	9.69
725.212	12.69
725.238	1.69
725.263	2.69
725.289	1.69
725.315	0.69
725.34	-0.31
725.366	11.69
725.392	7.69
725.417	7.69
725.443	6.69
725.468	-0.31
725.494	23.69
725.52	15.69
725.545	6.69
725.571	1.69
725.597	-2.31
725.622	1.69
725.648	-12.31
725.674	13.69
725.699	-1.31
725.725	3.69
725.75	26.69
725.776	-6.31
725.802	-7.31
725.827	12.69
725.853	6.69
725.878	11.69
725.904	-1.31
725.93	9.69
725.955	-0.31
725.981	-1.31
726.006	3.69
726.032	11.69
726.057	1.69
726.083	10.69
726.109	19.69
726.134	17.69
726.16	5.69
726.185	-1.31
726.211	-0.31
726.236	14.69
726.262	9.69
726.288	10.69
726.313	9.69
726.339	1.69
726.364	1.69
726.39	14.69
726.415	7.69
726.441	-3.31
726.466	6.69
726.492	2.69
726.517	7.69
726.543	5.69
726.568	-4.31
726.594	-1.31
726.619	19.69
726.645	3.69
726.67	9.69
726.696	6.69
726.721	-13.31
726.747	0.69
726.772	10.69
726.798	-3.31
726.823	18.69
726.849	3.69
726.874	10.69
726.9	19.69
726.925	19.69
726.951	13.69
726.976	22.69
727.002	-3.31
727.027	10.69
727.053	25.69
727.078	-0.31
727.104	1.69
727.129	-3.31
727.155	2.69
727.18	7.69
727.205	6.69
727.231	1.69
727.256	13.69
727.282	2.69
727.307	7.69
727.333	15.69
727.358	3.69
727.383	-12.31
727.409	-14.31
727.434	6.69
727.46	20.69
727.485	10.69
727.511	13.69
727.536	-10.31
727.561	-11.31
727.587	7.69
727.612	-0.31
727.637	-6.31
727.663	-5.31
727.688	13.69
727.714	7.69
727.739	3.69
727.764	12.69
727.79	3.69
727.815	22.69
727.841	15.69
727.866	19.69
727.891	12.69
727.917	-4.31
727.942	-13.31
727.967	-1.31
727.993	-0.31
728.018	-3.31
728.043	-2.31
728.069	19.69
728.094	7.69
728.119	-3.31
728.145	15.69
728.17	7.69
728.195	12.69
728.221	1.69
728.246	-2.31
728.271	-19.31
728.297	10.69
728.322	1.69
728.347	12.69
728.373	9.69
728.398	10.69
728.423	7.69
728.448	8.69
728.474	5.69
728.499	22.69
728.524	2.69
728.55	-4.31
728.575	-3.31
728.6	-5.31
728.625	22.69
728.651	10.69
728.676	13.69
728.701	5.69
728.727	8.69
728.752	-1.31
728.777	-3.31
728.802	0.69
728.828	8.69
728.853	13.69
728.878	3.69
728.903	-3.31
728.929	-10.31
728.954	6.69
728.979	1.69
729.004	5.69
729.03	5.69
729.055	7.69
729.08	-4.31
729.105	5.69
729.13	9.69
729.156	4.69
729.181	5.69
729.206	-13.31
729.231	3.69
729.256	26.69
729.282	1.69
729.307	-2.31
729.332	-4.31
729.357	-9.31
729.382	9.69
729.408	7.69
729.433	11.69
729.458	4.69
729.483	1.69
729.508	10.69
729.533	1.69
729.559	18.69
729.584	4.69
729.609	21.69
729.634	17.69
729.659	-0.31
729.684	-4.31
729.71	18.69
729.735	6.69
729.76	0.69
729.785	3.69
729.81	7.69
729.835	-2.31
729.86	-12.31
729.886	5.69
729.911	7.69
729.936	-10.31
729.961	-7.31
729.986	-10.31
730.011	7.69
730.036	2.69
730.061	14.69
730.086	9.69
730.112	22.69
730.137	10.69
730.162	5.69
730.187	0.69
730.212	9.69
730.237	18.69
730.262	-0.31
730.287	-11.31
730.312	10.69
730.337	-8.31
730.362	23.69
730.387	6.69
730.413	5.69
730.438	11.69
730.463	-1.31
730.488	-9.31
730.513	10.69
730.538	3.69
730.563	9.69
730.588	16.69
730.613	6.69
730.638	11.69
730.663	0.69
730.688	12.69
730.713	14.69
730.738	-4.31
730.763	7.69
730.788	-9.31
730.813	-0.31
730.838	7.69
730.863	5.69
730.888	6.69
730.913	-15.31
730.938	-8.31
730.963	-4.31
730.988	8.69
731.013	20.69
731.038	-10.31
731.063	1.69
731.088	0.69
731.113	9.69
731.138	14.69
731.163	9.69
731.188	-12.31
731.213	11.69
731.238	18.69
731.263	5.69
731.288	2.69
731.313	6.69
731.338	15.69
731.363	1.69
731.388	6.69
731.413	-1.31
731.438	18.69
731.463	2.69
731.487	22.69
731.512	3.69
731.537	-4.31
731.562	-10.31
731.587	8.69
731.612	-16.31
731.637	-6.31
731.662	16.69
731.687	-1.31
731.712	-20.31
731.737	12.69
731.762	8.69
731.786	9.69
731.811	1.69
731.836	-0.31
731.861	1.69
731.886	1.69
731.911	12.69
731.936	22.69
731.961	5.69
731.986	5.69
732.01	10.69
732.035	16.69
732.06	25.69
732.085	1.69
732.11	-0.31
732.135	0.69
732.16	7.69
732.184	3.69
732.209	9.69
732.234	10.69
732.259	3.69
732.284	-0.31
732.309	-6.31
732.334	4.69
732.358	-16.31
732.383	-15.31
732.408	-8.31
732.433	-0.31
732.458	-0.31
732.482	-1.31
732.507	-15.31
732.532	-2.31
732.557	6.69
732.582	19.69
732.607	0.69
732.631	-19.31
732.656	-9.31
732.681	8.69
732.706	28.69
732.73	8.69
732.755	-12.31
732.78	12.69
732.805	6.69
732.83	-6.31
732.854	1.69
732.879	11.69
732.904	17.69
732.929	7.69
732.953	11.69
732.978	-4.31
733.003	-4.31
733.028	2.69
733.052	17.69
733.077	5.69
733.102	10.69
733.127	4.69
733.151	-14.31
733.176	-8.31
733.201	5.69
733.226	0.69
733.25	4.69
733.275	8.69
733.3	8.69
733.324	15.69
733.349	7.69
733.374	13.69
733.399	9.69
733.423	8.69
733.448	18.69
733.473	3.69
733.497	9.69
733.522	1.69
733.547	5.69
733.571	17.69
733.596	6.69
733.621	18.69
733.646	-1.31
733.67	30.69
733.695	-0.31
733.72	6.69
733.744	-6.31
733.769	5.69
733.794	30.69
733.818	10.69
733.843	1.69
733.867	3.69
733.892	5.69
733.917	-0.31
733.941	1.69
733.966	-1.31
733.991	2.69
734.015	11.69
734.04	9.69
734.065	3.69
734.089	29.69
734.114	5.69
734.138	6.69
734.163	3.69
734.188	16.69
734.212	23.69
734.237	11.69
734.261	7.69
734.286	-2.31
734.311	1.69
734.335	-2.31
734.36	6.69
734.384	11.69
734.409	21.69
734.434	18.69
734.458	2.69
734.483	11.69
734.507	1.69
734.532	1.69
734.556	6.69
734.581	-6.31
734.606	4.69
734.63	-9.31
734.655	13.69
734.679	7.69
734.704	-2.31
734.728	-7.31
734.753	-9.31
734.777	7.69
734.802	4.69
734.826	9.69
734.851	3.69
734.876	27.69
734.9	20.69
734.925	5.69
734.949	8.69
734.974	5.69
734.998	7.69
735.023	9.69
735.047	-12.31
735.072	21.69
735.096	17.69
735.121	12.69
735.145	3.69
735.17	6.69
735.194	6.69
735.219	2.69
735.243	9.69
735.268	2.69
735.292	14.69
735.317	2.69
735.341	3.69
735.365	-10.31
735.39	32.69
735.414	12.69
735.439	10.69
735.463	22.69
735.488	18.69
735.512	12.69
735.537	20.69
735.561	10.69
735.586	16.69
735.61	7.69
735.634	-6.31
735.659	19.69
735.683	27.69
735.708	-0.31
735.732	-4.31
735.757	-4.31
735.781	6.69
735.805	13.69
735.83	-13.31
735.854	12.69
735.879	9.69
735.903	10.69
735.927	15.69
735.952	16.69
735.976	3.69
736.001	2.69
736.025	11.69
736.049	5.69
736.074	-0.31
736.098	-3.31
736.123	11.69
736.147	6.69
736.171	1.69
736.196	0.69
736.22	9.69
736.244	4.69
736.269	-2.31
736.293	-1.31
736.317	13.69
736.342	-3.31
736.366	9.69
736.39	19.69
736.415	-4.31
736.439	-1.31
736.463	5.69
736.488	1.69
736.512	-6.31
736.536	-1.31
736.561	30.69
736.585	5.69
736.609	-13.31
736.634	-0.31
736.658	-6.31
736.682	-11.31
736.707	-2.31
736.731	7.69
736.755	5.69
736.78	8.69
736.804	7.69
736.828	8.69
736.852	5.69
736.877	5.69
736.901	17.69
736.925	13.69
736.949	3.69
736.974	7.69
736.998	2.69
737.022	13.69
737.047	8.69
737.071	-6.31
737.095	12.69
737.119	14.69
737.144	15.69
737.168	-0.31
737.192	1.69
737.216	17.69
737.241	6.69
737.265	25.69
737.289	5.69
737.313	2.69
737.337	5.69
737.362	7.69
737.386	6.69
737.41	-1.31
737.434	17.69
737.459	8.69
737.483	5.69
737.507	18.69
737.531	4.69
737.555	6.69
737.58	13.69
737.604	-2.31
737.628	-16.31
737.652	5.69
737.676	7.69
737.701	9.69
737.725	-1.31
737.749	8.69
737.773	8.69
737.797	-9.31
737.821	3.69
737.846	-1.31
737.87	13.69
737.894	13.69
737.918	-2.31
737.942	11.69
737.966	12.69
737.99	17.69
738.015	21.69
738.039	18.69
738.063	6.69
738.087	16.69
738.111	18.69
738.135	20.69
738.159	3.69
738.184	-3.31
738.208	10.69
738.232	1.69
738.256	12.69
738.28	29.69
738.304	19.69
738.328	2.69
738.352	4.69
738.376	4.69
738.4	14.69
738.425	21.69
738.449	7.69
738.473	22.69
738.497	10.69
738.521	19.69
738.545	3.69
738.569	18.69
738.593	11.69
738.617	7.69
738.641	-5.31
738.665	-4.31
738.689	-0.31
738.713	4.69
738.737	6.69
738.762	14.69
738.786	-6.31
738.81	-4.31
738.834	10.69
738.858	5.69
738.882	8.69
738.906	2.69
738.93	15.69
738.954	-1.31
738.978	2.69
739.002	-0.31
739.026	13.69
739.05	-5.31
739.074	-8.31
739.098	15.69
739.122	15.69
739.146	9.69
739.17	19.69
739.194	18.69
739.218	0.69
739.242	-3.31
739.266	-12.31
739.29	10.69
739.314	8.69
739.338	1.69
739.362	5.69
739.386	11.69
739.41	-8.31
739.434	2.69
739.458	16.69
739.482	1.69
739.506	13.69
739.53	6.69
739.554	20.69
739.577	2.69
739.601	11.69
739.625	3.69
739.649	19.69
739.673	-15.31
739.697	13.69
739.721	5.69
739.745	12.69
739.769	18.69
739.793	13.69
739.817	14.69
739.841	5.69
739.865	15.69
739.889	-6.31
739.912	-9.31
739.936	6.69
739.96	1.69
739.984	9.69
740.008	5.69
740.032	-8.31
740.056	0.69
740.08	6.69
740.104	-7.31
740.127	3.69
740.151	10.69
740.175	23.69
740.199	4.69
740.223	39.69
740.247	6.69
740.271	17.69
740.295	-0.31
740.318	-14.31
740.342	6.69
740.366	16.69
740.39	11.69
740.414	3.69
740.438	-2.31
740.461	10.69
740.485	21.69
740.509	2.69
740.533	9.69
740.557	2.69
740.581	-3.31
740.604	3.69
740.628	5.69
740.652	6.69
740.676	6.69
740.7	9.69
740.723	1.69
740.747	-7.31
740.771	5.69
740.795	-2.31
740.819	13.69
740.842	-4.31
740.866	18.69
740.89	-2.31
740.914	6.69
740.938	-13.31
740.961	13.69
740.985	14.69
741.009	-3.31
741.033	16.69
741.056	14.69
741.08	6.69
741.104	-2.31
741.128	-3.31
741.151	9.69
741.175	-1.31
741.199	14.69
741.223	12.69
741.246	-2.31
741.27	5.69
741.294	-1.31
741.318	0.69
741.341	3.69
741.365	15.69
741.389	10.69
741.413	15.69
741.436	8.69
741.46	3.69
741.484	10.69
741.507	-3.31
741.531	32.69
741.555	10.69
741.579	19.69
741.602	26.69
741.626	11.69
741.65	-0.31
741.673	1.69
741.697	23.69
741.721	20.69
741.744	-9.31
741.768	6.69
741.792	7.69
741.815	-8.31
741.839	15.69
741.863	3.69
741.886	7.69
741.91	27.69
741.934	9.69
741.957	-1.31
741.981	1.69
742.005	4.69
742.028	-0.31
742.052	-9.31
742.075	8.69
742.099	16.69
742.123	-7.31
742.146	14.69
742.17	-0.31
742.194	1.69
742.217	-9.31
742.241	-0.31
742.264	-0.31
742.288	16.69
742.312	1.69
742.335	8.69
742.359	8.69
742.382	17.69
742.406	18.69
742.43	-8.31
742.453	6.69
742.477	-13.31
742.5	1.69
742.524	-7.31
742.548	-1.31
742.571	8.69
742.595	-5.31
742.618	1.69
742.642	-11.31
742.665	6.69
742.689	-2.31
742.712	11.69
742.736	3.69
742.76	-1.31
742.783	-5.31
742.807	3.69
742.83	25.69
742.854	-1.31
742.877	-2.31
742.901	-6.31
742.924	2.69
742.948	12.69
742.971	17.69
742.995	16.69
743.018	1.69
743.042	6.69
743.065	6.69
743.089	-6.31
743.112	-0.31
743.136	3.69
743.159	6.69
743.183	-4.31
743.206	15.69
743.23	11.69
743.253	8.69
743.277	4.69
743.3	0.69
743.324	19.69
743.347	6.69
743.371	11.69
743.394	8.69
743.418	27.69
743.441	-0.31
743.465	1.69
743.488	8.69
743.512	-2.31
743.535	-2.31
743.558	-9.31
743.582	-7.31
743.605	-4.31
743.629	-8.31
743.652	9.69
743.676	6.69
743.699	12.69
743.723	8.69
743.746	10.69
743.769	2.69
743.793	7.69
743.816	-6.31
743.84	-4.31
743.863	4.69
743.886	3.69
743.91	0.69
743.933	2.69
743.957	11.69
743.98	4.69
744.003	13.69
744.027	-7.31
744.05	-8.31
744.074	21.69
744.097	-12.31
744.12	5.69
744.144	-1.31
744.167	19.69
744.19	15.69
744.214	7.69
744.237	-0.31
744.26	7.69
744.284	13.69
744.307	-13.31
744.331	1.69
744.354	-15.31
744.377	-6.31
744.401	2.69
744.424	-6.31
744.447	-15.31
744.471	3.69
