Data from HighRes_H2D2_15_04_11_07_2024_HR4C61891__60__15-05-40-443.txt Node

Date: Thu Nov 07 15:05:40 EST 2024
User: crc00042
Spectrometer: HR4C6189
Trigger mode: 4
Integration Time (sec): 1.000000E-1
Scans to average: 1
Electric dark correction enabled: true
Nonlinearity correction enabled: false
Boxcar width: 0
XAxis mode: Wavelengths
Number of Pixels in Spectrum: 3648
>>>>>Begin Spectral Data<<<<<
639.567	-59.85
639.602	-59.85
639.636	-59.85
639.67	-37.85
639.704	-9.85
639.738	-4.85
639.773	8.15
639.807	-3.85
639.841	14.15
639.875	13.15
639.909	-0.85
639.943	-15.85
639.978	4.15
640.012	0.15
640.046	-2.85
640.08	9.15
640.114	-7.85
640.148	-12.85
640.182	-1.85
640.217	-0.85
640.251	14.15
640.285	3.15
640.319	-10.85
640.353	3.15
640.387	1.15
640.421	-0.85
640.455	11.15
640.49	-3.85
640.524	2.15
640.558	4.15
640.592	11.15
640.626	3.15
640.66	13.15
640.694	6.15
640.728	14.15
640.762	9.15
640.796	25.15
640.83	18.15
640.865	-13.85
640.899	-5.85
640.933	-12.85
640.967	-1.85
641.001	3.15
641.035	-4.85
641.069	-3.85
641.103	-8.85
641.137	15.15
641.171	-13.85
641.205	-2.85
641.239	-2.85
641.273	-0.85
641.307	6.15
641.341	3.15
641.375	-5.85
641.409	-7.85
641.443	-4.85
641.477	-10.85
641.511	7.15
641.545	16.15
641.579	5.15
641.614	14.15
641.648	16.15
641.682	-0.85
641.716	1.15
641.75	3.15
641.784	-6.85
641.818	-0.85
641.852	12.15
641.886	6.15
641.919	32.15
641.953	17.15
641.987	-9.85
642.021	-3.85
642.055	14.15
642.089	14.15
642.123	3.15
642.157	-1.85
642.191	-19.85
642.225	8.15
642.259	-21.85
642.293	-0.85
642.327	9.15
642.361	4.15
642.395	15.15
642.429	13.15
642.463	9.15
642.497	21.15
642.531	0.15
642.565	-1.85
642.599	15.15
642.633	2.15
642.666	25.15
642.7	10.15
642.734	20.15
642.768	-7.85
642.802	7.15
642.836	2.15
642.87	6.15
642.904	10.15
642.938	16.15
642.972	3.15
643.005	-2.85
643.039	16.15
643.073	4.15
643.107	6.15
643.141	13.15
643.175	20.15
643.209	10.15
643.243	-2.85
643.276	-2.85
643.31	-11.85
643.344	-6.85
643.378	12.15
643.412	-15.85
643.446	-15.85
643.48	-14.85
643.513	10.15
643.547	-9.85
643.581	-15.85
643.615	6.15
643.649	8.15
643.683	4.15
643.716	-4.85
643.75	10.15
643.784	-7.85
643.818	17.15
643.852	18.15
643.886	4.15
643.919	14.15
643.953	1.15
643.987	-10.85
644.021	3.15
644.055	13.15
644.088	-0.85
644.122	-5.85
644.156	-2.85
644.19	10.15
644.224	3.15
644.257	0.15
644.291	11.15
644.325	-12.85
644.359	-11.85
644.392	33.15
644.426	22.15
644.46	-5.85
644.494	4.15
644.527	-8.85
644.561	-5.85
644.595	-11.85
644.629	-17.85
644.662	-13.85
644.696	11.15
644.73	10.15
644.764	-12.85
644.797	1.15
644.831	5.15
644.865	9.15
644.899	4.15
644.932	23.15
644.966	10.15
645	11.15
645.033	4.15
645.067	-2.85
645.101	4.15
645.135	4.15
645.168	-1.85
645.202	4.15
645.236	-1.85
645.269	8.15
645.303	-11.85
645.337	-17.85
645.37	-7.85
645.404	8.15
645.438	11.15
645.471	-3.85
645.505	26.15
645.539	11.15
645.572	10.15
645.606	-5.85
645.64	20.15
645.673	8.15
645.707	18.15
645.741	-11.85
645.774	-9.85
645.808	-3.85
645.842	2.15
645.875	11.15
645.909	1.15
645.943	-7.85
645.976	3.15
646.01	12.15
646.043	11.15
646.077	22.15
646.111	18.15
646.144	14.15
646.178	7.15
646.212	-5.85
646.245	7.15
646.279	-1.85
646.312	21.15
646.346	27.15
646.38	-2.85
646.413	10.15
646.447	11.15
646.48	10.15
646.514	18.15
646.547	1.15
646.581	0.15
646.615	-1.85
646.648	-25.85
646.682	-14.85
646.715	-5.85
646.749	11.15
646.782	-3.85
646.816	-6.85
646.85	2.15
646.883	-1.85
646.917	8.15
646.95	14.15
646.984	4.15
647.017	12.15
647.051	11.15
647.084	12.15
647.118	3.15
647.151	2.15
647.185	0.15
647.218	-7.85
647.252	10.15
647.285	-3.85
647.319	-10.85
647.353	11.15
647.386	16.15
647.42	17.15
647.453	10.15
647.487	4.15
647.52	3.15
647.553	17.15
647.587	16.15
647.62	8.15
647.654	4.15
647.687	1.15
647.721	4.15
647.754	0.15
647.788	26.15
647.821	-8.85
647.855	6.15
647.888	16.15
647.922	25.15
647.955	3.15
647.989	20.15
648.022	8.15
648.055	16.15
648.089	5.15
648.122	13.15
648.156	9.15
648.189	3.15
648.223	1.15
648.256	18.15
648.29	13.15
648.323	-5.85
648.356	10.15
648.39	-6.85
648.423	4.15
648.457	4.15
648.49	15.15
648.523	16.15
648.557	3.15
648.59	0.15
648.624	1.15
648.657	14.15
648.69	15.15
648.724	30.15
648.757	27.15
648.791	4.15
648.824	1.15
648.857	24.15
648.891	6.15
648.924	0.15
648.957	25.15
648.991	0.15
649.024	15.15
649.057	12.15
649.091	-12.85
649.124	26.15
649.158	15.15
649.191	8.15
649.224	4.15
649.258	6.15
649.291	5.15
649.324	12.15
649.358	-1.85
649.391	7.15
649.424	23.15
649.458	13.15
649.491	3.15
649.524	11.15
649.557	-0.85
649.591	-16.85
649.624	22.15
649.657	7.15
649.691	1.15
649.724	16.15
649.757	-9.85
649.791	8.15
649.824	8.15
649.857	-0.85
649.89	-2.85
649.924	-10.85
649.957	9.15
649.99	-0.85
650.023	3.15
650.057	12.15
650.09	23.15
650.123	7.15
650.157	34.15
650.19	10.15
650.223	12.15
650.256	-0.85
650.29	-0.85
650.323	14.15
650.356	10.15
650.389	4.15
650.423	-19.85
650.456	18.15
650.489	-4.85
650.522	20.15
650.555	31.15
650.589	13.15
650.622	16.15
650.655	8.15
650.688	1.15
650.721	16.15
650.755	6.15
650.788	14.15
650.821	4.15
650.854	3.15
650.887	5.15
650.921	0.15
650.954	0.15
650.987	14.15
651.02	8.15
651.053	1.15
651.087	-17.85
651.12	15.15
651.153	14.15
651.186	2.15
651.219	12.15
651.252	21.15
651.286	12.15
651.319	-3.85
651.352	7.15
651.385	3.15
651.418	10.15
651.451	16.15
651.484	11.15
651.518	12.15
651.551	18.15
651.584	-0.85
651.617	22.15
651.65	11.15
651.683	6.15
651.716	1.15
651.749	-16.85
651.783	-1.85
651.816	12.15
651.849	17.15
651.882	20.15
651.915	14.15
651.948	6.15
651.981	-8.85
652.014	6.15
652.047	4.15
652.08	-3.85
652.114	2.15
652.147	4.15
652.18	13.15
652.213	30.15
652.246	14.15
652.279	2.15
652.312	9.15
652.345	-4.85
652.378	9.15
652.411	4.15
652.444	18.15
652.477	15.15
652.51	8.15
652.543	-8.85
652.576	10.15
652.609	-4.85
652.642	11.15
652.675	25.15
652.709	-11.85
652.742	15.15
652.775	24.15
652.808	13.15
652.841	12.15
652.874	11.15
652.907	5.15
652.94	-3.85
652.973	0.15
653.006	7.15
653.039	4.15
653.072	7.15
653.105	-1.85
653.138	-11.85
653.171	-6.85
653.204	-1.85
653.237	35.15
653.27	-11.85
653.303	16.15
653.336	12.15
653.368	-0.85
653.401	8.15
653.434	-2.85
653.467	8.15
653.5	9.15
653.533	-14.85
653.566	-9.85
653.599	11.15
653.632	4.15
653.665	7.15
653.698	-12.85
653.731	1.15
653.764	-3.85
653.797	13.15
653.83	7.15
653.863	9.15
653.896	-6.85
653.929	5.15
653.961	6.15
653.994	16.15
654.027	-7.85
654.06	19.15
654.093	16.15
654.126	11.15
654.159	1.15
654.192	1.15
654.225	1.15
654.258	8.15
654.29	4.15
654.323	16.15
654.356	12.15
654.389	10.15
654.422	9.15
654.455	7.15
654.488	0.15
654.521	-6.85
654.553	0.15
654.586	19.15
654.619	12.15
654.652	-6.85
654.685	14.15
654.718	17.15
654.751	12.15
654.783	9.15
654.816	31.15
654.849	0.15
654.882	-3.85
654.915	5.15
654.948	7.15
654.98	2.15
655.013	-2.85
655.046	3.15
655.079	-12.85
655.112	9.15
655.144	-5.85
655.177	12.15
655.21	18.15
655.243	33.15
655.276	5.15
655.308	6.15
655.341	-13.85
655.374	2.15
655.407	1.15
655.44	9.15
655.472	11.15
655.505	1.15
655.538	0.15
655.571	7.15
655.603	3.15
655.636	2.15
655.669	19.15
655.702	23.15
655.734	4.15
655.767	7.15
655.8	-0.85
655.833	4.15
655.865	16.15
655.898	16.15
655.931	22.15
655.964	29.15
655.996	19.15
656.029	22.15
656.062	41.15
656.095	48.15
656.127	79.15
656.16	220.15
656.193	641.15
656.225	961.15
656.258	543.15
656.291	218.15
656.324	174.15
656.356	376.15
656.389	785.15
656.422	698.15
656.454	257.15
656.487	88.15
656.52	42.15
656.552	18.15
656.585	10.15
656.618	26.15
656.65	26.15
656.683	8.15
656.716	21.15
656.748	-4.85
656.781	-9.85
656.814	4.15
656.846	14.15
656.879	0.15
656.912	5.15
656.944	-16.85
656.977	-5.85
657.01	-0.85
657.042	11.15
657.075	16.15
657.108	-9.85
657.14	-3.85
657.173	11.15
657.205	28.15
657.238	19.15
657.271	9.15
657.303	4.15
657.336	14.15
657.369	-26.85
657.401	-1.85
657.434	14.15
657.466	20.15
657.499	2.15
657.532	5.15
657.564	7.15
657.597	9.15
657.629	10.15
657.662	14.15
657.694	8.15
657.727	-9.85
657.76	6.15
657.792	-2.85
657.825	-3.85
657.857	-12.85
657.89	-8.85
657.922	26.15
657.955	-14.85
657.987	-4.85
658.02	28.15
658.053	19.15
658.085	5.15
658.118	5.15
658.15	12.15
658.183	20.15
658.215	10.15
658.248	4.15
658.28	0.15
658.313	21.15
658.345	-1.85
658.378	20.15
658.41	3.15
658.443	11.15
658.475	6.15
658.508	-6.85
658.54	-1.85
658.573	6.15
658.605	3.15
658.638	2.15
658.67	1.15
658.703	8.15
658.735	3.15
658.768	6.15
658.8	-1.85
658.833	9.15
658.865	5.15
658.898	2.15
658.93	4.15
658.963	4.15
658.995	-17.85
659.028	2.15
659.06	18.15
659.092	-4.85
659.125	0.15
659.157	16.15
659.19	-0.85
659.222	-6.85
659.255	2.15
659.287	-0.85
659.32	2.15
659.352	3.15
659.384	28.15
659.417	14.15
659.449	15.15
659.482	20.15
659.514	-1.85
659.546	4.15
659.579	3.15
659.611	1.15
659.644	8.15
659.676	5.15
659.708	-13.85
659.741	5.15
659.773	1.15
659.806	-3.85
659.838	7.15
659.87	7.15
659.903	0.15
659.935	0.15
659.967	2.15
660	4.15
660.032	-20.85
660.065	9.15
660.097	3.15
660.129	8.15
660.162	-16.85
660.194	5.15
660.226	12.15
660.259	19.15
660.291	21.15
660.323	4.15
660.356	8.15
660.388	-7.85
660.42	-2.85
660.453	13.15
660.485	11.15
660.517	15.15
660.55	17.15
660.582	6.15
660.614	5.15
660.647	4.15
660.679	-8.85
660.711	15.15
660.743	-15.85
660.776	-13.85
660.808	-0.85
660.84	0.15
660.873	4.15
660.905	14.15
660.937	12.15
660.969	8.15
661.002	12.15
661.034	20.15
661.066	-3.85
661.099	-4.85
661.131	13.15
661.163	9.15
661.195	3.15
661.228	19.15
661.26	-3.85
661.292	-1.85
661.324	-0.85
661.357	9.15
661.389	10.15
661.421	12.15
661.453	-2.85
661.485	-0.85
661.518	17.15
661.55	0.15
661.582	-16.85
661.614	10.15
661.647	16.15
661.679	4.15
661.711	12.15
661.743	6.15
661.775	8.15
661.808	23.15
661.84	0.15
661.872	8.15
661.904	15.15
661.936	23.15
661.969	-5.85
662.001	1.15
662.033	2.15
662.065	2.15
662.097	17.15
662.129	15.15
662.162	2.15
662.194	13.15
662.226	8.15
662.258	18.15
662.29	11.15
662.322	-4.85
662.355	-9.85
662.387	12.15
662.419	4.15
662.451	14.15
662.483	12.15
662.515	-4.85
662.547	-5.85
662.58	10.15
662.612	-1.85
662.644	-4.85
662.676	9.15
662.708	2.15
662.74	2.15
662.772	11.15
662.804	17.15
662.836	12.15
662.869	0.15
662.901	13.15
662.933	16.15
662.965	35.15
662.997	28.15
663.029	0.15
663.061	-2.85
663.093	1.15
663.125	10.15
663.157	17.15
663.189	13.15
663.221	13.15
663.254	5.15
663.286	6.15
663.318	-12.85
663.35	13.15
663.382	-7.85
663.414	5.15
663.446	9.15
663.478	9.15
663.51	24.15
663.542	-1.85
663.574	24.15
663.606	11.15
663.638	-10.85
663.67	-11.85
663.702	-0.85
663.734	8.15
663.766	11.15
663.798	-1.85
663.83	-3.85
663.862	19.15
663.894	-0.85
663.926	-15.85
663.958	14.15
663.99	-6.85
664.022	-4.85
664.054	4.15
664.086	-12.85
664.118	-4.85
664.15	-21.85
664.182	4.15
664.214	-6.85
664.246	9.15
664.278	4.15
664.31	4.15
664.342	10.15
664.374	7.15
664.406	4.15
664.438	-6.85
664.47	24.15
664.502	2.15
664.534	7.15
664.566	6.15
664.598	11.15
664.63	7.15
664.662	4.15
664.693	1.15
664.725	1.15
664.757	5.15
664.789	-0.85
664.821	10.15
664.853	12.15
664.885	11.15
664.917	-2.85
664.949	10.15
664.981	29.15
665.013	6.15
665.045	1.15
665.076	10.15
665.108	3.15
665.14	5.15
665.172	8.15
665.204	10.15
665.236	14.15
665.268	25.15
665.3	16.15
665.331	-5.85
665.363	-10.85
665.395	-7.85
665.427	4.15
665.459	13.15
665.491	3.15
665.523	1.15
665.555	-0.85
665.586	5.15
665.618	-1.85
665.65	3.15
665.682	3.15
665.714	6.15
665.746	-17.85
665.777	3.15
665.809	4.15
665.841	3.15
665.873	-9.85
665.905	2.15
665.937	16.15
665.968	19.15
666	14.15
666.032	26.15
666.064	14.15
666.096	-5.85
666.127	-0.85
666.159	8.15
666.191	4.15
666.223	-7.85
666.255	11.15
666.286	10.15
666.318	16.15
666.35	17.15
666.382	1.15
666.413	-2.85
666.445	-0.85
666.477	-4.85
666.509	-1.85
666.54	7.15
666.572	-8.85
666.604	-2.85
666.636	-7.85
666.667	19.15
666.699	22.15
666.731	3.15
666.763	-10.85
666.794	3.15
666.826	12.15
666.858	1.15
666.89	3.15
666.921	14.15
666.953	0.15
666.985	21.15
667.017	23.15
667.048	6.15
667.08	-0.85
667.112	-0.85
667.143	-17.85
667.175	21.15
667.207	-6.85
667.238	6.15
667.27	19.15
667.302	20.15
667.334	-1.85
667.365	18.15
667.397	6.15
667.429	-18.85
667.46	14.15
667.492	10.15
667.524	11.15
667.555	-6.85
667.587	8.15
667.619	5.15
667.65	-21.85
667.682	12.15
667.714	9.15
667.745	9.15
667.777	14.15
667.808	24.15
667.84	11.15
667.872	8.15
667.903	11.15
667.935	3.15
667.967	13.15
667.998	12.15
668.03	3.15
668.061	4.15
668.093	6.15
668.125	5.15
668.156	12.15
668.188	-4.85
668.22	16.15
668.251	26.15
668.283	16.15
668.314	10.15
668.346	2.15
668.377	18.15
668.409	-4.85
668.441	-8.85
668.472	12.15
668.504	23.15
668.535	8.15
668.567	21.15
668.599	18.15
668.63	-2.85
668.662	-5.85
668.693	28.15
668.725	9.15
668.756	13.15
668.788	10.15
668.819	10.15
668.851	9.15
668.882	14.15
668.914	2.15
668.946	10.15
668.977	3.15
669.009	9.15
669.04	3.15
669.072	10.15
669.103	14.15
669.135	3.15
669.166	8.15
669.198	14.15
669.229	18.15
669.261	3.15
669.292	-7.85
669.324	10.15
669.355	16.15
669.387	-12.85
669.418	13.15
669.45	-0.85
669.481	18.15
669.513	6.15
669.544	1.15
669.576	5.15
669.607	5.15
669.639	18.15
669.67	8.15
669.701	25.15
669.733	5.15
669.764	5.15
669.796	-6.85
669.827	2.15
669.859	-0.85
669.89	3.15
669.922	9.15
669.953	7.15
669.985	9.15
670.016	26.15
670.047	2.15
670.079	7.15
670.11	0.15
670.142	9.15
670.173	2.15
670.204	15.15
670.236	-6.85
670.267	-5.85
670.299	10.15
670.33	3.15
670.362	8.15
670.393	-0.85
670.424	10.15
670.456	3.15
670.487	9.15
670.518	10.15
670.55	30.15
670.581	15.15
670.613	11.15
670.644	3.15
670.675	-5.85
670.707	8.15
670.738	12.15
670.769	4.15
670.801	4.15
670.832	5.15
670.864	-1.85
670.895	10.15
670.926	7.15
670.958	-0.85
670.989	7.15
671.02	10.15
671.052	3.15
671.083	7.15
671.114	0.15
671.146	1.15
671.177	19.15
671.208	21.15
671.24	4.15
671.271	10.15
671.302	14.15
671.333	10.15
671.365	9.15
671.396	-6.85
671.427	5.15
671.459	10.15
671.49	0.15
671.521	26.15
671.553	15.15
671.584	33.15
671.615	-14.85
671.646	8.15
671.678	4.15
671.709	-8.85
671.74	-10.85
671.771	-4.85
671.803	-3.85
671.834	4.15
671.865	-2.85
671.896	10.15
671.928	10.15
671.959	7.15
671.99	-18.85
672.021	-1.85
672.053	-5.85
672.084	3.15
672.115	3.15
672.146	-6.85
672.178	6.15
672.209	7.15
672.24	0.15
672.271	46.15
672.303	11.15
672.334	-2.85
672.365	5.15
672.396	6.15
672.427	9.15
672.459	8.15
672.49	35.15
672.521	17.15
672.552	6.15
672.583	21.15
672.615	11.15
672.646	13.15
672.677	-1.85
672.708	-3.85
672.739	0.15
672.77	5.15
672.802	16.15
672.833	12.15
672.864	5.15
672.895	6.15
672.926	-1.85
672.957	3.15
672.989	-2.85
673.02	4.15
673.051	-2.85
673.082	4.15
673.113	-5.85
673.144	-2.85
673.175	1.15
673.206	-7.85
673.238	-0.85
673.269	8.15
673.3	13.15
673.331	2.15
673.362	-22.85
673.393	-7.85
673.424	19.15
673.455	13.15
673.487	8.15
673.518	23.15
673.549	-2.85
673.58	8.15
673.611	13.15
673.642	4.15
673.673	-18.85
673.704	6.15
673.735	4.15
673.766	-8.85
673.797	-2.85
673.828	-0.85
673.86	14.15
673.891	0.15
673.922	-3.85
673.953	2.15
673.984	1.15
674.015	9.15
674.046	8.15
674.077	20.15
674.108	-0.85
674.139	11.15
674.17	-1.85
674.201	-3.85
674.232	3.15
674.263	-4.85
674.294	-3.85
674.325	-7.85
674.356	-2.85
674.387	23.15
674.418	16.15
674.449	6.15
674.48	5.15
674.511	-1.85
674.542	4.15
674.573	-0.85
674.604	4.15
674.635	2.15
674.666	23.15
674.697	20.15
674.728	13.15
674.759	5.15
674.79	-16.85
674.821	4.15
674.852	0.15
674.883	-9.85
674.914	-2.85
674.945	-13.85
674.976	3.15
675.007	-1.85
675.038	-20.85
675.069	-2.85
675.1	0.15
675.131	4.15
675.162	-12.85
675.193	-12.85
675.224	6.15
675.254	12.15
675.285	8.15
675.316	18.15
675.347	1.15
675.378	-3.85
675.409	-10.85
675.44	16.15
675.471	14.15
675.502	2.15
675.533	11.15
675.564	3.15
675.595	12.15
675.625	26.15
675.656	8.15
675.687	9.15
675.718	-10.85
675.749	19.15
675.78	10.15
675.811	-7.85
675.842	2.15
675.873	5.15
675.903	-2.85
675.934	5.15
675.965	-9.85
675.996	-6.85
676.027	10.15
676.058	16.15
676.089	2.15
676.119	4.15
676.15	10.15
676.181	4.15
676.212	3.15
676.243	9.15
676.274	12.15
676.304	7.15
676.335	-2.85
676.366	-1.85
676.397	-5.85
676.428	-11.85
676.459	-5.85
676.489	26.15
676.52	18.15
676.551	-14.85
676.582	7.15
676.613	8.15
676.643	-2.85
676.674	18.15
676.705	16.15
676.736	28.15
676.767	20.15
676.797	9.15
676.828	4.15
676.859	-5.85
676.89	-10.85
676.92	6.15
676.951	-1.85
676.982	20.15
677.013	1.15
677.044	22.15
677.074	-0.85
677.105	0.15
677.136	0.15
677.167	-5.85
677.197	1.15
677.228	4.15
677.259	-7.85
677.289	-0.85
677.32	-7.85
677.351	6.15
677.382	1.15
677.412	9.15
677.443	17.15
677.474	19.15
677.505	0.15
677.535	-3.85
677.566	3.15
677.597	-21.85
677.627	-7.85
677.658	28.15
677.689	9.15
677.72	7.15
677.75	13.15
677.781	-4.85
677.812	9.15
677.842	23.15
677.873	11.15
677.904	7.15
677.934	-0.85
677.965	-5.85
677.996	-9.85
678.026	14.15
678.057	-0.85
678.088	-15.85
678.118	-5.85
678.149	-6.85
678.18	6.15
678.21	9.15
678.241	12.15
678.272	-7.85
678.302	5.15
678.333	18.15
678.363	23.15
678.394	12.15
678.425	10.15
678.455	1.15
678.486	20.15
678.517	3.15
678.547	5.15
678.578	1.15
678.608	-15.85
678.639	5.15
678.67	12.15
678.7	2.15
678.731	4.15
678.761	2.15
678.792	15.15
678.823	14.15
678.853	16.15
678.884	5.15
678.914	11.15
678.945	6.15
678.975	-2.85
679.006	8.15
679.037	7.15
679.067	13.15
679.098	12.15
679.128	3.15
679.159	-1.85
679.189	14.15
679.22	-7.85
679.25	12.15
679.281	6.15
679.312	13.15
679.342	11.15
679.373	36.15
679.403	14.15
679.434	15.15
679.464	3.15
679.495	-1.85
679.525	5.15
679.556	7.15
679.586	10.15
679.617	12.15
679.647	12.15
679.678	15.15
679.708	-2.85
679.739	2.15
679.769	4.15
679.8	16.15
679.83	8.15
679.861	1.15
679.891	-12.85
679.922	-23.85
679.952	-2.85
679.983	14.15
680.013	13.15
680.044	1.15
680.074	14.15
680.105	-1.85
680.135	9.15
680.165	13.15
680.196	15.15
680.226	14.15
680.257	18.15
680.287	11.15
680.318	-5.85
680.348	-16.85
680.379	-6.85
680.409	14.15
680.439	8.15
680.47	7.15
680.5	-2.85
680.531	-2.85
680.561	5.15
680.592	18.15
680.622	18.15
680.652	5.15
680.683	24.15
680.713	-3.85
680.744	11.15
680.774	11.15
680.804	14.15
680.835	4.15
680.865	0.15
680.896	7.15
680.926	21.15
680.956	1.15
680.987	14.15
681.017	4.15
681.047	9.15
681.078	-8.85
681.108	6.15
681.139	11.15
681.169	0.15
681.199	0.15
681.23	6.15
681.26	0.15
681.29	21.15
681.321	-7.85
681.351	-5.85
681.381	-7.85
681.412	13.15
681.442	2.15
681.472	14.15
681.503	12.15
681.533	16.15
681.563	3.15
681.594	2.15
681.624	24.15
681.654	2.15
681.685	8.15
681.715	2.15
681.745	11.15
681.775	0.15
681.806	-2.85
681.836	15.15
681.866	-1.85
681.897	-1.85
681.927	4.15
681.957	-5.85
681.987	1.15
682.018	8.15
682.048	14.15
682.078	12.15
682.109	32.15
682.139	13.15
682.169	13.15
682.199	12.15
682.23	-4.85
682.26	8.15
682.29	5.15
682.32	-7.85
682.351	-2.85
682.381	8.15
682.411	-3.85
682.441	-2.85
682.472	-13.85
682.502	-3.85
682.532	13.15
682.562	-2.85
682.592	20.15
682.623	21.15
682.653	13.15
682.683	-6.85
682.713	11.15
682.743	12.15
682.774	-1.85
682.804	15.15
682.834	20.15
682.864	-7.85
682.894	10.15
682.925	-1.85
682.955	4.15
682.985	-8.85
683.015	-7.85
683.045	21.15
683.076	-1.85
683.106	-1.85
683.136	-4.85
683.166	-4.85
683.196	-11.85
683.226	7.15
683.257	0.15
683.287	-1.85
683.317	-3.85
683.347	-4.85
683.377	-2.85
683.407	5.15
683.437	8.15
683.468	16.15
683.498	-8.85
683.528	-2.85
683.558	5.15
683.588	6.15
683.618	-4.85
683.648	-13.85
683.678	7.15
683.708	11.15
683.739	4.15
683.769	2.15
683.799	0.15
683.829	11.15
683.859	6.15
683.889	15.15
683.919	-8.85
683.949	5.15
683.979	7.15
684.009	1.15
684.039	-5.85
684.07	-0.85
684.1	12.15
684.13	10.15
684.16	17.15
684.19	-8.85
684.22	11.15
684.25	4.15
684.28	-12.85
684.31	0.15
684.34	4.15
684.37	0.15
684.4	7.15
684.43	17.15
684.46	7.15
684.49	12.15
684.52	13.15
684.55	6.15
684.58	10.15
684.61	13.15
684.64	13.15
684.67	12.15
684.7	5.15
684.73	12.15
684.76	11.15
684.79	20.15
684.82	-2.85
684.85	2.15
684.88	28.15
684.91	14.15
684.94	-0.85
684.97	0.15
685	-4.85
685.03	-11.85
685.06	5.15
685.09	-3.85
685.12	20.15
685.15	-3.85
685.18	8.15
685.21	0.15
685.24	10.15
685.27	26.15
685.3	2.15
685.33	13.15
685.36	-2.85
685.39	11.15
685.42	0.15
685.45	3.15
685.48	8.15
685.51	1.15
685.54	39.15
685.569	19.15
685.599	8.15
685.629	2.15
685.659	10.15
685.689	6.15
685.719	8.15
685.749	13.15
685.779	19.15
685.809	17.15
685.839	7.15
685.869	-1.85
685.898	-0.85
685.928	-7.85
685.958	-3.85
685.988	9.15
686.018	4.15
686.048	4.15
686.078	6.15
686.108	12.15
686.137	-4.85
686.167	25.15
686.197	4.15
686.227	20.15
686.257	34.15
686.287	10.15
686.317	7.15
686.346	-3.85
686.376	12.15
686.406	2.15
686.436	15.15
686.466	-2.85
686.496	12.15
686.525	4.15
686.555	3.15
686.585	16.15
686.615	35.15
686.645	10.15
686.675	-2.85
686.704	-1.85
686.734	11.15
686.764	11.15
686.794	-0.85
686.824	12.15
686.853	22.15
686.883	12.15
686.913	18.15
686.943	-5.85
686.973	-3.85
687.002	-7.85
687.032	5.15
687.062	-5.85
687.092	20.15
687.121	12.15
687.151	6.15
687.181	-8.85
687.211	14.15
687.24	11.15
687.27	18.15
687.3	11.15
687.33	10.15
687.359	-18.85
687.389	1.15
687.419	5.15
687.449	5.15
687.478	4.15
687.508	11.15
687.538	1.15
687.568	12.15
687.597	-5.85
687.627	-10.85
687.657	-7.85
687.686	17.15
687.716	13.15
687.746	-0.85
687.776	10.15
687.805	19.15
687.835	16.15
687.865	27.15
687.894	21.15
687.924	4.15
687.954	5.15
687.983	10.15
688.013	18.15
688.043	8.15
688.072	5.15
688.102	11.15
688.132	14.15
688.161	7.15
688.191	-6.85
688.221	18.15
688.25	6.15
688.28	20.15
688.31	5.15
688.339	-1.85
688.369	5.15
688.399	-5.85
688.428	12.15
688.458	6.15
688.488	4.15
688.517	22.15
688.547	1.15
688.576	24.15
688.606	15.15
688.636	-5.85
688.665	10.15
688.695	12.15
688.725	22.15
688.754	16.15
688.784	2.15
688.813	13.15
688.843	8.15
688.873	-2.85
688.902	4.15
688.932	3.15
688.961	6.15
688.991	13.15
689.02	5.15
689.05	-10.85
689.08	8.15
689.109	25.15
689.139	9.15
689.168	11.15
689.198	7.15
689.227	-0.85
689.257	0.15
689.287	23.15
689.316	-2.85
689.346	-25.85
689.375	-7.85
689.405	2.15
689.434	4.15
689.464	13.15
689.493	15.15
689.523	1.15
689.552	12.15
689.582	4.15
689.611	13.15
689.641	23.15
689.67	15.15
689.7	14.15
689.73	13.15
689.759	16.15
689.789	9.15
689.818	-12.85
689.848	3.15
689.877	40.15
689.906	10.15
689.936	-3.85
689.965	-2.85
689.995	12.15
690.024	27.15
690.054	1.15
690.083	4.15
690.113	10.15
690.142	12.15
690.172	0.15
690.201	28.15
690.231	1.15
690.26	15.15
690.29	9.15
690.319	-7.85
690.348	3.15
690.378	9.15
690.407	7.15
690.437	-6.85
690.466	6.15
690.496	5.15
690.525	14.15
690.555	4.15
690.584	6.15
690.613	6.15
690.643	8.15
690.672	10.15
690.702	16.15
690.731	12.15
690.76	12.15
690.79	13.15
690.819	5.15
690.849	10.15
690.878	8.15
690.907	1.15
690.937	-0.85
690.966	2.15
690.996	9.15
691.025	-2.85
691.054	22.15
691.084	4.15
691.113	9.15
691.142	3.15
691.172	2.15
691.201	8.15
691.23	-5.85
691.26	26.15
691.289	4.15
691.319	-9.85
691.348	-0.85
691.377	20.15
691.407	30.15
691.436	16.15
691.465	13.15
691.495	3.15
691.524	-4.85
691.553	4.15
691.583	-12.85
691.612	9.15
691.641	16.15
691.67	6.15
691.7	9.15
691.729	6.15
691.758	-2.85
691.788	1.15
691.817	-12.85
691.846	-2.85
691.876	3.15
691.905	3.15
691.934	-8.85
691.963	19.15
691.993	20.15
692.022	-1.85
692.051	-4.85
692.081	9.15
692.11	11.15
692.139	18.15
692.168	2.15
692.198	11.15
692.227	21.15
692.256	6.15
692.285	10.15
692.315	-1.85
692.344	10.15
692.373	14.15
692.402	-3.85
692.432	7.15
692.461	12.15
692.49	-0.85
692.519	-2.85
692.548	5.15
692.578	10.15
692.607	-7.85
692.636	13.15
692.665	15.15
692.694	-3.85
692.724	-2.85
692.753	6.15
692.782	18.15
692.811	4.15
692.84	14.15
692.87	23.15
692.899	11.15
692.928	9.15
692.957	3.15
692.986	17.15
693.016	4.15
693.045	4.15
693.074	20.15
693.103	1.15
693.132	-1.85
693.161	19.15
693.191	24.15
693.22	-5.85
693.249	12.15
693.278	18.15
693.307	6.15
693.336	-2.85
693.365	-3.85
693.395	-5.85
693.424	12.15
693.453	23.15
693.482	-1.85
693.511	12.15
693.54	18.15
693.569	11.15
693.598	10.15
693.628	1.15
693.657	17.15
693.686	11.15
693.715	4.15
693.744	23.15
693.773	16.15
693.802	12.15
693.831	-18.85
693.86	11.15
693.889	-12.85
693.919	15.15
693.948	11.15
693.977	19.15
694.006	12.15
694.035	7.15
694.064	20.15
694.093	15.15
694.122	26.15
694.151	10.15
694.18	14.15
694.209	13.15
694.238	21.15
694.267	49.15
694.296	8.15
694.325	14.15
694.354	19.15
694.383	22.15
694.412	3.15
694.441	1.15
694.471	-3.85
694.5	1.15
694.529	11.15
694.558	20.15
694.587	8.15
694.616	10.15
694.645	15.15
694.674	9.15
694.703	17.15
694.732	8.15
694.761	17.15
694.79	18.15
694.819	-4.85
694.848	12.15
694.877	17.15
694.906	20.15
694.935	17.15
694.963	11.15
694.992	-3.85
695.021	2.15
695.05	-1.85
695.079	9.15
695.108	8.15
695.137	23.15
695.166	10.15
695.195	-2.85
695.224	15.15
695.253	-10.85
695.282	2.15
695.311	11.15
695.34	12.15
695.369	8.15
695.398	5.15
695.427	33.15
695.456	9.15
695.485	12.15
695.513	7.15
695.542	11.15
695.571	19.15
695.6	18.15
695.629	1.15
695.658	22.15
695.687	1.15
695.716	7.15
695.745	35.15
695.774	12.15
695.802	9.15
695.831	11.15
695.86	23.15
695.889	31.15
695.918	13.15
695.947	14.15
695.976	6.15
696.005	1.15
696.033	10.15
696.062	0.15
696.091	2.15
696.12	-0.85
696.149	11.15
696.178	13.15
696.207	29.15
696.235	-16.85
696.264	-0.85
696.293	9.15
696.322	3.15
696.351	22.15
696.38	1.15
696.408	-0.85
696.437	2.15
696.466	12.15
696.495	5.15
696.524	21.15
696.553	28.15
696.581	-2.85
696.61	3.15
696.639	6.15
696.668	1.15
696.697	5.15
696.725	24.15
696.754	10.15
696.783	2.15
696.812	-8.85
696.84	6.15
696.869	17.15
696.898	6.15
696.927	1.15
696.956	18.15
696.984	-14.85
697.013	-10.85
697.042	-7.85
697.071	-1.85
697.099	23.15
697.128	15.15
697.157	10.15
697.186	5.15
697.214	7.15
697.243	-13.85
697.272	-13.85
697.301	20.15
697.329	14.15
697.358	2.15
697.387	30.15
697.415	5.15
697.444	6.15
697.473	15.15
697.502	0.15
697.53	13.15
697.559	0.15
697.588	5.15
697.616	-5.85
697.645	-3.85
697.674	13.15
697.703	3.15
697.731	17.15
697.76	20.15
697.789	-1.85
697.817	4.15
697.846	24.15
697.875	-1.85
697.903	36.15
697.932	7.15
697.961	14.15
697.989	11.15
698.018	9.15
698.047	14.15
698.075	15.15
698.104	1.15
698.133	6.15
698.161	-12.85
698.19	2.15
698.218	9.15
698.247	21.15
698.276	8.15
698.304	24.15
698.333	14.15
698.362	7.15
698.39	15.15
698.419	18.15
698.447	-4.85
698.476	-0.85
698.505	1.15
698.533	1.15
698.562	2.15
698.591	2.15
698.619	4.15
698.648	-3.85
698.676	15.15
698.705	-1.85
698.733	-5.85
698.762	10.15
698.791	8.15
698.819	3.15
698.848	2.15
698.876	0.15
698.905	22.15
698.933	17.15
698.962	13.15
698.991	11.15
699.019	26.15
699.048	-3.85
699.076	7.15
699.105	11.15
699.133	6.15
699.162	8.15
699.19	23.15
699.219	25.15
699.248	7.15
699.276	16.15
699.305	-1.85
699.333	5.15
699.362	-4.85
699.39	18.15
699.419	-2.85
699.447	5.15
699.476	15.15
699.504	5.15
699.533	8.15
699.561	4.15
699.59	8.15
699.618	15.15
699.647	9.15
699.675	8.15
699.704	12.15
699.732	9.15
699.761	26.15
699.789	0.15
699.818	15.15
699.846	4.15
699.874	-7.85
699.903	13.15
699.931	10.15
699.96	11.15
699.988	11.15
700.017	8.15
700.045	19.15
700.074	4.15
700.102	5.15
700.13	7.15
700.159	9.15
700.187	10.15
700.216	-3.85
700.244	4.15
700.273	-14.85
700.301	9.15
700.329	10.15
700.358	26.15
700.386	8.15
700.415	-1.85
700.443	5.15
700.472	4.15
700.5	12.15
700.528	8.15
700.557	9.15
700.585	4.15
700.614	9.15
700.642	20.15
700.67	25.15
700.699	17.15
700.727	1.15
700.755	4.15
700.784	-6.85
700.812	2.15
700.841	20.15
700.869	-0.85
700.897	-12.85
700.926	-11.85
700.954	9.15
700.982	7.15
701.011	10.15
701.039	23.15
701.067	11.15
701.096	8.15
701.124	2.15
701.152	-3.85
701.181	0.15
701.209	1.15
701.237	10.15
701.266	7.15
701.294	-5.85
701.322	4.15
701.351	4.15
701.379	10.15
701.407	-0.85
701.435	19.15
701.464	37.15
701.492	35.15
701.52	7.15
701.549	10.15
701.577	1.15
701.605	-8.85
701.634	13.15
701.662	15.15
701.69	0.15
701.718	-13.85
701.747	16.15
701.775	-0.85
701.803	-8.85
701.831	8.15
701.86	-7.85
701.888	22.15
701.916	5.15
701.944	7.15
701.973	12.15
702.001	-10.85
702.029	3.15
702.057	1.15
702.086	7.15
702.114	10.15
702.142	-1.85
702.17	-0.85
702.199	4.15
702.227	-3.85
702.255	14.15
702.283	1.15
702.311	13.15
702.34	4.15
702.368	2.15
702.396	6.15
702.424	17.15
702.452	19.15
702.481	2.15
702.509	-4.85
702.537	16.15
702.565	11.15
702.593	-7.85
702.621	7.15
702.65	9.15
702.678	9.15
702.706	16.15
702.734	8.15
702.762	24.15
702.79	6.15
702.819	22.15
702.847	-1.85
702.875	26.15
702.903	9.15
702.931	1.15
702.959	4.15
702.988	19.15
703.016	2.15
703.044	-0.85
703.072	9.15
703.1	5.15
703.128	4.15
703.156	18.15
703.184	8.15
703.212	15.15
703.241	11.15
703.269	6.15
703.297	-2.85
703.325	10.15
703.353	-3.85
703.381	-3.85
703.409	10.15
703.437	1.15
703.465	22.15
703.493	-4.85
703.522	14.15
703.55	18.15
703.578	6.15
703.606	1.15
703.634	-0.85
703.662	8.15
703.69	5.15
703.718	8.15
703.746	18.15
703.774	3.15
703.802	15.15
703.83	10.15
703.858	-0.85
703.886	2.15
703.914	-8.85
703.942	5.15
703.97	-11.85
703.998	-6.85
704.027	15.15
704.055	12.15
704.083	-0.85
704.111	-1.85
704.139	-14.85
704.167	5.15
704.195	18.15
704.223	0.15
704.251	-5.85
704.279	3.15
704.307	7.15
704.335	8.15
704.363	7.15
704.391	-3.85
704.419	0.15
704.447	-2.85
704.475	-5.85
704.503	10.15
704.531	20.15
704.558	9.15
704.586	6.15
704.614	-5.85
704.642	7.15
704.67	-8.85
704.698	1.15
704.726	11.15
704.754	0.15
704.782	0.15
704.81	1.15
704.838	16.15
704.866	21.15
704.894	-13.85
704.922	9.15
704.95	9.15
704.978	18.15
705.006	4.15
705.034	26.15
705.061	-10.85
705.089	3.15
705.117	2.15
705.145	12.15
705.173	8.15
705.201	14.15
705.229	13.15
705.257	8.15
705.285	24.15
705.313	10.15
705.34	11.15
705.368	13.15
705.396	4.15
705.424	18.15
705.452	14.15
705.48	7.15
705.508	0.15
705.536	-16.85
705.563	4.15
705.591	8.15
705.619	7.15
705.647	-3.85
705.675	11.15
705.703	21.15
705.731	21.15
705.758	16.15
705.786	20.15
705.814	33.15
705.842	22.15
705.87	27.15
705.898	16.15
705.925	1.15
705.953	25.15
705.981	6.15
706.009	2.15
706.037	18.15
706.065	15.15
706.092	-4.85
706.12	6.15
706.148	-2.85
706.176	7.15
706.204	4.15
706.231	3.15
706.259	1.15
706.287	1.15
706.315	-1.85
706.342	8.15
706.37	12.15
706.398	-2.85
706.426	5.15
706.454	10.15
706.481	15.15
706.509	27.15
706.537	3.15
706.565	8.15
706.592	3.15
706.62	12.15
706.648	8.15
706.676	-3.85
706.703	3.15
706.731	8.15
706.759	1.15
706.787	8.15
706.814	-3.85
706.842	7.15
706.87	3.15
706.897	10.15
706.925	-4.85
706.953	12.15
706.981	21.15
707.008	29.15
707.036	7.15
707.064	16.15
707.091	-8.85
707.119	12.15
707.147	6.15
707.174	0.15
707.202	19.15
707.23	7.15
707.258	18.15
707.285	0.15
707.313	1.15
707.341	-7.85
707.368	-11.85
707.396	27.15
707.424	22.15
707.451	9.15
707.479	19.15
707.507	15.15
707.534	6.15
707.562	8.15
707.59	-12.85
707.617	-7.85
707.645	5.15
707.672	-0.85
707.7	17.15
707.728	14.15
707.755	20.15
707.783	11.15
707.811	7.15
707.838	10.15
707.866	12.15
707.893	-3.85
707.921	-0.85
707.949	-0.85
707.976	4.15
708.004	23.15
708.031	12.15
708.059	-5.85
708.087	11.15
708.114	9.15
708.142	7.15
708.169	15.15
708.197	-8.85
708.225	5.15
708.252	4.15
708.28	23.15
708.307	8.15
708.335	-2.85
708.362	10.15
708.39	2.15
708.418	-0.85
708.445	17.15
708.473	-11.85
708.5	-1.85
708.528	6.15
708.555	-2.85
708.583	-4.85
708.61	1.15
708.638	29.15
708.665	-3.85
708.693	4.15
708.72	0.15
708.748	-6.85
708.776	2.15
708.803	4.15
708.831	14.15
708.858	19.15
708.886	12.15
708.913	25.15
708.941	8.15
708.968	11.15
708.996	-1.85
709.023	13.15
709.051	-1.85
709.078	12.15
709.105	10.15
709.133	16.15
709.16	16.15
709.188	10.15
709.215	7.15
709.243	17.15
709.27	-0.85
709.298	5.15
709.325	2.15
709.353	-7.85
709.38	-0.85
709.408	7.15
709.435	14.15
709.462	13.15
709.49	1.15
709.517	7.15
709.545	-1.85
709.572	10.15
709.6	14.15
709.627	14.15
709.655	-8.85
709.682	8.15
709.709	9.15
709.737	11.15
709.764	-6.85
709.792	8.15
709.819	-0.85
709.846	10.15
709.874	0.15
709.901	15.15
709.929	16.15
709.956	9.15
709.983	16.15
710.011	-0.85
710.038	1.15
710.066	10.15
710.093	13.15
710.12	9.15
710.148	-2.85
710.175	1.15
710.202	-0.85
710.23	16.15
710.257	21.15
710.284	6.15
710.312	0.15
710.339	7.15
710.366	14.15
710.394	18.15
710.421	7.15
710.448	7.15
710.476	3.15
710.503	18.15
710.53	23.15
710.558	15.15
710.585	11.15
710.612	-8.85
710.64	10.15
710.667	21.15
710.694	-10.85
710.722	5.15
710.749	11.15
710.776	15.15
710.804	23.15
710.831	4.15
710.858	4.15
710.885	10.15
710.913	-7.85
710.94	6.15
710.967	7.15
710.995	13.15
711.022	6.15
711.049	7.15
711.076	-4.85
711.104	5.15
711.131	-5.85
711.158	3.15
711.185	19.15
711.213	-1.85
711.24	2.15
711.267	11.15
711.294	13.15
711.322	19.15
711.349	1.15
711.376	0.15
711.403	0.15
711.431	6.15
711.458	-3.85
711.485	-2.85
711.512	3.15
711.54	3.15
711.567	16.15
711.594	-0.85
711.621	5.15
711.648	3.15
711.676	4.15
711.703	5.15
711.73	0.15
711.757	14.15
711.784	-1.85
711.812	10.15
711.839	1.15
711.866	6.15
711.893	-0.85
711.92	16.15
711.947	10.15
711.975	-0.85
712.002	-8.85
712.029	17.15
712.056	6.15
712.083	14.15
712.11	-13.85
712.138	7.15
712.165	10.15
712.192	1.15
712.219	3.15
712.246	-0.85
712.273	-8.85
712.3	-3.85
712.328	24.15
712.355	8.15
712.382	5.15
712.409	7.15
712.436	-8.85
712.463	6.15
712.49	12.15
712.517	15.15
712.544	15.15
712.572	16.15
712.599	-7.85
712.626	10.15
712.653	1.15
712.68	8.15
712.707	27.15
712.734	5.15
712.761	2.15
712.788	-7.85
712.815	20.15
712.842	21.15
712.87	5.15
712.897	3.15
712.924	10.15
712.951	0.15
712.978	6.15
713.005	0.15
713.032	12.15
713.059	3.15
713.086	-2.85
713.113	-2.85
713.14	4.15
713.167	7.15
713.194	27.15
713.221	8.15
713.248	6.15
713.275	14.15
713.302	0.15
713.329	11.15
713.356	6.15
713.383	12.15
713.41	22.15
713.437	2.15
713.464	9.15
713.491	22.15
713.518	3.15
713.545	-14.85
713.572	9.15
713.599	16.15
713.626	1.15
713.653	16.15
713.68	3.15
713.707	4.15
713.734	0.15
713.761	-1.85
713.788	11.15
713.815	9.15
713.842	9.15
713.869	14.15
713.896	13.15
713.923	14.15
713.95	1.15
713.977	-7.85
714.004	-0.85
714.031	1.15
714.058	8.15
714.085	9.15
714.112	17.15
714.139	13.15
714.165	3.15
714.192	2.15
714.219	6.15
714.246	13.15
714.273	1.15
714.3	-5.85
714.327	5.15
714.354	35.15
714.381	2.15
714.408	12.15
714.435	11.15
714.461	-0.85
714.488	8.15
714.515	3.15
714.542	-12.85
714.569	-5.85
714.596	3.15
714.623	-2.85
714.65	-13.85
714.677	7.15
714.703	-0.85
714.73	20.15
714.757	2.15
714.784	-1.85
714.811	-11.85
714.838	9.15
714.865	-1.85
714.891	11.15
714.918	-2.85
714.945	-3.85
714.972	21.15
714.999	13.15
715.026	2.15
715.052	24.15
715.079	4.15
715.106	8.15
715.133	0.15
715.16	2.15
715.187	4.15
715.213	19.15
715.24	10.15
715.267	0.15
715.294	4.15
715.321	-7.85
715.347	21.15
715.374	5.15
715.401	-1.85
715.428	1.15
715.455	8.15
715.481	0.15
715.508	13.15
715.535	-18.85
715.562	23.15
715.588	11.15
715.615	9.15
715.642	15.15
715.669	10.15
715.695	7.15
715.722	14.15
715.749	11.15
715.776	20.15
715.802	4.15
715.829	5.15
715.856	-2.85
715.883	11.15
715.909	11.15
715.936	-4.85
715.963	10.15
715.99	-2.85
716.016	12.15
716.043	-4.85
716.07	5.15
716.096	-4.85
716.123	1.15
716.15	-1.85
716.177	5.15
716.203	11.15
716.23	14.15
716.257	3.15
716.283	14.15
716.31	8.15
716.337	12.15
716.363	-8.85
716.39	-1.85
716.417	-0.85
716.443	1.15
716.47	27.15
716.497	7.15
716.523	24.15
716.55	15.15
716.577	4.15
716.603	4.15
716.63	8.15
716.657	25.15
716.683	4.15
716.71	11.15
716.737	14.15
716.763	22.15
716.79	2.15
716.817	2.15
716.843	14.15
716.87	3.15
716.897	11.15
716.923	18.15
716.95	7.15
716.976	-0.85
717.003	4.15
717.03	16.15
717.056	11.15
717.083	11.15
717.109	1.15
717.136	15.15
717.163	7.15
717.189	18.15
717.216	8.15
717.242	2.15
717.269	0.15
717.296	3.15
717.322	11.15
717.349	17.15
717.375	18.15
717.402	14.15
717.428	7.15
717.455	15.15
717.481	14.15
717.508	19.15
717.535	0.15
717.561	-1.85
717.588	-1.85
717.614	-7.85
717.641	4.15
717.667	7.15
717.694	24.15
717.72	8.15
717.747	4.15
717.773	0.15
717.8	18.15
717.826	15.15
717.853	3.15
717.88	13.15
717.906	12.15
717.933	15.15
717.959	16.15
717.986	10.15
718.012	8.15
718.039	16.15
718.065	15.15
718.092	8.15
718.118	5.15
718.144	-11.85
718.171	13.15
718.197	17.15
718.224	-3.85
718.25	9.15
718.277	14.15
718.303	-1.85
718.33	11.15
718.356	-4.85
718.383	-15.85
718.409	-2.85
718.436	-2.85
718.462	0.15
718.489	-2.85
718.515	12.15
718.541	12.15
718.568	10.15
718.594	5.15
718.621	17.15
718.647	7.15
718.674	14.15
718.7	20.15
718.726	8.15
718.753	28.15
718.779	30.15
718.806	-7.85
718.832	-6.85
718.858	1.15
718.885	3.15
718.911	4.15
718.938	13.15
718.964	-1.85
718.99	12.15
719.017	-0.85
719.043	20.15
719.07	19.15
719.096	7.15
719.122	-5.85
719.149	0.15
719.175	7.15
719.201	0.15
719.228	5.15
719.254	12.15
719.281	-3.85
719.307	7.15
719.333	2.15
719.36	6.15
719.386	11.15
719.412	3.15
719.439	-12.85
719.465	15.15
719.491	1.15
719.518	15.15
719.544	10.15
719.57	3.15
719.597	13.15
719.623	27.15
719.649	17.15
719.675	4.15
719.702	-6.85
719.728	11.15
719.754	-0.85
719.781	-6.85
719.807	-1.85
719.833	-5.85
719.86	1.15
719.886	4.15
719.912	8.15
719.938	3.15
719.965	12.15
719.991	20.15
720.017	7.15
720.044	-3.85
720.07	4.15
720.096	17.15
720.122	7.15
720.149	16.15
720.175	27.15
720.201	20.15
720.227	8.15
720.254	7.15
720.28	4.15
720.306	-8.85
720.332	9.15
720.359	15.15
720.385	11.15
720.411	0.15
720.437	23.15
720.463	5.15
720.49	5.15
720.516	9.15
720.542	-10.85
720.568	16.15
720.595	21.15
720.621	8.15
720.647	7.15
720.673	12.15
720.699	5.15
720.725	11.15
720.752	21.15
720.778	11.15
720.804	11.15
720.83	8.15
720.856	-2.85
720.883	3.15
720.909	-4.85
720.935	6.15
720.961	11.15
720.987	1.15
721.013	2.15
721.04	0.15
721.066	-12.85
721.092	9.15
721.118	8.15
721.144	11.15
721.17	1.15
721.196	7.15
721.223	8.15
721.249	9.15
721.275	24.15
721.301	1.15
721.327	22.15
721.353	11.15
721.379	-6.85
721.405	5.15
721.432	17.15
721.458	4.15
721.484	13.15
721.51	2.15
721.536	10.15
721.562	7.15
721.588	0.15
721.614	5.15
721.64	-3.85
721.666	8.15
721.693	3.15
721.719	-0.85
721.745	-0.85
721.771	1.15
721.797	2.15
721.823	-0.85
721.849	23.15
721.875	15.15
721.901	27.15
721.927	18.15
721.953	2.15
721.979	15.15
722.005	-0.85
722.031	-6.85
722.057	10.15
722.083	8.15
722.109	25.15
722.135	7.15
722.161	9.15
722.187	-8.85
722.214	5.15
722.24	2.15
722.266	3.15
722.292	16.15
722.318	10.15
722.344	30.15
722.37	8.15
722.396	19.15
722.422	9.15
722.448	3.15
722.474	-8.85
722.5	16.15
722.526	13.15
722.552	8.15
722.578	18.15
722.603	21.15
722.629	-2.85
722.655	12.15
722.681	-19.85
722.707	0.15
722.733	-0.85
722.759	-9.85
722.785	2.15
722.811	7.15
722.837	7.15
722.863	7.15
722.889	22.15
722.915	-5.85
722.941	10.15
722.967	19.15
722.993	5.15
723.019	8.15
723.045	19.15
723.071	7.15
723.097	9.15
723.122	3.15
723.148	-4.85
723.174	6.15
723.2	8.15
723.226	-1.85
723.252	6.15
723.278	12.15
723.304	10.15
723.33	-2.85
723.356	-4.85
723.381	1.15
723.407	0.15
723.433	0.15
723.459	-7.85
723.485	4.15
723.511	12.15
723.537	-2.85
723.563	3.15
723.588	-0.85
723.614	4.15
723.64	8.15
723.666	5.15
723.692	4.15
723.718	1.15
723.744	21.15
723.769	7.15
723.795	-5.85
723.821	7.15
723.847	2.15
723.873	19.15
723.899	9.15
723.924	1.15
723.95	2.15
723.976	-2.85
724.002	5.15
724.028	9.15
724.053	4.15
724.079	28.15
724.105	13.15
724.131	11.15
724.157	19.15
724.182	12.15
724.208	1.15
724.234	7.15
724.26	12.15
724.286	10.15
724.311	1.15
724.337	17.15
724.363	-2.85
724.389	8.15
724.415	0.15
724.44	10.15
724.466	-2.85
724.492	0.15
724.518	9.15
724.543	11.15
724.569	20.15
724.595	13.15
724.621	7.15
724.646	-3.85
724.672	-8.85
724.698	-0.85
724.723	7.15
724.749	8.15
724.775	14.15
724.801	22.15
724.826	11.15
724.852	14.15
724.878	-5.85
724.904	-22.85
724.929	7.15
724.955	0.15
724.981	-8.85
725.006	3.15
725.032	1.15
725.058	-3.85
725.083	0.15
725.109	3.15
725.135	7.15
725.161	15.15
725.186	9.15
725.212	1.15
725.238	23.15
725.263	10.15
725.289	3.15
725.315	-13.85
725.34	12.15
725.366	5.15
725.392	1.15
725.417	15.15
725.443	27.15
725.468	16.15
725.494	10.15
725.52	24.15
725.545	0.15
725.571	-3.85
725.597	20.15
725.622	6.15
725.648	11.15
725.674	3.15
725.699	5.15
725.725	13.15
725.75	26.15
725.776	-6.85
725.802	5.15
725.827	11.15
725.853	15.15
725.878	4.15
725.904	11.15
725.93	1.15
725.955	-5.85
725.981	-0.85
726.006	1.15
726.032	14.15
726.057	-4.85
726.083	0.15
726.109	16.15
726.134	22.15
726.16	22.15
726.185	3.15
726.211	0.15
726.236	-0.85
726.262	7.15
726.288	28.15
726.313	20.15
726.339	19.15
726.364	9.15
726.39	19.15
726.415	12.15
726.441	-0.85
726.466	7.15
726.492	8.15
726.517	29.15
726.543	22.15
726.568	-6.85
726.594	7.15
726.619	14.15
726.645	13.15
726.67	19.15
726.696	19.15
726.721	4.15
726.747	2.15
726.772	11.15
726.798	15.15
726.823	21.15
726.849	15.15
726.874	12.15
726.9	37.15
726.925	24.15
726.951	13.15
726.976	22.15
727.002	7.15
727.027	11.15
727.053	3.15
727.078	5.15
727.104	6.15
727.129	4.15
727.155	5.15
727.18	6.15
727.205	26.15
727.231	7.15
727.256	7.15
727.282	-4.85
727.307	26.15
727.333	0.15
727.358	-6.85
727.383	-10.85
727.409	3.15
727.434	4.15
727.46	8.15
727.485	2.15
727.511	9.15
727.536	1.15
727.561	-1.85
727.587	-5.85
727.612	-8.85
727.637	-4.85
727.663	4.15
727.688	27.15
727.714	8.15
727.739	-7.85
727.764	-10.85
727.79	5.15
727.815	0.15
727.841	15.15
727.866	20.15
727.891	21.15
727.917	-0.85
727.942	-4.85
727.967	-5.85
727.993	-8.85
728.018	10.15
728.043	3.15
728.069	0.15
728.094	6.15
728.119	-2.85
728.145	21.15
728.17	20.15
728.195	0.15
728.221	30.15
728.246	12.15
728.271	-8.85
728.297	2.15
728.322	1.15
728.347	3.15
728.373	16.15
728.398	12.15
728.423	-3.85
728.448	0.15
728.474	8.15
728.499	14.15
728.524	-5.85
728.55	-0.85
728.575	-6.85
728.6	8.15
728.625	9.15
728.651	13.15
728.676	3.15
728.701	-2.85
728.727	2.15
728.752	0.15
728.777	5.15
728.802	15.15
728.828	7.15
728.853	2.15
728.878	-1.85
728.903	4.15
728.929	10.15
728.954	8.15
728.979	4.15
729.004	-0.85
729.03	-3.85
729.055	12.15
729.08	-4.85
729.105	-2.85
729.13	12.15
729.156	17.15
729.181	1.15
729.206	-7.85
729.231	-2.85
729.256	-2.85
729.282	-6.85
729.307	-11.85
729.332	-0.85
729.357	-5.85
729.382	3.15
729.408	-10.85
729.433	23.15
729.458	17.15
729.483	2.15
729.508	25.15
729.533	22.15
729.559	15.15
729.584	-3.85
729.609	15.15
729.634	7.15
729.659	0.15
729.684	3.15
729.71	10.15
729.735	16.15
729.76	4.15
729.785	8.15
729.81	17.15
729.835	4.15
729.86	-4.85
729.886	6.15
729.911	7.15
729.936	3.15
729.961	17.15
729.986	-8.85
730.011	0.15
730.036	5.15
730.061	4.15
730.086	7.15
730.112	-7.85
730.137	-0.85
730.162	1.15
730.187	-8.85
730.212	17.15
730.237	0.15
730.262	4.15
730.287	-10.85
730.312	-1.85
730.337	2.15
730.362	1.15
730.387	-0.85
730.413	3.15
730.438	-10.85
730.463	-7.85
730.488	-3.85
730.513	12.15
730.538	-2.85
730.563	19.15
730.588	16.15
730.613	22.15
730.638	0.15
730.663	-4.85
730.688	20.15
730.713	16.15
730.738	13.15
730.763	7.15
730.788	-3.85
730.813	11.15
730.838	2.15
730.863	12.15
730.888	15.15
730.913	-15.85
730.938	-5.85
730.963	18.15
730.988	10.15
731.013	27.15
731.038	5.15
731.063	-5.85
731.088	12.15
731.113	5.15
731.138	15.15
731.163	7.15
731.188	10.15
731.213	8.15
731.238	13.15
731.263	1.15
731.288	0.15
731.313	3.15
731.338	8.15
731.363	5.15
731.388	-0.85
731.413	6.15
731.438	27.15
731.463	9.15
731.487	4.15
731.512	10.15
731.537	-0.85
731.562	5.15
731.587	7.15
731.612	-5.85
731.637	-3.85
731.662	3.15
731.687	11.15
731.712	-9.85
731.737	8.15
731.762	5.15
731.786	14.15
731.811	16.15
731.836	1.15
731.861	5.15
731.886	-4.85
731.911	9.15
731.936	20.15
731.961	11.15
731.986	-14.85
732.01	5.15
732.035	4.15
732.06	17.15
732.085	10.15
732.11	16.15
732.135	3.15
732.16	3.15
732.184	10.15
732.209	17.15
732.234	23.15
732.259	7.15
732.284	21.15
732.309	-1.85
732.334	5.15
732.358	-2.85
732.383	1.15
732.408	11.15
732.433	-7.85
732.458	-3.85
732.482	8.15
732.507	19.15
732.532	3.15
732.557	27.15
732.582	4.15
732.607	3.15
732.631	1.15
732.656	0.15
732.681	1.15
732.706	13.15
732.73	3.15
732.755	7.15
732.78	13.15
732.805	-0.85
732.83	-5.85
732.854	4.15
732.879	32.15
732.904	9.15
732.929	3.15
732.953	-2.85
732.978	7.15
733.003	-8.85
733.028	6.15
733.052	18.15
733.077	4.15
733.102	8.15
733.127	7.15
733.151	-1.85
733.176	9.15
733.201	-6.85
733.226	-8.85
733.25	5.15
733.275	11.15
733.3	11.15
733.324	23.15
733.349	19.15
733.374	21.15
733.399	-1.85
733.423	7.15
733.448	7.15
733.473	-3.85
733.497	9.15
733.522	16.15
733.547	24.15
733.571	17.15
733.596	3.15
733.621	15.15
733.646	-6.85
733.67	4.15
733.695	-3.85
733.72	4.15
733.744	10.15
733.769	13.15
733.794	13.15
733.818	21.15
733.843	9.15
733.867	-13.85
733.892	-7.85
733.917	0.15
733.941	4.15
733.966	-5.85
733.991	0.15
734.015	19.15
734.04	8.15
734.065	22.15
734.089	21.15
734.114	10.15
734.138	12.15
734.163	8.15
734.188	19.15
734.212	29.15
734.237	6.15
734.261	24.15
734.286	-0.85
734.311	-12.85
734.335	-5.85
734.36	3.15
734.384	-0.85
734.409	12.15
734.434	-7.85
734.458	4.15
734.483	5.15
734.507	-7.85
734.532	8.15
734.556	16.15
734.581	21.15
734.606	13.15
734.63	8.15
734.655	7.15
734.679	6.15
734.704	6.15
734.728	4.15
734.753	-8.85
734.777	-1.85
734.802	-4.85
734.826	10.15
734.851	26.15
734.876	16.15
734.9	5.15
734.925	4.15
734.949	4.15
734.974	-5.85
734.998	17.15
735.023	-4.85
735.047	-5.85
735.072	30.15
735.096	10.15
735.121	-6.85
735.145	7.15
735.17	16.15
735.194	14.15
735.219	25.15
735.243	31.15
735.268	32.15
735.292	8.15
735.317	11.15
735.341	11.15
735.365	0.15
735.39	9.15
735.414	14.15
735.439	5.15
735.463	2.15
735.488	9.15
735.512	-0.85
735.537	4.15
735.561	13.15
735.586	23.15
735.61	3.15
735.634	1.15
735.659	22.15
735.683	27.15
735.708	-2.85
735.732	3.15
735.757	-1.85
735.781	9.15
735.805	27.15
735.83	6.15
735.854	14.15
735.879	21.15
735.903	20.15
735.927	4.15
735.952	7.15
735.976	-7.85
736.001	11.15
736.025	13.15
736.049	17.15
736.074	8.15
736.098	6.15
736.123	24.15
736.147	21.15
736.171	-4.85
736.196	18.15
736.22	7.15
736.244	1.15
736.269	-7.85
736.293	-0.85
736.317	-2.85
736.342	11.15
736.366	30.15
736.39	25.15
736.415	-0.85
736.439	-6.85
736.463	11.15
736.488	5.15
736.512	16.15
736.536	12.15
736.561	30.15
736.585	4.15
736.609	-6.85
736.634	-12.85
736.658	-8.85
736.682	-7.85
736.707	-3.85
736.731	-4.85
736.755	16.15
736.78	29.15
736.804	21.15
736.828	7.15
736.852	-11.85
736.877	4.15
736.901	7.15
736.925	17.15
736.949	15.15
736.974	16.15
736.998	27.15
737.022	16.15
737.047	1.15
737.071	11.15
737.095	16.15
737.119	21.15
737.144	19.15
737.168	17.15
737.192	7.15
737.216	11.15
737.241	1.15
737.265	5.15
737.289	2.15
737.313	-3.85
737.337	4.15
737.362	5.15
737.386	18.15
737.41	4.15
737.434	11.15
737.459	9.15
737.483	16.15
737.507	4.15
737.531	27.15
737.555	7.15
737.58	15.15
737.604	4.15
737.628	-7.85
737.652	0.15
737.676	7.15
737.701	6.15
737.725	3.15
737.749	-2.85
737.773	4.15
737.797	-4.85
737.821	20.15
737.846	7.15
737.87	36.15
737.894	5.15
737.918	14.15
737.942	-1.85
737.966	9.15
737.99	12.15
738.015	11.15
738.039	7.15
738.063	2.15
738.087	15.15
738.111	10.15
738.135	13.15
738.159	-5.85
738.184	-2.85
738.208	-0.85
738.232	12.15
738.256	29.15
738.28	26.15
738.304	15.15
738.328	7.15
738.352	26.15
738.376	10.15
738.4	17.15
738.425	9.15
738.449	6.15
738.473	19.15
738.497	5.15
738.521	18.15
738.545	6.15
738.569	9.15
738.593	24.15
738.617	16.15
738.641	4.15
738.665	8.15
738.689	21.15
738.713	14.15
738.737	18.15
738.762	30.15
738.786	-1.85
738.81	-0.85
738.834	16.15
738.858	5.15
738.882	19.15
738.906	-0.85
738.93	7.15
738.954	15.15
738.978	16.15
739.002	3.15
739.026	25.15
739.05	3.15
739.074	5.15
739.098	35.15
739.122	22.15
739.146	14.15
739.17	12.15
739.194	11.15
739.218	-1.85
739.242	2.15
739.266	10.15
739.29	19.15
739.314	9.15
739.338	14.15
739.362	2.15
739.386	7.15
739.41	-4.85
739.434	7.15
739.458	25.15
739.482	14.15
739.506	8.15
739.53	17.15
739.554	17.15
739.577	11.15
739.601	15.15
739.625	7.15
739.649	0.15
739.673	3.15
739.697	10.15
739.721	-2.85
739.745	10.15
739.769	17.15
739.793	17.15
739.817	28.15
739.841	-5.85
739.865	20.15
739.889	2.15
739.912	10.15
739.936	4.15
739.96	11.15
739.984	1.15
740.008	11.15
740.032	-0.85
740.056	-1.85
740.08	4.15
740.104	4.15
740.127	20.15
740.151	18.15
740.175	28.15
740.199	17.15
740.223	36.15
740.247	10.15
740.271	12.15
740.295	12.15
740.318	3.15
740.342	12.15
740.366	4.15
740.39	16.15
740.414	15.15
740.438	-4.85
740.461	20.15
740.485	20.15
740.509	11.15
740.533	13.15
740.557	10.15
740.581	9.15
740.604	-3.85
740.628	-6.85
740.652	13.15
740.676	-10.85
740.7	7.15
740.723	1.15
740.747	-0.85
740.771	16.15
740.795	4.15
740.819	10.15
740.842	2.15
740.866	8.15
740.89	16.15
740.914	3.15
740.938	3.15
740.961	19.15
740.985	12.15
741.009	12.15
741.033	20.15
741.056	5.15
741.08	8.15
741.104	20.15
741.128	1.15
741.151	11.15
741.175	7.15
741.199	18.15
741.223	10.15
741.246	1.15
741.27	12.15
741.294	5.15
741.318	8.15
741.341	1.15
741.365	10.15
741.389	5.15
741.413	18.15
741.436	13.15
741.46	-8.85
741.484	29.15
741.507	4.15
741.531	11.15
741.555	13.15
741.579	2.15
741.602	26.15
741.626	11.15
741.65	-8.85
741.673	1.15
741.697	15.15
741.721	13.15
741.744	8.15
741.768	18.15
741.792	10.15
741.815	12.15
741.839	21.15
741.863	19.15
741.886	17.15
741.91	20.15
741.934	10.15
741.957	-3.85
741.981	11.15
742.005	26.15
742.028	1.15
742.052	7.15
742.075	14.15
742.099	15.15
742.123	10.15
742.146	14.15
742.17	5.15
742.194	-16.85
742.217	4.15
742.241	12.15
742.264	-4.85
742.288	17.15
742.312	13.15
742.335	3.15
742.359	17.15
742.382	9.15
742.406	-1.85
742.43	5.15
742.453	7.15
742.477	-12.85
742.5	-4.85
742.524	3.15
742.548	-19.85
742.571	1.15
742.595	9.15
742.618	-0.85
742.642	1.15
742.665	11.15
742.689	-4.85
742.712	8.15
742.736	2.15
742.76	-11.85
742.783	4.15
742.807	7.15
742.83	26.15
742.854	1.15
742.877	17.15
742.901	9.15
742.924	2.15
742.948	16.15
742.971	18.15
742.995	8.15
743.018	-7.85
743.042	-7.85
743.065	0.15
743.089	5.15
743.112	6.15
743.136	4.15
743.159	-3.85
743.183	3.15
743.206	13.15
743.23	8.15
743.253	20.15
743.277	33.15
743.3	2.15
743.324	3.15
743.347	-4.85
743.371	24.15
743.394	4.15
743.418	30.15
743.441	22.15
743.465	12.15
743.488	8.15
743.512	-11.85
743.535	6.15
743.558	10.15
743.582	6.15
743.605	11.15
743.629	34.15
743.652	13.15
743.676	16.15
743.699	29.15
743.723	24.15
743.746	27.15
743.769	6.15
743.793	9.15
743.816	-5.85
743.84	22.15
743.863	11.15
743.886	15.15
743.91	7.15
743.933	0.15
743.957	-0.85
743.98	10.15
744.003	-0.85
744.027	11.15
744.05	1.15
744.074	1.15
744.097	-5.85
744.12	7.15
744.144	-0.85
744.167	8.15
744.19	2.15
744.214	7.15
744.237	-6.85
744.26	17.15
744.284	9.15
744.307	-18.85
744.331	7.15
744.354	-3.85
744.377	5.15
744.401	3.15
744.424	-3.85
744.447	-10.85
744.471	-3.85
