Data from HighRes_H2D2_15_04_11_07_2024_HR4C61891__11__15-05-35-543.txt Node

Date: Thu Nov 07 15:05:35 EST 2024
User: crc00042
Spectrometer: HR4C6189
Trigger mode: 4
Integration Time (sec): 1.000000E-1
Scans to average: 1
Electric dark correction enabled: true
Nonlinearity correction enabled: false
Boxcar width: 0
XAxis mode: Wavelengths
Number of Pixels in Spectrum: 3648
>>>>>Begin Spectral Data<<<<<
639.567	-50.31
639.602	-50.31
639.636	-50.31
639.67	-36.31
639.704	-3.31
639.738	-1.31
639.773	18.69
639.807	-9.31
639.841	-3.31
639.875	1.69
639.909	6.69
639.943	-4.31
639.978	2.69
640.012	6.69
640.046	-4.31
640.08	-10.31
640.114	-5.31
640.148	1.69
640.182	-0.31
640.217	-7.31
640.251	26.69
640.285	0.69
640.319	-15.31
640.353	8.69
640.387	-3.31
640.421	-2.31
640.455	8.69
640.49	1.69
640.524	-0.31
640.558	6.69
640.592	3.69
640.626	11.69
640.66	1.69
640.694	-13.31
640.728	-1.31
640.762	5.69
640.796	3.69
640.83	13.69
640.865	3.69
640.899	13.69
640.933	11.69
640.967	-3.31
641.001	7.69
641.035	9.69
641.069	-4.31
641.103	-14.31
641.137	-2.31
641.171	-10.31
641.205	11.69
641.239	5.69
641.273	12.69
641.307	12.69
641.341	-11.31
641.375	0.69
641.409	1.69
641.443	7.69
641.477	12.69
641.511	16.69
641.545	15.69
641.579	10.69
641.614	1.69
641.648	7.69
641.682	-8.31
641.716	14.69
641.75	22.69
641.784	14.69
641.818	8.69
641.852	-16.31
641.886	-0.31
641.919	25.69
641.953	10.69
641.987	4.69
642.021	6.69
642.055	12.69
642.089	6.69
642.123	-0.31
642.157	-19.31
642.191	-4.31
642.225	11.69
642.259	3.69
642.293	7.69
642.327	-7.31
642.361	-1.31
642.395	12.69
642.429	32.69
642.463	5.69
642.497	11.69
642.531	3.69
642.565	10.69
642.599	4.69
642.633	2.69
642.666	8.69
642.7	8.69
642.734	12.69
642.768	8.69
642.802	1.69
642.836	-0.31
642.87	-8.31
642.904	0.69
642.938	19.69
642.972	5.69
643.005	-3.31
643.039	-3.31
643.073	-4.31
643.107	5.69
643.141	-6.31
643.175	0.69
643.209	7.69
643.243	-2.31
643.276	-1.31
643.31	15.69
643.344	2.69
643.378	-8.31
643.412	7.69
643.446	4.69
643.48	8.69
643.513	7.69
643.547	8.69
643.581	2.69
643.615	11.69
643.649	12.69
643.683	11.69
643.716	3.69
643.75	-3.31
643.784	-9.31
643.818	9.69
643.852	4.69
643.886	9.69
643.919	7.69
643.953	10.69
643.987	19.69
644.021	13.69
644.055	20.69
644.088	10.69
644.122	-13.31
644.156	10.69
644.19	28.69
644.224	-2.31
644.257	23.69
644.291	7.69
644.325	6.69
644.359	2.69
644.392	33.69
644.426	14.69
644.46	5.69
644.494	-3.31
644.527	-23.31
644.561	12.69
644.595	11.69
644.629	-18.31
644.662	2.69
644.696	27.69
644.73	-1.31
644.764	26.69
644.797	9.69
644.831	-14.31
644.865	4.69
644.899	10.69
644.932	23.69
644.966	-0.31
645	9.69
645.033	20.69
645.067	3.69
645.101	7.69
645.135	0.69
645.168	3.69
645.202	-0.31
645.236	-6.31
645.269	8.69
645.303	7.69
645.337	-1.31
645.37	-7.31
645.404	6.69
645.438	8.69
645.471	-3.31
645.505	8.69
645.539	-6.31
645.572	-8.31
645.606	-17.31
645.64	10.69
645.673	7.69
645.707	27.69
645.741	4.69
645.774	-13.31
645.808	7.69
645.842	-4.31
645.875	-4.31
645.909	-6.31
645.943	-13.31
645.976	3.69
646.01	19.69
646.043	3.69
646.077	18.69
646.111	14.69
646.144	17.69
646.178	-0.31
646.212	-24.31
646.245	-11.31
646.279	3.69
646.312	-2.31
646.346	10.69
646.38	-4.31
646.413	7.69
646.447	13.69
646.48	9.69
646.514	16.69
646.547	-8.31
646.581	0.69
646.615	-0.31
646.648	-3.31
646.682	-0.31
646.715	-1.31
646.749	6.69
646.782	2.69
646.816	3.69
646.85	-3.31
646.883	-4.31
646.917	7.69
646.95	9.69
646.984	10.69
647.017	0.69
647.051	1.69
647.084	5.69
647.118	4.69
647.151	-8.31
647.185	11.69
647.218	-1.31
647.252	20.69
647.285	0.69
647.319	-6.31
647.353	5.69
647.386	15.69
647.42	9.69
647.453	-3.31
647.487	3.69
647.52	9.69
647.553	26.69
647.587	-7.31
647.62	4.69
647.654	3.69
647.687	1.69
647.721	12.69
647.754	12.69
647.788	10.69
647.821	3.69
647.855	2.69
647.888	35.69
647.922	5.69
647.955	4.69
647.989	-4.31
648.022	13.69
648.055	21.69
648.089	7.69
648.122	14.69
648.156	4.69
648.189	-10.31
648.223	12.69
648.256	27.69
648.29	10.69
648.323	3.69
648.356	11.69
648.39	2.69
648.423	6.69
648.457	4.69
648.49	2.69
648.523	13.69
648.557	6.69
648.59	20.69
648.624	4.69
648.657	-9.31
648.69	13.69
648.724	15.69
648.757	21.69
648.791	-4.31
648.824	17.69
648.857	13.69
648.891	3.69
648.924	0.69
648.957	17.69
648.991	-3.31
649.024	5.69
649.057	-7.31
649.091	-3.31
649.124	2.69
649.158	7.69
649.191	15.69
649.224	16.69
649.258	18.69
649.291	10.69
649.324	18.69
649.358	0.69
649.391	2.69
649.424	13.69
649.458	-11.31
649.491	5.69
649.524	3.69
649.557	-19.31
649.591	-12.31
649.624	18.69
649.657	-20.31
649.691	-2.31
649.724	0.69
649.757	5.69
649.791	-1.31
649.824	9.69
649.857	28.69
649.89	11.69
649.924	-3.31
649.957	-1.31
649.99	-3.31
650.023	3.69
650.057	3.69
650.09	1.69
650.123	9.69
650.157	15.69
650.19	20.69
650.223	-1.31
650.256	-28.31
650.29	-7.31
650.323	5.69
650.356	6.69
650.389	15.69
650.423	3.69
650.456	5.69
650.489	10.69
650.522	14.69
650.555	11.69
650.589	-4.31
650.622	15.69
650.655	14.69
650.688	-5.31
650.721	-12.31
650.755	4.69
650.788	12.69
650.821	11.69
650.854	-0.31
650.887	20.69
650.921	8.69
650.954	2.69
650.987	11.69
651.02	11.69
651.053	-11.31
651.087	-6.31
651.12	19.69
651.153	19.69
651.186	6.69
651.219	-7.31
651.252	-1.31
651.286	7.69
651.319	-11.31
651.352	15.69
651.385	23.69
651.418	7.69
651.451	10.69
651.484	3.69
651.518	5.69
651.551	18.69
651.584	-1.31
651.617	20.69
651.65	14.69
651.683	25.69
651.716	-0.31
651.749	3.69
651.783	-4.31
651.816	-4.31
651.849	8.69
651.882	-1.31
651.915	3.69
651.948	15.69
651.981	13.69
652.014	-10.31
652.047	-0.31
652.08	9.69
652.114	5.69
652.147	7.69
652.18	5.69
652.213	20.69
652.246	6.69
652.279	-5.31
652.312	21.69
652.345	7.69
652.378	24.69
652.411	24.69
652.444	12.69
652.477	9.69
652.51	4.69
652.543	-8.31
652.576	-6.31
652.609	9.69
652.642	16.69
652.675	24.69
652.709	0.69
652.742	3.69
652.775	8.69
652.808	11.69
652.841	6.69
652.874	10.69
652.907	-2.31
652.94	-0.31
652.973	-8.31
653.006	12.69
653.039	9.69
653.072	1.69
653.105	-0.31
653.138	1.69
653.171	12.69
653.204	-4.31
653.237	9.69
653.27	6.69
653.303	10.69
653.336	10.69
653.368	2.69
653.401	1.69
653.434	-7.31
653.467	8.69
653.5	-12.31
653.533	-5.31
653.566	10.69
653.599	-1.31
653.632	7.69
653.665	-5.31
653.698	-8.31
653.731	3.69
653.764	-1.31
653.797	0.69
653.83	0.69
653.863	-14.31
653.896	2.69
653.929	3.69
653.961	1.69
653.994	0.69
654.027	0.69
654.06	10.69
654.093	13.69
654.126	4.69
654.159	-27.31
654.192	-2.31
654.225	-1.31
654.258	7.69
654.29	11.69
654.323	-5.31
654.356	-2.31
654.389	-7.31
654.422	10.69
654.455	2.69
654.488	10.69
654.521	-6.31
654.553	-11.31
654.586	11.69
654.619	8.69
654.652	-4.31
654.685	7.69
654.718	18.69
654.751	27.69
654.783	-3.31
654.816	16.69
654.849	8.69
654.882	3.69
654.915	-8.31
654.948	6.69
654.98	12.69
655.013	-5.31
655.046	-0.31
655.079	-8.31
655.112	-0.31
655.144	-13.31
655.177	-4.31
655.21	6.69
655.243	17.69
655.276	-4.31
655.308	-5.31
655.341	3.69
655.374	12.69
655.407	8.69
655.44	12.69
655.472	16.69
655.505	-12.31
655.538	-7.31
655.571	14.69
655.603	9.69
655.636	0.69
655.669	11.69
655.702	7.69
655.734	6.69
655.767	7.69
655.8	15.69
655.833	-4.31
655.865	22.69
655.898	1.69
655.931	1.69
655.964	8.69
655.996	21.69
656.029	24.69
656.062	23.69
656.095	29.69
656.127	83.69
656.16	203.69
656.193	632.69
656.225	983.69
656.258	577.69
656.291	213.69
656.324	177.69
656.356	371.69
656.389	766.69
656.422	691.69
656.454	245.69
656.487	77.69
656.52	31.69
656.552	16.69
656.585	18.69
656.618	18.69
656.65	33.69
656.683	-3.31
656.716	11.69
656.748	12.69
656.781	17.69
656.814	-0.31
656.846	0.69
656.879	-7.31
656.912	3.69
656.944	-15.31
656.977	5.69
657.01	3.69
657.042	10.69
657.075	13.69
657.108	-8.31
657.14	7.69
657.173	13.69
657.205	30.69
657.238	13.69
657.271	-5.31
657.303	-14.31
657.336	2.69
657.369	10.69
657.401	-0.31
657.434	-5.31
657.466	12.69
657.499	-3.31
657.532	14.69
657.564	15.69
657.597	3.69
657.629	-0.31
657.662	-7.31
657.694	2.69
657.727	-13.31
657.76	6.69
657.792	5.69
657.825	-0.31
657.857	-0.31
657.89	9.69
657.922	29.69
657.955	-0.31
657.987	-4.31
658.02	12.69
658.053	-0.31
658.085	-0.31
658.118	4.69
658.15	16.69
658.183	18.69
658.215	-9.31
658.248	-0.31
658.28	-0.31
658.313	14.69
658.345	11.69
658.378	4.69
658.41	11.69
658.443	7.69
658.475	12.69
658.508	7.69
658.54	7.69
658.573	6.69
658.605	10.69
658.638	-8.31
658.67	7.69
658.703	15.69
658.735	2.69
658.768	17.69
658.8	7.69
658.833	26.69
658.865	9.69
658.898	1.69
658.93	-11.31
658.963	2.69
658.995	-14.31
659.028	-5.31
659.06	1.69
659.092	-4.31
659.125	5.69
659.157	8.69
659.19	-4.31
659.222	4.69
659.255	20.69
659.287	2.69
659.32	6.69
659.352	4.69
659.384	11.69
659.417	-2.31
659.449	15.69
659.482	21.69
659.514	-0.31
659.546	6.69
659.579	-15.31
659.611	-1.31
659.644	-19.31
659.676	-0.31
659.708	-16.31
659.741	-5.31
659.773	12.69
659.806	-1.31
659.838	-4.31
659.87	-5.31
659.903	6.69
659.935	2.69
659.967	9.69
660	9.69
660.032	2.69
660.065	26.69
660.097	-5.31
660.129	12.69
660.162	-11.31
660.194	12.69
660.226	21.69
660.259	10.69
660.291	7.69
660.323	-1.31
660.356	-0.31
660.388	-8.31
660.42	4.69
660.453	7.69
660.485	14.69
660.517	3.69
660.55	8.69
660.582	11.69
660.614	15.69
660.647	15.69
660.679	-19.31
660.711	15.69
660.743	-13.31
660.776	-9.31
660.808	-9.31
660.84	-21.31
660.873	14.69
660.905	6.69
660.937	-7.31
660.969	0.69
661.002	2.69
661.034	18.69
661.066	-14.31
661.099	7.69
661.131	5.69
661.163	-2.31
661.195	-1.31
661.228	13.69
661.26	-1.31
661.292	-11.31
661.324	-10.31
661.357	2.69
661.389	5.69
661.421	8.69
661.453	12.69
661.485	9.69
661.518	25.69
661.55	-13.31
661.582	-31.31
661.614	4.69
661.647	1.69
661.679	7.69
661.711	5.69
661.743	-7.31
661.775	7.69
661.808	14.69
661.84	0.69
661.872	5.69
661.904	5.69
661.936	4.69
661.969	4.69
662.001	-10.31
662.033	7.69
662.065	-4.31
662.097	16.69
662.129	12.69
662.162	-2.31
662.194	11.69
662.226	2.69
662.258	1.69
662.29	7.69
662.322	5.69
662.355	-12.31
662.387	19.69
662.419	17.69
662.451	9.69
662.483	8.69
662.515	2.69
662.547	0.69
662.58	-5.31
662.612	-0.31
662.644	-0.31
662.676	-3.31
662.708	22.69
662.74	7.69
662.772	-3.31
662.804	19.69
662.836	8.69
662.869	7.69
662.901	5.69
662.933	-1.31
662.965	15.69
662.997	13.69
663.029	-5.31
663.061	-1.31
663.093	4.69
663.125	23.69
663.157	14.69
663.189	9.69
663.221	16.69
663.254	5.69
663.286	7.69
663.318	0.69
663.35	1.69
663.382	15.69
663.414	10.69
663.446	-3.31
663.478	-10.31
663.51	27.69
663.542	-3.31
663.574	-4.31
663.606	18.69
663.638	-2.31
663.67	-12.31
663.702	6.69
663.734	20.69
663.766	3.69
663.798	-5.31
663.83	-2.31
663.862	11.69
663.894	2.69
663.926	-3.31
663.958	15.69
663.99	-5.31
664.022	-23.31
664.054	10.69
664.086	-2.31
664.118	-14.31
664.15	-17.31
664.182	10.69
664.214	6.69
664.246	18.69
664.278	-6.31
664.31	11.69
664.342	-2.31
664.374	-0.31
664.406	3.69
664.438	9.69
664.47	15.69
664.502	-5.31
664.534	-0.31
664.566	-15.31
664.598	10.69
664.63	-8.31
664.662	7.69
664.693	-1.31
664.725	6.69
664.757	-9.31
664.789	-16.31
664.821	2.69
664.853	23.69
664.885	19.69
664.917	5.69
664.949	18.69
664.981	30.69
665.013	5.69
665.045	-16.31
665.076	5.69
665.108	16.69
665.14	2.69
665.172	-3.31
665.204	-4.31
665.236	9.69
665.268	3.69
665.3	1.69
665.331	-2.31
665.363	3.69
665.395	-18.31
665.427	-12.31
665.459	0.69
665.491	-15.31
665.523	-1.31
665.555	3.69
665.586	-0.31
665.618	-4.31
665.65	-9.31
665.682	2.69
665.714	4.69
665.746	-0.31
665.777	10.69
665.809	-7.31
665.841	0.69
665.873	9.69
665.905	-12.31
665.937	7.69
665.968	13.69
666	-5.31
666.032	0.69
666.064	-0.31
666.096	6.69
666.127	4.69
666.159	18.69
666.191	10.69
666.223	10.69
666.255	11.69
666.286	9.69
666.318	-11.31
666.35	18.69
666.382	11.69
666.413	-1.31
666.445	-3.31
666.477	-12.31
666.509	4.69
666.54	2.69
666.572	-4.31
666.604	-0.31
666.636	-0.31
666.667	29.69
666.699	26.69
666.731	-2.31
666.763	-4.31
666.794	-1.31
666.826	10.69
666.858	-7.31
666.89	5.69
666.921	6.69
666.953	15.69
666.985	31.69
667.017	37.69
667.048	-0.31
667.08	8.69
667.112	-3.31
667.143	7.69
667.175	18.69
667.207	-0.31
667.238	6.69
667.27	-2.31
667.302	-5.31
667.334	0.69
667.365	17.69
667.397	25.69
667.429	-8.31
667.46	11.69
667.492	10.69
667.524	10.69
667.555	-7.31
667.587	18.69
667.619	-5.31
667.65	16.69
667.682	-7.31
667.714	-1.31
667.745	3.69
667.777	6.69
667.808	6.69
667.84	0.69
667.872	7.69
667.903	21.69
667.935	7.69
667.967	-2.31
667.998	2.69
668.03	15.69
668.061	11.69
668.093	-4.31
668.125	10.69
668.156	9.69
668.188	7.69
668.22	5.69
668.251	5.69
668.283	12.69
668.314	4.69
668.346	-11.31
668.377	-0.31
668.409	2.69
668.441	20.69
668.472	0.69
668.504	0.69
668.535	11.69
668.567	18.69
668.599	-1.31
668.63	-9.31
668.662	12.69
668.693	15.69
668.725	-0.31
668.756	8.69
668.788	4.69
668.819	15.69
668.851	-4.31
668.882	-0.31
668.914	-4.31
668.946	2.69
668.977	-2.31
669.009	13.69
669.04	-11.31
669.072	-0.31
669.103	3.69
669.135	3.69
669.166	-7.31
669.198	-1.31
669.229	12.69
669.261	1.69
669.292	-2.31
669.324	5.69
669.355	3.69
669.387	-3.31
669.418	5.69
669.45	-21.31
669.481	-6.31
669.513	5.69
669.544	0.69
669.576	10.69
669.607	5.69
669.639	1.69
669.67	1.69
669.701	24.69
669.733	9.69
669.764	5.69
669.796	-6.31
669.827	-5.31
669.859	-2.31
669.89	14.69
669.922	8.69
669.953	8.69
669.985	-0.31
670.016	2.69
670.047	13.69
670.079	1.69
670.11	15.69
670.142	4.69
670.173	-5.31
670.204	-5.31
670.236	-12.31
670.267	-10.31
670.299	-5.31
670.33	10.69
670.362	6.69
670.393	-10.31
670.424	3.69
670.456	-13.31
670.487	-1.31
670.518	-3.31
670.55	14.69
670.581	0.69
670.613	16.69
670.644	6.69
670.675	-8.31
670.707	1.69
670.738	7.69
670.769	5.69
670.801	-4.31
670.832	4.69
670.864	-11.31
670.895	-9.31
670.926	-0.31
670.958	-14.31
670.989	3.69
671.02	-7.31
671.052	7.69
671.083	6.69
671.114	-1.31
671.146	22.69
671.177	14.69
671.208	3.69
671.24	-3.31
671.271	11.69
671.302	12.69
671.333	-3.31
671.365	-2.31
671.396	5.69
671.427	0.69
671.459	11.69
671.49	0.69
671.521	3.69
671.553	2.69
671.584	0.69
671.615	7.69
671.646	5.69
671.678	6.69
671.709	-17.31
671.74	-7.31
671.771	-3.31
671.803	0.69
671.834	5.69
671.865	-2.31
671.896	2.69
671.928	0.69
671.959	-15.31
671.99	-14.31
672.021	-8.31
672.053	-14.31
672.084	-4.31
672.115	4.69
672.146	-11.31
672.178	-22.31
672.209	2.69
672.24	9.69
672.271	17.69
672.303	13.69
672.334	12.69
672.365	-5.31
672.396	-7.31
672.427	0.69
672.459	3.69
672.49	17.69
672.521	17.69
672.552	18.69
672.583	-3.31
672.615	20.69
672.646	12.69
672.677	-9.31
672.708	-4.31
672.739	0.69
672.77	14.69
672.802	3.69
672.833	0.69
672.864	8.69
672.895	3.69
672.926	-0.31
672.957	5.69
672.989	-5.31
673.02	6.69
673.051	5.69
673.082	15.69
673.113	4.69
673.144	10.69
673.175	-4.31
673.206	2.69
673.238	3.69
673.269	-12.31
673.3	-22.31
673.331	13.69
673.362	-9.31
673.393	8.69
673.424	15.69
673.455	11.69
673.487	10.69
673.518	19.69
673.549	3.69
673.58	5.69
673.611	-4.31
673.642	0.69
673.673	-21.31
673.704	25.69
673.735	-5.31
673.766	-12.31
673.797	-3.31
673.828	-4.31
673.86	0.69
673.891	-13.31
673.922	-4.31
673.953	2.69
673.984	12.69
674.015	9.69
674.046	0.69
674.077	8.69
674.108	2.69
674.139	-4.31
674.17	-5.31
674.201	-2.31
674.232	-2.31
674.263	9.69
674.294	-2.31
674.325	-1.31
674.356	9.69
674.387	10.69
674.418	11.69
674.449	-3.31
674.48	-7.31
674.511	6.69
674.542	11.69
674.573	-1.31
674.604	16.69
674.635	6.69
674.666	10.69
674.697	-11.31
674.728	17.69
674.759	7.69
674.79	-9.31
674.821	-7.31
674.852	-10.31
674.883	-12.31
674.914	2.69
674.945	7.69
674.976	3.69
675.007	-17.31
675.038	-4.31
675.069	-5.31
675.1	-15.31
675.131	0.69
675.162	-10.31
675.193	-6.31
675.224	-21.31
675.254	-3.31
675.285	10.69
675.316	11.69
675.347	3.69
675.378	-3.31
675.409	-17.31
675.44	0.69
675.471	-8.31
675.502	0.69
675.533	14.69
675.564	-3.31
675.595	-1.31
675.625	23.69
675.656	6.69
675.687	3.69
675.718	-6.31
675.749	10.69
675.78	-4.31
675.811	-13.31
675.842	13.69
675.873	1.69
675.903	-8.31
675.934	3.69
675.965	-4.31
675.996	-5.31
676.027	-5.31
676.058	2.69
676.089	-16.31
676.119	-0.31
676.15	1.69
676.181	20.69
676.212	-2.31
676.243	16.69
676.274	4.69
676.304	14.69
676.335	-6.31
676.366	11.69
676.397	0.69
676.428	1.69
676.459	12.69
676.489	1.69
676.52	1.69
676.551	4.69
676.582	14.69
676.613	23.69
676.643	-0.31
676.674	8.69
676.705	4.69
676.736	12.69
676.767	19.69
676.797	12.69
676.828	-3.31
676.859	8.69
676.89	-0.31
676.92	4.69
676.951	-4.31
676.982	9.69
677.013	1.69
677.044	26.69
677.074	10.69
677.105	2.69
677.136	11.69
677.167	-6.31
677.197	8.69
677.228	5.69
677.259	5.69
677.289	7.69
677.32	-9.31
677.351	1.69
677.382	4.69
677.412	-3.31
677.443	8.69
677.474	10.69
677.505	-5.31
677.535	-0.31
677.566	-2.31
677.597	-7.31
677.627	6.69
677.658	-12.31
677.689	15.69
677.72	7.69
677.75	-4.31
677.781	16.69
677.812	4.69
677.842	4.69
677.873	8.69
677.904	-1.31
677.934	4.69
677.965	-8.31
677.996	-22.31
678.026	5.69
678.057	2.69
678.088	-1.31
678.118	9.69
678.149	-7.31
678.18	0.69
678.21	9.69
678.241	3.69
678.272	-0.31
678.302	-1.31
678.333	2.69
678.363	2.69
678.394	-1.31
678.425	7.69
678.455	-11.31
678.486	4.69
678.517	-4.31
678.547	0.69
678.578	10.69
678.608	-6.31
678.639	6.69
678.67	10.69
678.7	-5.31
678.731	3.69
678.761	14.69
678.792	2.69
678.823	7.69
678.853	10.69
678.884	-8.31
678.914	13.69
678.945	3.69
678.975	5.69
679.006	-4.31
679.037	4.69
679.067	14.69
679.098	-0.31
679.128	-5.31
679.159	-13.31
679.189	9.69
679.22	-4.31
679.25	4.69
679.281	-0.31
679.312	14.69
679.342	12.69
679.373	22.69
679.403	-6.31
679.434	17.69
679.464	9.69
679.495	23.69
679.525	7.69
679.556	-2.31
679.586	12.69
679.617	0.69
679.647	14.69
679.678	-8.31
679.708	-0.31
679.739	8.69
679.769	7.69
679.8	-3.31
679.83	-8.31
679.861	4.69
679.891	8.69
679.922	-1.31
679.952	-3.31
679.983	11.69
680.013	9.69
680.044	-4.31
680.074	8.69
680.105	4.69
680.135	7.69
680.165	13.69
680.196	18.69
680.226	16.69
680.257	7.69
680.287	-3.31
680.318	-3.31
680.348	10.69
680.379	30.69
680.409	-0.31
680.439	-8.31
680.47	-1.31
680.5	4.69
680.531	9.69
680.561	12.69
680.592	9.69
680.622	24.69
680.652	-2.31
680.683	15.69
680.713	2.69
680.744	3.69
680.774	7.69
680.804	15.69
680.835	-5.31
680.865	-7.31
680.896	14.69
680.926	15.69
680.956	1.69
680.987	7.69
681.017	7.69
681.047	11.69
681.078	5.69
681.108	-4.31
681.139	-13.31
681.169	0.69
681.199	-1.31
681.23	9.69
681.26	23.69
681.29	6.69
681.321	-0.31
681.351	8.69
681.381	-14.31
681.412	11.69
681.442	11.69
681.472	18.69
681.503	0.69
681.533	-14.31
681.563	3.69
681.594	6.69
681.624	4.69
681.654	-13.31
681.685	7.69
681.715	-1.31
681.745	-3.31
681.775	17.69
681.806	15.69
681.836	16.69
681.866	1.69
681.897	-4.31
681.927	-3.31
681.957	-13.31
681.987	-2.31
682.018	-6.31
682.048	0.69
682.078	17.69
682.109	16.69
682.139	15.69
682.169	20.69
682.199	16.69
682.23	3.69
682.26	10.69
682.29	6.69
682.32	4.69
682.351	-4.31
682.381	-9.31
682.411	4.69
682.441	-24.31
682.472	-2.31
682.502	16.69
682.532	12.69
682.562	14.69
682.592	21.69
682.623	7.69
682.653	7.69
682.683	3.69
682.713	11.69
682.743	13.69
682.774	-2.31
682.804	1.69
682.834	19.69
682.864	-1.31
682.894	1.69
682.925	7.69
682.955	9.69
682.985	7.69
683.015	-6.31
683.045	14.69
683.076	-16.31
683.106	-0.31
683.136	-4.31
683.166	0.69
683.196	-0.31
683.226	-0.31
683.257	-1.31
683.287	-0.31
683.317	2.69
683.347	0.69
683.377	2.69
683.407	7.69
683.437	6.69
683.468	16.69
683.498	3.69
683.528	2.69
683.558	16.69
683.588	-14.31
683.618	-10.31
683.648	3.69
683.678	16.69
683.708	29.69
683.739	-5.31
683.769	-7.31
683.799	0.69
683.829	13.69
683.859	8.69
683.889	2.69
683.919	-5.31
683.949	4.69
683.979	-20.31
684.009	3.69
684.039	17.69
684.07	8.69
684.1	25.69
684.13	3.69
684.16	4.69
684.19	14.69
684.22	-5.31
684.25	9.69
684.28	-8.31
684.31	3.69
684.34	4.69
684.37	0.69
684.4	10.69
684.43	10.69
684.46	-2.31
684.49	11.69
684.52	15.69
684.55	7.69
684.58	0.69
684.61	11.69
684.64	17.69
684.67	8.69
684.7	4.69
684.73	21.69
684.76	8.69
684.79	11.69
684.82	-6.31
684.85	-14.31
684.88	2.69
684.91	5.69
684.94	0.69
684.97	0.69
685	-12.31
685.03	-1.31
685.06	1.69
685.09	10.69
685.12	27.69
685.15	-13.31
685.18	9.69
685.21	6.69
685.24	14.69
685.27	10.69
685.3	-1.31
685.33	4.69
685.36	9.69
685.39	-0.31
685.42	-7.31
685.45	1.69
685.48	13.69
685.51	11.69
685.54	23.69
685.569	20.69
685.599	3.69
685.629	7.69
685.659	4.69
685.689	-0.31
685.719	7.69
685.749	11.69
685.779	10.69
685.809	9.69
685.839	13.69
685.869	11.69
685.898	-2.31
685.928	-0.31
685.958	4.69
685.988	30.69
686.018	13.69
686.048	10.69
686.078	19.69
686.108	15.69
686.137	-1.31
686.167	11.69
686.197	-0.31
686.227	14.69
686.257	24.69
686.287	12.69
686.317	5.69
686.346	-1.31
686.376	0.69
686.406	2.69
686.436	16.69
686.466	0.69
686.496	18.69
686.525	4.69
686.555	0.69
686.585	9.69
686.615	34.69
686.645	11.69
686.675	-1.31
686.704	15.69
686.734	18.69
686.764	4.69
686.794	0.69
686.824	14.69
686.853	20.69
686.883	8.69
686.913	4.69
686.943	4.69
686.973	-5.31
687.002	11.69
687.032	-1.31
687.062	7.69
687.092	8.69
687.121	-1.31
687.151	6.69
687.181	-5.31
687.211	10.69
687.24	-0.31
687.27	7.69
687.3	10.69
687.33	6.69
687.359	7.69
687.389	11.69
687.419	11.69
687.449	7.69
687.478	29.69
687.508	9.69
687.538	7.69
687.568	-2.31
687.597	0.69
687.627	9.69
687.657	11.69
687.686	17.69
687.716	23.69
687.746	-8.31
687.776	-2.31
687.805	13.69
687.835	5.69
687.865	19.69
687.894	23.69
687.924	5.69
687.954	-6.31
687.983	2.69
688.013	8.69
688.043	5.69
688.072	3.69
688.102	4.69
688.132	-3.31
688.161	12.69
688.191	10.69
688.221	16.69
688.25	3.69
688.28	10.69
688.31	-1.31
688.339	-1.31
688.369	-11.31
688.399	-8.31
688.428	-11.31
688.458	3.69
688.488	-2.31
688.517	12.69
688.547	-4.31
688.576	18.69
688.606	13.69
688.636	1.69
688.665	16.69
688.695	16.69
688.725	28.69
688.754	5.69
688.784	6.69
688.813	25.69
688.843	19.69
688.873	0.69
688.902	6.69
688.932	-0.31
688.961	23.69
688.991	34.69
689.02	14.69
689.05	-5.31
689.08	11.69
689.109	10.69
689.139	0.69
689.168	-2.31
689.198	7.69
689.227	7.69
689.257	12.69
689.287	11.69
689.316	3.69
689.346	-9.31
689.375	-7.31
689.405	0.69
689.434	-1.31
689.464	-5.31
689.493	-12.31
689.523	4.69
689.552	-0.31
689.582	5.69
689.611	-2.31
689.641	17.69
689.67	14.69
689.7	19.69
689.73	4.69
689.759	8.69
689.789	14.69
689.818	2.69
689.848	5.69
689.877	31.69
689.906	4.69
689.936	6.69
689.965	16.69
689.995	8.69
690.024	11.69
690.054	6.69
690.083	16.69
690.113	15.69
690.142	0.69
690.172	3.69
690.201	-2.31
690.231	9.69
690.26	9.69
690.29	18.69
690.319	10.69
690.348	3.69
690.378	7.69
690.407	18.69
690.437	10.69
690.466	4.69
690.496	-1.31
690.525	20.69
690.555	-1.31
690.584	9.69
690.613	12.69
690.643	24.69
690.672	11.69
690.702	32.69
690.731	3.69
690.76	10.69
690.79	9.69
690.819	5.69
690.849	4.69
690.878	-1.31
690.907	0.69
690.937	18.69
690.966	7.69
690.996	12.69
691.025	7.69
691.054	2.69
691.084	-8.31
691.113	-0.31
691.142	8.69
691.172	12.69
691.201	27.69
691.23	12.69
691.26	15.69
691.289	7.69
691.319	0.69
691.348	7.69
691.377	12.69
691.407	3.69
691.436	-8.31
691.465	3.69
691.495	9.69
691.524	3.69
691.553	3.69
691.583	-2.31
691.612	37.69
691.641	6.69
691.67	0.69
691.7	4.69
691.729	-3.31
691.758	3.69
691.788	-0.31
691.817	0.69
691.846	12.69
691.876	4.69
691.905	-2.31
691.934	1.69
691.963	9.69
691.993	4.69
692.022	-10.31
692.051	-4.31
692.081	-0.31
692.11	23.69
692.139	22.69
692.168	28.69
692.198	8.69
692.227	20.69
692.256	12.69
692.285	15.69
692.315	16.69
692.344	6.69
692.373	17.69
692.402	-15.31
692.432	-8.31
692.461	-8.31
692.49	-6.31
692.519	9.69
692.548	10.69
692.578	8.69
692.607	-6.31
692.636	-16.31
692.665	21.69
692.694	11.69
692.724	-8.31
692.753	17.69
692.782	7.69
692.811	-18.31
692.84	6.69
692.87	11.69
692.899	9.69
692.928	7.69
692.957	29.69
692.986	18.69
693.016	15.69
693.045	15.69
693.074	2.69
693.103	-3.31
693.132	-4.31
693.161	10.69
693.191	4.69
693.22	-8.31
693.249	-7.31
693.278	-8.31
693.307	2.69
693.336	6.69
693.365	2.69
693.395	1.69
693.424	7.69
693.453	27.69
693.482	7.69
693.511	9.69
693.54	-1.31
693.569	5.69
693.598	20.69
693.628	12.69
693.657	12.69
693.686	34.69
693.715	10.69
693.744	13.69
693.773	16.69
693.802	-0.31
693.831	-16.31
693.86	16.69
693.889	4.69
693.919	10.69
693.948	6.69
693.977	7.69
694.006	5.69
694.035	-11.31
694.064	2.69
694.093	6.69
694.122	6.69
694.151	7.69
694.18	14.69
694.209	23.69
694.238	4.69
694.267	18.69
694.296	8.69
694.325	15.69
694.354	8.69
694.383	20.69
694.412	7.69
694.441	19.69
694.471	4.69
694.5	-5.31
694.529	13.69
694.558	13.69
694.587	27.69
694.616	-0.31
694.645	-11.31
694.674	-6.31
694.703	12.69
694.732	8.69
694.761	27.69
694.79	11.69
694.819	-15.31
694.848	15.69
694.877	33.69
694.906	28.69
694.935	14.69
694.963	31.69
694.992	10.69
695.021	11.69
695.05	10.69
695.079	2.69
695.108	3.69
695.137	25.69
695.166	18.69
695.195	-3.31
695.224	7.69
695.253	11.69
695.282	18.69
695.311	15.69
695.34	6.69
695.369	18.69
695.398	27.69
695.427	22.69
695.456	-7.31
695.485	12.69
695.513	8.69
695.542	10.69
695.571	-2.31
695.6	15.69
695.629	4.69
695.658	22.69
695.687	-0.31
695.716	5.69
695.745	27.69
695.774	3.69
695.802	-9.31
695.831	5.69
695.86	12.69
695.889	6.69
695.918	3.69
695.947	-2.31
695.976	4.69
696.005	-13.31
696.033	6.69
696.062	25.69
696.091	-2.31
696.12	2.69
696.149	11.69
696.178	2.69
696.207	-5.31
696.235	-7.31
696.264	5.69
696.293	6.69
696.322	5.69
696.351	9.69
696.38	-3.31
696.408	6.69
696.437	8.69
696.466	11.69
696.495	9.69
696.524	10.69
696.553	-2.31
696.581	11.69
696.61	-3.31
696.639	2.69
696.668	-10.31
696.697	2.69
696.725	11.69
696.754	4.69
696.783	-22.31
696.812	-8.31
696.84	6.69
696.869	-0.31
696.898	-3.31
696.927	-1.31
696.956	13.69
696.984	10.69
697.013	9.69
697.042	2.69
697.071	13.69
697.099	14.69
697.128	16.69
697.157	6.69
697.186	8.69
697.214	9.69
697.243	8.69
697.272	4.69
697.301	5.69
697.329	3.69
697.358	4.69
697.387	34.69
697.415	22.69
697.444	7.69
697.473	8.69
697.502	-3.31
697.53	-7.31
697.559	3.69
697.588	15.69
697.616	4.69
697.645	-2.31
697.674	30.69
697.703	1.69
697.731	14.69
697.76	16.69
697.789	-3.31
697.817	6.69
697.846	28.69
697.875	20.69
697.903	39.69
697.932	8.69
697.961	-3.31
697.989	13.69
698.018	11.69
698.047	8.69
698.075	9.69
698.104	11.69
698.133	-12.31
698.161	6.69
698.19	18.69
698.218	18.69
698.247	16.69
698.276	0.69
698.304	19.69
698.333	3.69
698.362	8.69
698.39	6.69
698.419	17.69
698.447	0.69
698.476	1.69
698.505	6.69
698.533	6.69
698.562	2.69
698.591	-3.31
698.619	4.69
698.648	2.69
698.676	7.69
698.705	0.69
698.733	2.69
698.762	10.69
698.791	9.69
698.819	18.69
698.848	8.69
698.876	15.69
698.905	4.69
698.933	16.69
698.962	2.69
698.991	0.69
699.019	8.69
699.048	12.69
699.076	8.69
699.105	2.69
699.133	-0.31
699.162	21.69
699.19	16.69
699.219	13.69
699.248	17.69
699.276	3.69
699.305	-9.31
699.333	6.69
699.362	-6.31
699.39	18.69
699.419	3.69
699.447	17.69
699.476	14.69
699.504	-1.31
699.533	-12.31
699.561	-18.31
699.59	-6.31
699.618	4.69
699.647	6.69
699.675	11.69
699.704	-1.31
699.732	0.69
699.761	7.69
699.789	9.69
699.818	12.69
699.846	-5.31
699.874	-4.31
699.903	7.69
699.931	4.69
699.96	4.69
699.988	7.69
700.017	9.69
700.045	-8.31
700.074	-1.31
700.102	-9.31
700.13	-11.31
700.159	-0.31
700.187	12.69
700.216	-9.31
700.244	6.69
700.273	2.69
700.301	3.69
700.329	3.69
700.358	17.69
700.386	-1.31
700.415	-1.31
700.443	-15.31
700.472	3.69
700.5	15.69
700.528	19.69
700.557	4.69
700.585	-7.31
700.614	4.69
700.642	11.69
700.67	32.69
700.699	28.69
700.727	12.69
700.755	13.69
700.784	1.69
700.812	7.69
700.841	15.69
700.869	10.69
700.897	-5.31
700.926	-7.31
700.954	11.69
700.982	17.69
701.011	7.69
701.039	10.69
701.067	5.69
701.096	17.69
701.124	-3.31
701.152	6.69
701.181	12.69
701.209	-4.31
701.237	9.69
701.266	4.69
701.294	6.69
701.322	3.69
701.351	1.69
701.379	6.69
701.407	-16.31
701.435	5.69
701.464	1.69
701.492	20.69
701.52	3.69
701.549	3.69
701.577	3.69
701.605	-0.31
701.634	7.69
701.662	15.69
701.69	-11.31
701.718	-13.31
701.747	11.69
701.775	13.69
701.803	-6.31
701.831	23.69
701.86	-14.31
701.888	9.69
701.916	-5.31
701.944	-4.31
701.973	-16.31
702.001	-17.31
702.029	-1.31
702.057	-2.31
702.086	-5.31
702.114	-13.31
702.142	-5.31
702.17	-4.31
702.199	4.69
702.227	-4.31
702.255	-3.31
702.283	-21.31
702.311	1.69
702.34	9.69
702.368	-3.31
702.396	2.69
702.424	-5.31
702.452	3.69
702.481	6.69
702.509	-2.31
702.537	10.69
702.565	7.69
702.593	-12.31
702.621	-0.31
702.65	-0.31
702.678	2.69
702.706	10.69
702.734	9.69
702.762	11.69
702.79	5.69
702.819	12.69
702.847	21.69
702.875	23.69
702.903	6.69
702.931	0.69
702.959	4.69
702.988	8.69
703.016	-12.31
703.044	2.69
703.072	0.69
703.1	-2.31
703.128	-3.31
703.156	5.69
703.184	8.69
703.212	11.69
703.241	8.69
703.269	5.69
703.297	3.69
703.325	-11.31
703.353	-1.31
703.381	-4.31
703.409	-0.31
703.437	1.69
703.465	1.69
703.493	-4.31
703.522	2.69
703.55	17.69
703.578	-4.31
703.606	0.69
703.634	-2.31
703.662	-9.31
703.69	2.69
703.718	7.69
703.746	15.69
703.774	14.69
703.802	19.69
703.83	14.69
703.858	1.69
703.886	-5.31
703.914	1.69
703.942	17.69
703.97	-12.31
703.998	0.69
704.027	34.69
704.055	20.69
704.083	-1.31
704.111	-11.31
704.139	-1.31
704.167	-4.31
704.195	-0.31
704.223	-3.31
704.251	-5.31
704.279	4.69
704.307	8.69
704.335	1.69
704.363	9.69
704.391	-0.31
704.419	4.69
704.447	2.69
704.475	8.69
704.503	-19.31
704.531	13.69
704.558	1.69
704.586	8.69
704.614	6.69
704.642	11.69
704.67	-8.31
704.698	15.69
704.726	2.69
704.754	4.69
704.782	-5.31
704.81	-3.31
704.838	26.69
704.866	2.69
704.894	-17.31
704.922	14.69
704.95	6.69
704.978	12.69
705.006	4.69
705.034	13.69
705.061	3.69
705.089	3.69
705.117	-6.31
705.145	-7.31
705.173	9.69
705.201	7.69
705.229	25.69
705.257	11.69
705.285	10.69
705.313	0.69
705.34	7.69
705.368	-7.31
705.396	3.69
705.424	-6.31
705.452	6.69
705.48	-3.31
705.508	-13.31
705.536	-1.31
705.563	-5.31
705.591	25.69
705.619	18.69
705.647	5.69
705.675	2.69
705.703	1.69
705.731	-6.31
705.758	4.69
705.786	10.69
705.814	27.69
705.842	8.69
705.87	6.69
705.898	7.69
705.925	2.69
705.953	-4.31
705.981	-3.31
706.009	6.69
706.037	18.69
706.065	4.69
706.092	-13.31
706.12	8.69
706.148	3.69
706.176	5.69
706.204	-2.31
706.231	9.69
706.259	-0.31
706.287	0.69
706.315	9.69
706.342	3.69
706.37	16.69
706.398	12.69
706.426	16.69
706.454	-3.31
706.481	11.69
706.509	-1.31
706.537	-5.31
706.565	9.69
706.592	18.69
706.62	1.69
706.648	22.69
706.676	3.69
706.703	19.69
706.731	-11.31
706.759	-0.31
706.787	0.69
706.814	1.69
706.842	-0.31
706.87	-3.31
706.897	-3.31
706.925	-2.31
706.953	9.69
706.981	7.69
707.008	16.69
707.036	10.69
707.064	-4.31
707.091	-12.31
707.119	27.69
707.147	11.69
707.174	8.69
707.202	8.69
707.23	-12.31
707.258	3.69
707.285	-9.31
707.313	-5.31
707.341	2.69
707.368	8.69
707.396	1.69
707.424	29.69
707.451	20.69
707.479	24.69
707.507	4.69
707.534	6.69
707.562	-4.31
707.59	-9.31
707.617	-16.31
707.645	14.69
707.672	8.69
707.7	3.69
707.728	8.69
707.755	14.69
707.783	4.69
707.811	4.69
707.838	3.69
707.866	6.69
707.893	3.69
707.921	-3.31
707.949	-8.31
707.976	15.69
708.004	13.69
708.031	-4.31
708.059	3.69
708.087	16.69
708.114	-1.31
708.142	14.69
708.169	6.69
708.197	-1.31
708.225	8.69
708.252	10.69
708.28	-1.31
708.307	-3.31
708.335	1.69
708.362	3.69
708.39	-7.31
708.418	8.69
708.445	-12.31
708.473	-4.31
708.5	2.69
708.528	5.69
708.555	-3.31
708.583	-0.31
708.61	-6.31
708.638	6.69
708.665	-4.31
708.693	2.69
708.72	-4.31
708.748	-23.31
708.776	8.69
708.803	11.69
708.831	4.69
708.858	24.69
708.886	6.69
708.913	11.69
708.941	-5.31
708.968	7.69
708.996	9.69
709.023	27.69
709.051	12.69
709.078	4.69
709.105	13.69
709.133	0.69
709.16	10.69
709.188	14.69
709.215	15.69
709.243	3.69
709.27	-1.31
709.298	2.69
709.325	1.69
709.353	7.69
709.38	6.69
709.408	18.69
709.435	8.69
709.462	9.69
709.49	12.69
709.517	7.69
709.545	0.69
709.572	14.69
709.6	6.69
709.627	7.69
709.655	-4.31
709.682	10.69
709.709	13.69
709.737	6.69
709.764	5.69
709.792	17.69
709.819	10.69
709.846	8.69
709.874	-0.31
709.901	13.69
709.929	21.69
709.956	27.69
709.983	6.69
710.011	-2.31
710.038	4.69
710.066	2.69
710.093	25.69
710.12	14.69
710.148	4.69
710.175	-6.31
710.202	-11.31
710.23	18.69
710.257	4.69
710.284	8.69
710.312	4.69
710.339	-1.31
710.366	1.69
710.394	-3.31
710.421	-2.31
710.448	-2.31
710.476	-11.31
710.503	-4.31
710.53	22.69
710.558	14.69
710.585	22.69
710.612	10.69
710.64	3.69
710.667	4.69
710.694	-1.31
710.722	18.69
710.749	11.69
710.776	6.69
710.804	12.69
710.831	2.69
710.858	-10.31
710.885	-1.31
710.913	0.69
710.94	10.69
710.967	1.69
710.995	7.69
711.022	0.69
711.049	14.69
711.076	-4.31
711.104	-4.31
711.131	-8.31
711.158	5.69
711.185	1.69
711.213	-7.31
711.24	-3.31
711.267	1.69
711.294	7.69
711.322	20.69
711.349	7.69
711.376	6.69
711.403	6.69
711.431	8.69
711.458	15.69
711.485	-3.31
711.512	3.69
711.54	2.69
711.567	11.69
711.594	-1.31
711.621	7.69
711.648	9.69
711.676	12.69
711.703	7.69
711.73	-1.31
711.757	-11.31
711.784	-0.31
711.812	-9.31
711.839	-3.31
711.866	3.69
711.893	3.69
711.92	12.69
711.947	19.69
711.975	16.69
712.002	8.69
712.029	9.69
712.056	3.69
712.083	8.69
712.11	-0.31
712.138	5.69
712.165	22.69
712.192	0.69
712.219	-0.31
712.246	6.69
712.273	-1.31
712.3	-5.31
712.328	7.69
712.355	10.69
712.382	-1.31
712.409	23.69
712.436	-4.31
712.463	7.69
712.49	4.69
712.517	15.69
712.544	-8.31
712.572	4.69
712.599	6.69
712.626	27.69
712.653	1.69
712.68	-7.31
712.707	13.69
712.734	12.69
712.761	-9.31
712.788	-3.31
712.815	0.69
712.842	12.69
712.87	-0.31
712.897	-2.31
712.924	-2.31
712.951	1.69
712.978	22.69
713.005	14.69
713.032	12.69
713.059	5.69
713.086	3.69
713.113	7.69
713.14	-2.31
713.167	3.69
713.194	11.69
713.221	9.69
713.248	20.69
713.275	5.69
713.302	3.69
713.329	13.69
713.356	14.69
713.383	20.69
713.41	-0.31
713.437	-2.31
713.464	-7.31
713.491	0.69
713.518	9.69
713.545	7.69
713.572	-9.31
713.599	9.69
713.626	-2.31
713.653	2.69
713.68	-0.31
713.707	24.69
713.734	14.69
713.761	9.69
713.788	-6.31
713.815	8.69
713.842	6.69
713.869	6.69
713.896	12.69
713.923	10.69
713.95	5.69
713.977	6.69
714.004	-4.31
714.031	-3.31
714.058	4.69
714.085	-0.31
714.112	14.69
714.139	3.69
714.165	7.69
714.192	-9.31
714.219	2.69
714.246	7.69
714.273	8.69
714.3	2.69
714.327	1.69
714.354	12.69
714.381	-3.31
714.408	5.69
714.435	13.69
714.461	8.69
714.488	11.69
714.515	-2.31
714.542	2.69
714.569	-1.31
714.596	0.69
714.623	1.69
714.65	-14.31
714.677	18.69
714.703	-0.31
714.73	2.69
714.757	7.69
714.784	6.69
714.811	-4.31
714.838	3.69
714.865	-0.31
714.891	10.69
714.918	5.69
714.945	-7.31
714.972	-1.31
714.999	18.69
715.026	3.69
715.052	23.69
715.079	9.69
715.106	20.69
715.133	-2.31
715.16	-18.31
715.187	11.69
715.213	23.69
715.24	-4.31
715.267	-17.31
715.294	4.69
715.321	4.69
715.347	-6.31
715.374	2.69
715.401	3.69
715.428	3.69
715.455	4.69
715.481	2.69
715.508	14.69
715.535	-2.31
715.562	26.69
715.588	15.69
715.615	3.69
715.642	11.69
715.669	18.69
715.695	-1.31
715.722	4.69
715.749	-9.31
715.776	19.69
715.802	12.69
715.829	7.69
715.856	-11.31
715.883	9.69
715.909	0.69
715.936	-2.31
715.963	10.69
715.99	-7.31
716.016	7.69
716.043	8.69
716.07	-5.31
716.096	-15.31
716.123	12.69
716.15	7.69
716.177	15.69
716.203	8.69
716.23	14.69
716.257	11.69
716.283	3.69
716.31	6.69
716.337	4.69
716.363	-6.31
716.39	10.69
716.417	24.69
716.443	0.69
716.47	-4.31
716.497	18.69
716.523	5.69
716.55	8.69
716.577	23.69
716.603	-5.31
716.63	6.69
716.657	11.69
716.683	-1.31
716.71	-16.31
716.737	-4.31
716.763	11.69
716.79	18.69
716.817	28.69
716.843	2.69
716.87	-0.31
716.897	6.69
716.923	9.69
716.95	-8.31
716.976	0.69
717.003	-3.31
717.03	20.69
717.056	8.69
717.083	15.69
717.109	13.69
717.136	23.69
717.163	4.69
717.189	0.69
717.216	4.69
717.242	-0.31
717.269	7.69
717.296	6.69
717.322	21.69
717.349	20.69
717.375	18.69
717.402	21.69
717.428	3.69
717.455	15.69
717.481	4.69
717.508	16.69
717.535	14.69
717.561	2.69
717.588	-0.31
717.614	3.69
717.641	-8.31
717.667	9.69
717.694	11.69
717.72	-2.31
717.747	10.69
717.773	-0.31
717.8	16.69
717.826	5.69
717.853	15.69
717.88	4.69
717.906	9.69
717.933	8.69
717.959	8.69
717.986	21.69
718.012	-4.31
718.039	14.69
718.065	17.69
718.092	18.69
718.118	-3.31
718.144	9.69
718.171	3.69
718.197	9.69
718.224	10.69
718.25	-0.31
718.277	4.69
718.303	14.69
718.33	-6.31
718.356	-9.31
718.383	-15.31
718.409	3.69
718.436	2.69
718.462	-3.31
718.489	3.69
718.515	19.69
718.541	30.69
718.568	7.69
718.594	23.69
718.621	0.69
718.647	-4.31
718.674	-3.31
718.7	9.69
718.726	2.69
718.753	6.69
718.779	9.69
718.806	0.69
718.832	-0.31
718.858	5.69
718.885	3.69
718.911	-1.31
718.938	3.69
718.964	-8.31
718.99	12.69
719.017	7.69
719.043	6.69
719.07	18.69
719.096	6.69
719.122	3.69
719.149	4.69
719.175	3.69
719.201	9.69
719.228	1.69
719.254	7.69
719.281	-1.31
719.307	6.69
719.333	10.69
719.36	5.69
719.386	3.69
719.412	-0.31
719.439	0.69
719.465	12.69
719.491	-25.31
719.518	13.69
719.544	18.69
719.57	10.69
719.597	0.69
719.623	-15.31
719.649	-0.31
719.675	15.69
719.702	18.69
719.728	22.69
719.754	9.69
719.781	0.69
719.807	8.69
719.833	-5.31
719.86	10.69
719.886	11.69
719.912	10.69
719.938	-7.31
719.965	13.69
719.991	17.69
720.017	-5.31
720.044	-0.31
720.07	9.69
720.096	10.69
720.122	6.69
720.149	2.69
720.175	15.69
720.201	14.69
720.227	-7.31
720.254	-7.31
720.28	-8.31
720.306	-8.31
720.332	3.69
720.359	19.69
720.385	20.69
720.411	17.69
720.437	6.69
720.463	0.69
720.49	11.69
720.516	-0.31
720.542	2.69
720.568	4.69
720.595	13.69
720.621	11.69
720.647	16.69
720.673	8.69
720.699	2.69
720.725	0.69
720.752	10.69
720.778	13.69
720.804	10.69
720.83	1.69
720.856	13.69
720.883	-13.31
720.909	8.69
720.935	-2.31
720.961	4.69
720.987	3.69
721.013	12.69
721.04	-4.31
721.066	-6.31
721.092	0.69
721.118	-3.31
721.144	12.69
721.17	3.69
721.196	-1.31
721.223	15.69
721.249	7.69
721.275	10.69
721.301	4.69
721.327	-3.31
721.353	7.69
721.379	2.69
721.405	15.69
721.432	4.69
721.458	-9.31
721.484	0.69
721.51	-24.31
721.536	3.69
721.562	14.69
721.588	7.69
721.614	13.69
721.64	-1.31
721.666	-0.31
721.693	7.69
721.719	-4.31
721.745	-2.31
721.771	17.69
721.797	10.69
721.823	9.69
721.849	24.69
721.875	-2.31
721.901	7.69
721.927	-3.31
721.953	4.69
721.979	18.69
722.005	15.69
722.031	4.69
722.057	16.69
722.083	13.69
722.109	15.69
722.135	0.69
722.161	11.69
722.187	15.69
722.214	-14.31
722.24	8.69
722.266	-3.31
722.292	18.69
722.318	24.69
722.344	18.69
722.37	16.69
722.396	11.69
722.422	-10.31
722.448	6.69
722.474	-14.31
722.5	15.69
722.526	6.69
722.552	-3.31
722.578	11.69
722.603	22.69
722.629	-6.31
722.655	3.69
722.681	7.69
722.707	7.69
722.733	-13.31
722.759	-18.31
722.785	20.69
722.811	18.69
722.837	-0.31
722.863	-1.31
722.889	26.69
722.915	-0.31
722.941	3.69
722.967	5.69
722.993	-1.31
723.019	3.69
723.045	-1.31
723.071	14.69
723.097	7.69
723.122	6.69
723.148	4.69
723.174	25.69
723.2	3.69
723.226	4.69
723.252	-2.31
723.278	-9.31
723.304	-3.31
723.33	7.69
723.356	-15.31
723.381	-3.31
723.407	-1.31
723.433	24.69
723.459	5.69
723.485	1.69
723.511	9.69
723.537	0.69
723.563	10.69
723.588	7.69
723.614	7.69
723.64	-2.31
723.666	10.69
723.692	5.69
723.718	10.69
723.744	1.69
723.769	3.69
723.795	-0.31
723.821	14.69
723.847	14.69
723.873	10.69
723.899	2.69
723.924	-22.31
723.95	1.69
723.976	-17.31
724.002	8.69
724.028	24.69
724.053	0.69
724.079	-8.31
724.105	-2.31
724.131	14.69
724.157	11.69
724.182	6.69
724.208	7.69
724.234	2.69
724.26	-4.31
724.286	5.69
724.311	6.69
724.337	-12.31
724.363	-1.31
724.389	10.69
724.415	8.69
724.44	21.69
724.466	4.69
724.492	7.69
724.518	7.69
724.543	0.69
724.569	7.69
724.595	11.69
724.621	11.69
724.646	-3.31
724.672	3.69
724.698	1.69
724.723	5.69
724.749	4.69
724.775	14.69
724.801	10.69
724.826	4.69
724.852	16.69
724.878	0.69
724.904	-2.31
724.929	11.69
724.955	-8.31
724.981	1.69
725.006	1.69
725.032	7.69
725.058	6.69
725.083	-8.31
725.109	-2.31
725.135	-5.31
725.161	3.69
725.186	8.69
725.212	0.69
725.238	8.69
725.263	8.69
725.289	-12.31
725.315	-16.31
725.34	5.69
725.366	7.69
725.392	7.69
725.417	25.69
725.443	10.69
725.468	3.69
725.494	14.69
725.52	10.69
725.545	8.69
725.571	-9.31
725.597	8.69
725.622	14.69
725.648	10.69
725.674	18.69
725.699	2.69
725.725	10.69
725.75	29.69
725.776	11.69
725.802	10.69
725.827	0.69
725.853	-16.31
725.878	0.69
725.904	-10.31
725.93	0.69
725.955	-3.31
725.981	-1.31
726.006	-5.31
726.032	12.69
726.057	2.69
726.083	-4.31
726.109	8.69
726.134	18.69
726.16	9.69
726.185	1.69
726.211	-11.31
726.236	2.69
726.262	12.69
726.288	6.69
726.313	23.69
726.339	5.69
726.364	2.69
726.39	10.69
726.415	4.69
726.441	14.69
726.466	-7.31
726.492	1.69
726.517	2.69
726.543	0.69
726.568	3.69
726.594	-0.31
726.619	6.69
726.645	6.69
726.67	-3.31
726.696	14.69
726.721	2.69
726.747	4.69
726.772	0.69
726.798	-0.31
726.823	-9.31
726.849	-0.31
726.874	12.69
726.9	12.69
726.925	15.69
726.951	-2.31
726.976	2.69
727.002	6.69
727.027	12.69
727.053	5.69
727.078	2.69
727.104	7.69
727.129	11.69
727.155	4.69
727.18	26.69
727.205	7.69
727.231	11.69
727.256	4.69
727.282	7.69
727.307	12.69
727.333	6.69
727.358	-0.31
727.383	-16.31
727.409	-19.31
727.434	-4.31
727.46	11.69
727.485	10.69
727.511	19.69
727.536	-0.31
727.561	18.69
727.587	7.69
727.612	-3.31
727.637	-5.31
727.663	-1.31
727.688	18.69
727.714	-11.31
727.739	6.69
727.764	7.69
727.79	7.69
727.815	9.69
727.841	10.69
727.866	6.69
727.891	8.69
727.917	-3.31
727.942	0.69
727.967	-0.31
727.993	-2.31
728.018	2.69
728.043	4.69
728.069	9.69
728.094	22.69
728.119	17.69
728.145	30.69
728.17	14.69
728.195	4.69
728.221	0.69
728.246	6.69
728.271	-6.31
728.297	3.69
728.322	20.69
728.347	14.69
728.373	10.69
728.398	-2.31
728.423	-7.31
728.448	7.69
728.474	12.69
728.499	13.69
728.524	6.69
728.55	0.69
728.575	6.69
728.6	17.69
728.625	-14.31
728.651	2.69
728.676	1.69
728.701	-1.31
728.727	-13.31
728.752	-6.31
728.777	5.69
728.802	7.69
728.828	9.69
728.853	5.69
728.878	-0.31
728.903	-6.31
728.929	-4.31
728.954	-8.31
728.979	8.69
729.004	5.69
729.03	-2.31
729.055	3.69
729.08	13.69
729.105	0.69
729.13	8.69
729.156	12.69
729.181	11.69
729.206	-11.31
729.231	-5.31
729.256	13.69
729.282	0.69
729.307	-6.31
729.332	10.69
729.357	6.69
729.382	18.69
729.408	18.69
729.433	6.69
729.458	17.69
729.483	5.69
729.508	7.69
729.533	10.69
729.559	8.69
729.584	-3.31
729.609	-3.31
729.634	15.69
729.659	-7.31
729.684	10.69
729.71	9.69
729.735	3.69
729.76	-3.31
729.785	0.69
729.81	11.69
729.835	2.69
729.86	3.69
729.886	15.69
729.911	-3.31
729.936	-1.31
729.961	12.69
729.986	2.69
730.011	11.69
730.036	15.69
730.061	9.69
730.086	1.69
730.112	10.69
730.137	14.69
730.162	1.69
730.187	-7.31
730.212	19.69
730.237	-3.31
730.262	1.69
730.287	-8.31
730.312	31.69
730.337	8.69
730.362	19.69
730.387	15.69
730.413	10.69
730.438	-8.31
730.463	5.69
730.488	-0.31
730.513	7.69
730.538	3.69
730.563	20.69
730.588	27.69
730.613	22.69
730.638	5.69
730.663	-7.31
730.688	12.69
730.713	32.69
730.738	7.69
730.763	-0.31
730.788	-6.31
730.813	15.69
730.838	8.69
730.863	5.69
730.888	-7.31
730.913	-11.31
730.938	-16.31
730.963	0.69
730.988	9.69
731.013	8.69
731.038	-17.31
731.063	0.69
731.088	17.69
731.113	3.69
731.138	9.69
731.163	-12.31
731.188	-8.31
731.213	15.69
731.238	2.69
731.263	-9.31
731.288	-7.31
731.313	10.69
731.338	3.69
731.363	4.69
731.388	3.69
731.413	8.69
731.438	12.69
731.463	18.69
731.487	22.69
731.512	-5.31
731.537	-0.31
731.562	-12.31
731.587	8.69
731.612	10.69
731.637	-4.31
731.662	3.69
731.687	14.69
731.712	-0.31
731.737	1.69
731.762	0.69
731.786	6.69
731.811	23.69
731.836	26.69
731.861	4.69
731.886	-5.31
731.911	17.69
731.936	20.69
731.961	-1.31
731.986	3.69
732.01	9.69
732.035	2.69
732.06	9.69
732.085	-1.31
732.11	10.69
732.135	1.69
732.16	9.69
732.184	7.69
732.209	14.69
732.234	18.69
732.259	14.69
732.284	26.69
732.309	11.69
732.334	2.69
732.358	-0.31
732.383	2.69
732.408	0.69
732.433	10.69
732.458	1.69
732.482	3.69
732.507	-12.31
732.532	-5.31
732.557	16.69
732.582	2.69
732.607	2.69
732.631	-11.31
732.656	-6.31
732.681	6.69
732.706	12.69
732.73	12.69
732.755	0.69
732.78	-5.31
732.805	4.69
732.83	10.69
732.854	2.69
732.879	11.69
732.904	8.69
732.929	8.69
732.953	10.69
732.978	6.69
733.003	-16.31
733.028	-17.31
733.052	7.69
733.077	21.69
733.102	16.69
733.127	7.69
733.151	-5.31
733.176	-1.31
733.201	-1.31
733.226	4.69
733.25	9.69
733.275	6.69
733.3	10.69
733.324	27.69
733.349	13.69
733.374	12.69
733.399	4.69
733.423	-1.31
733.448	2.69
733.473	-4.31
733.497	3.69
733.522	10.69
733.547	18.69
733.571	34.69
733.596	18.69
733.621	26.69
733.646	-2.31
733.67	8.69
733.695	5.69
733.72	6.69
733.744	-1.31
733.769	1.69
733.794	17.69
733.818	1.69
733.843	-1.31
733.867	3.69
733.892	14.69
733.917	2.69
733.941	-10.31
733.966	-5.31
733.991	-0.31
734.015	21.69
734.04	-3.31
734.065	12.69
734.089	18.69
734.114	6.69
734.138	17.69
734.163	-1.31
734.188	10.69
734.212	21.69
734.237	26.69
734.261	-0.31
734.286	11.69
734.311	-12.31
734.335	13.69
734.36	4.69
734.384	4.69
734.409	7.69
734.434	-8.31
734.458	5.69
734.483	16.69
734.507	10.69
734.532	3.69
734.556	11.69
734.581	-11.31
734.606	10.69
734.63	-3.31
734.655	-4.31
734.679	23.69
734.704	12.69
734.728	3.69
734.753	10.69
734.777	10.69
734.802	-4.31
734.826	14.69
734.851	9.69
734.876	16.69
734.9	14.69
734.925	8.69
734.949	8.69
734.974	8.69
734.998	16.69
735.023	-6.31
735.047	-4.31
735.072	14.69
735.096	12.69
735.121	3.69
735.145	2.69
735.17	7.69
735.194	10.69
735.219	2.69
735.243	12.69
735.268	10.69
735.292	0.69
735.317	2.69
735.341	11.69
735.365	7.69
735.39	8.69
735.414	16.69
735.439	2.69
735.463	-3.31
735.488	15.69
735.512	9.69
735.537	25.69
735.561	0.69
735.586	6.69
735.61	4.69
735.634	6.69
735.659	16.69
735.683	11.69
735.708	-14.31
735.732	10.69
735.757	1.69
735.781	11.69
735.805	11.69
735.83	-8.31
735.854	10.69
735.879	11.69
735.903	19.69
735.927	0.69
735.952	13.69
735.976	2.69
736.001	6.69
736.025	12.69
736.049	-2.31
736.074	9.69
736.098	6.69
736.123	12.69
736.147	-5.31
736.171	-3.31
736.196	16.69
736.22	-8.31
736.244	13.69
736.269	2.69
736.293	-2.31
736.317	13.69
736.342	13.69
736.366	18.69
736.39	20.69
736.415	21.69
736.439	7.69
736.463	19.69
736.488	6.69
736.512	8.69
736.536	5.69
736.561	18.69
736.585	3.69
736.609	3.69
736.634	-4.31
736.658	-9.31
736.682	-0.31
736.707	-9.31
736.731	-8.31
736.755	2.69
736.78	15.69
736.804	9.69
736.828	9.69
736.852	-5.31
736.877	2.69
736.901	6.69
736.925	-1.31
736.949	10.69
736.974	3.69
736.998	-4.31
737.022	1.69
737.047	6.69
737.071	2.69
737.095	11.69
737.119	39.69
737.144	24.69
737.168	0.69
737.192	-12.31
737.216	16.69
737.241	-9.31
737.265	-3.31
737.289	6.69
737.313	1.69
737.337	7.69
737.362	10.69
737.386	6.69
737.41	0.69
737.434	6.69
737.459	-4.31
737.483	7.69
737.507	11.69
737.531	12.69
737.555	13.69
737.58	3.69
737.604	5.69
737.628	0.69
737.652	1.69
737.676	-5.31
737.701	3.69
737.725	0.69
737.749	8.69
737.773	-1.31
737.797	3.69
737.821	13.69
737.846	10.69
737.87	22.69
737.894	-6.31
737.918	-2.31
737.942	-5.31
737.966	8.69
737.99	24.69
738.015	11.69
738.039	6.69
738.063	1.69
738.087	11.69
738.111	5.69
738.135	13.69
738.159	-13.31
738.184	8.69
738.208	-1.31
738.232	11.69
738.256	10.69
738.28	3.69
738.304	9.69
738.328	1.69
738.352	19.69
738.376	2.69
738.4	1.69
738.425	1.69
738.449	-11.31
738.473	3.69
738.497	16.69
738.521	3.69
738.545	10.69
738.569	-9.31
738.593	8.69
738.617	7.69
738.641	13.69
738.665	10.69
738.689	16.69
738.713	2.69
738.737	8.69
738.762	7.69
738.786	2.69
738.81	-11.31
738.834	13.69
738.858	-11.31
738.882	22.69
738.906	6.69
738.93	10.69
738.954	7.69
738.978	2.69
739.002	12.69
739.026	13.69
739.05	3.69
739.074	0.69
739.098	27.69
739.122	2.69
739.146	3.69
739.17	15.69
739.194	2.69
739.218	-9.31
739.242	2.69
739.266	8.69
739.29	-4.31
739.314	2.69
739.338	7.69
739.362	12.69
739.386	13.69
739.41	3.69
739.434	-9.31
739.458	15.69
739.482	12.69
739.506	20.69
739.53	7.69
739.554	19.69
739.577	3.69
739.601	5.69
739.625	-9.31
739.649	21.69
739.673	1.69
739.697	-3.31
739.721	5.69
739.745	15.69
739.769	15.69
739.793	15.69
739.817	19.69
739.841	-12.31
739.865	9.69
739.889	3.69
739.912	14.69
739.936	10.69
739.96	2.69
739.984	18.69
740.008	-4.31
740.032	-5.31
740.056	12.69
740.08	8.69
740.104	7.69
740.127	13.69
740.151	3.69
740.175	16.69
740.199	11.69
740.223	59.69
740.247	16.69
740.271	1.69
740.295	-4.31
740.318	5.69
740.342	-14.31
740.366	13.69
740.39	11.69
740.414	-6.31
740.438	-2.31
740.461	9.69
740.485	12.69
740.509	2.69
740.533	0.69
740.557	8.69
740.581	10.69
740.604	-0.31
740.628	-11.31
740.652	18.69
740.676	7.69
740.7	2.69
740.723	2.69
740.747	1.69
740.771	14.69
740.795	-8.31
740.819	10.69
740.842	5.69
740.866	9.69
740.89	10.69
740.914	-1.31
740.938	-11.31
740.961	15.69
740.985	26.69
741.009	3.69
741.033	16.69
741.056	27.69
741.08	-1.31
741.104	-0.31
741.128	3.69
741.151	13.69
741.175	12.69
741.199	-6.31
741.223	-0.31
741.246	-10.31
741.27	13.69
741.294	18.69
741.318	-5.31
741.341	0.69
741.365	9.69
741.389	6.69
741.413	14.69
741.436	24.69
741.46	7.69
741.484	24.69
741.507	0.69
741.531	15.69
741.555	10.69
741.579	7.69
741.602	15.69
741.626	15.69
741.65	15.69
741.673	-1.31
741.697	4.69
741.721	11.69
741.744	-7.31
741.768	-3.31
741.792	-0.31
741.815	1.69
741.839	18.69
741.863	23.69
741.886	24.69
741.91	10.69
741.934	-7.31
741.957	-1.31
741.981	7.69
742.005	-13.31
742.028	10.69
742.052	10.69
742.075	14.69
742.099	21.69
742.123	12.69
742.146	11.69
742.17	17.69
742.194	-0.31
742.217	-9.31
742.241	-6.31
742.264	3.69
742.288	8.69
742.312	1.69
742.335	-5.31
742.359	12.69
742.382	23.69
742.406	15.69
742.43	-21.31
742.453	12.69
742.477	-7.31
742.5	2.69
742.524	-1.31
742.548	-1.31
742.571	7.69
742.595	10.69
742.618	-9.31
742.642	2.69
742.665	15.69
742.689	8.69
742.712	2.69
742.736	-11.31
742.76	6.69
742.783	-0.31
742.807	21.69
742.83	12.69
742.854	2.69
742.877	1.69
742.901	-0.31
742.924	-2.31
742.948	18.69
742.971	-2.31
742.995	0.69
743.018	-18.31
743.042	-16.31
743.065	-13.31
743.089	-3.31
743.112	6.69
743.136	-5.31
743.159	5.69
743.183	-3.31
743.206	5.69
743.23	8.69
743.253	6.69
743.277	11.69
743.3	7.69
743.324	6.69
743.347	8.69
743.371	21.69
743.394	13.69
743.418	31.69
743.441	12.69
743.465	3.69
743.488	4.69
743.512	-14.31
743.535	-8.31
743.558	-1.31
743.582	3.69
743.605	0.69
743.629	11.69
743.652	7.69
743.676	11.69
743.699	5.69
743.723	1.69
743.746	18.69
743.769	17.69
743.793	12.69
743.816	2.69
743.84	16.69
743.863	16.69
743.886	-2.31
743.91	10.69
743.933	1.69
743.957	0.69
743.98	3.69
744.003	6.69
744.027	-6.31
744.05	6.69
744.074	6.69
744.097	-12.31
744.12	16.69
744.144	-3.31
744.167	4.69
744.19	17.69
744.214	-8.31
744.237	8.69
744.26	17.69
744.284	0.69
744.307	-3.31
744.331	7.69
744.354	-0.31
744.377	-1.31
744.401	10.69
744.424	-6.31
744.447	-8.31
744.471	-9.31
