Data from HighRes_H2D2_15_04_11_07_2024_HR4C61891__82__15-05-42-642.txt Node

Date: Thu Nov 07 15:05:42 EST 2024
User: crc00042
Spectrometer: HR4C6189
Trigger mode: 4
Integration Time (sec): 1.000000E-1
Scans to average: 1
Electric dark correction enabled: true
Nonlinearity correction enabled: false
Boxcar width: 0
XAxis mode: Wavelengths
Number of Pixels in Spectrum: 3648
>>>>>Begin Spectral Data<<<<<
639.567	-76.62
639.602	-76.62
639.636	-76.62
639.67	-63.62
639.704	-28.62
639.738	-31.62
639.773	11.38
639.807	-15.62
639.841	2.38
639.875	2.38
639.909	-1.62
639.943	-2.62
639.978	1.38
640.012	4.38
640.046	15.38
640.08	-2.62
640.114	15.38
640.148	1.38
640.182	-4.62
640.217	-1.62
640.251	31.38
640.285	13.38
640.319	1.38
640.353	-19.62
640.387	0.38
640.421	-11.62
640.455	-6.62
640.49	7.38
640.524	-16.62
640.558	10.38
640.592	4.38
640.626	-8.62
640.66	3.38
640.694	-18.62
640.728	0.38
640.762	-14.62
640.796	12.38
640.83	5.38
640.865	13.38
640.899	-5.62
640.933	-10.62
640.967	-15.62
641.001	6.38
641.035	0.38
641.069	-11.62
641.103	-16.62
641.137	-11.62
641.171	-20.62
641.205	-1.62
641.239	2.38
641.273	6.38
641.307	17.38
641.341	6.38
641.375	-6.62
641.409	-10.62
641.443	4.38
641.477	9.38
641.511	3.38
641.545	0.38
641.579	5.38
641.614	1.38
641.648	7.38
641.682	-9.62
641.716	10.38
641.75	9.38
641.784	-5.62
641.818	1.38
641.852	-5.62
641.886	1.38
641.919	26.38
641.953	-4.62
641.987	-17.62
642.021	-2.62
642.055	8.38
642.089	1.38
642.123	-12.62
642.157	-11.62
642.191	-3.62
642.225	-2.62
642.259	10.38
642.293	23.38
642.327	-2.62
642.361	-6.62
642.395	10.38
642.429	19.38
642.463	14.38
642.497	12.38
642.531	-0.62
642.565	-11.62
642.599	8.38
642.633	-18.62
642.666	-3.62
642.7	-1.62
642.734	6.38
642.768	0.38
642.802	-17.62
642.836	-5.62
642.87	-0.62
642.904	-4.62
642.938	7.38
642.972	-6.62
643.005	-0.62
643.039	1.38
643.073	5.38
643.107	10.38
643.141	1.38
643.175	-2.62
643.209	5.38
643.243	-0.62
643.276	-0.62
643.31	-6.62
643.344	11.38
643.378	-1.62
643.412	15.38
643.446	-10.62
643.48	6.38
643.513	6.38
643.547	8.38
643.581	8.38
643.615	8.38
643.649	5.38
643.683	11.38
643.716	0.38
643.75	13.38
643.784	4.38
643.818	12.38
643.852	-7.62
643.886	-0.62
643.919	1.38
643.953	-5.62
643.987	14.38
644.021	11.38
644.055	9.38
644.088	-5.62
644.122	-26.62
644.156	4.38
644.19	-0.62
644.224	3.38
644.257	-6.62
644.291	12.38
644.325	7.38
644.359	-9.62
644.392	10.38
644.426	17.38
644.46	-3.62
644.494	-4.62
644.527	-3.62
644.561	-3.62
644.595	-4.62
644.629	-11.62
644.662	3.38
644.696	-0.62
644.73	5.38
644.764	9.38
644.797	-4.62
644.831	6.38
644.865	6.38
644.899	2.38
644.932	18.38
644.966	9.38
645	8.38
645.033	16.38
645.067	7.38
645.101	-7.62
645.135	3.38
645.168	0.38
645.202	-0.62
645.236	8.38
645.269	13.38
645.303	1.38
645.337	-10.62
645.37	-5.62
645.404	-0.62
645.438	7.38
645.471	-10.62
645.505	-9.62
645.539	-17.62
645.572	-8.62
645.606	-15.62
645.64	0.38
645.673	-3.62
645.707	4.38
645.741	-3.62
645.774	-19.62
645.808	8.38
645.842	-17.62
645.875	14.38
645.909	-1.62
645.943	-6.62
645.976	4.38
646.01	12.38
646.043	-4.62
646.077	-10.62
646.111	3.38
646.144	7.38
646.178	2.38
646.212	-1.62
646.245	-15.62
646.279	11.38
646.312	6.38
646.346	15.38
646.38	14.38
646.413	12.38
646.447	2.38
646.48	-7.62
646.514	11.38
646.547	-18.62
646.581	-1.62
646.615	-2.62
646.648	-6.62
646.682	3.38
646.715	9.38
646.749	13.38
646.782	3.38
646.816	0.38
646.85	8.38
646.883	-1.62
646.917	6.38
646.95	-0.62
646.984	6.38
647.017	8.38
647.051	13.38
647.084	-8.62
647.118	-8.62
647.151	2.38
647.185	8.38
647.218	7.38
647.252	7.38
647.285	-0.62
647.319	-3.62
647.353	-1.62
647.386	29.38
647.42	4.38
647.453	-4.62
647.487	-3.62
647.52	6.38
647.553	0.38
647.587	2.38
647.62	-2.62
647.654	14.38
647.687	11.38
647.721	5.38
647.754	10.38
647.788	9.38
647.821	-10.62
647.855	13.38
647.888	10.38
647.922	11.38
647.955	7.38
647.989	3.38
648.022	0.38
648.055	-2.62
648.089	-0.62
648.122	5.38
648.156	-8.62
648.189	-8.62
648.223	24.38
648.256	34.38
648.29	8.38
648.323	19.38
648.356	0.38
648.39	8.38
648.423	4.38
648.457	4.38
648.49	5.38
648.523	3.38
648.557	2.38
648.59	-1.62
648.624	5.38
648.657	5.38
648.69	25.38
648.724	-4.62
648.757	8.38
648.791	11.38
648.824	16.38
648.857	27.38
648.891	-5.62
648.924	4.38
648.957	4.38
648.991	-22.62
649.024	-2.62
649.057	-13.62
649.091	-7.62
649.124	5.38
649.158	11.38
649.191	14.38
649.224	18.38
649.258	-1.62
649.291	6.38
649.324	13.38
649.358	20.38
649.391	11.38
649.424	11.38
649.458	-0.62
649.491	5.38
649.524	1.38
649.557	-15.62
649.591	-11.62
649.624	12.38
649.657	-4.62
649.691	-1.62
649.724	1.38
649.757	-1.62
649.791	6.38
649.824	10.38
649.857	16.38
649.89	-8.62
649.924	-19.62
649.957	-7.62
649.99	-4.62
650.023	-13.62
650.057	0.38
650.09	9.38
650.123	6.38
650.157	2.38
650.19	9.38
650.223	-5.62
650.256	-14.62
650.29	15.38
650.323	15.38
650.356	-4.62
650.389	4.38
650.423	-9.62
650.456	16.38
650.489	11.38
650.522	4.38
650.555	-8.62
650.589	6.38
650.622	12.38
650.655	18.38
650.688	2.38
650.721	-0.62
650.755	9.38
650.788	13.38
650.821	13.38
650.854	-14.62
650.887	11.38
650.921	1.38
650.954	-6.62
650.987	8.38
651.02	9.38
651.053	-0.62
651.087	6.38
651.12	24.38
651.153	10.38
651.186	1.38
651.219	-8.62
651.252	11.38
651.286	2.38
651.319	-14.62
651.352	-2.62
651.385	17.38
651.418	12.38
651.451	8.38
651.484	-1.62
651.518	-0.62
651.551	11.38
651.584	4.38
651.617	-5.62
651.65	1.38
651.683	8.38
651.716	-1.62
651.749	-15.62
651.783	3.38
651.816	16.38
651.849	5.38
651.882	-0.62
651.915	-11.62
651.948	2.38
651.981	-14.62
652.014	-9.62
652.047	-5.62
652.08	-13.62
652.114	-19.62
652.147	-7.62
652.18	1.38
652.213	31.38
652.246	11.38
652.279	-14.62
652.312	23.38
652.345	-1.62
652.378	24.38
652.411	24.38
652.444	11.38
652.477	1.38
652.51	0.38
652.543	-14.62
652.576	6.38
652.609	-13.62
652.642	-10.62
652.675	8.38
652.709	-5.62
652.742	9.38
652.775	13.38
652.808	4.38
652.841	1.38
652.874	4.38
652.907	0.38
652.94	-0.62
652.973	-10.62
653.006	8.38
653.039	8.38
653.072	2.38
653.105	1.38
653.138	-13.62
653.171	-12.62
653.204	-19.62
653.237	14.38
653.27	-8.62
653.303	-0.62
653.336	13.38
653.368	-7.62
653.401	6.38
653.434	-10.62
653.467	-0.62
653.5	-3.62
653.533	-3.62
653.566	11.38
653.599	10.38
653.632	-6.62
653.665	28.38
653.698	-7.62
653.731	-7.62
653.764	-2.62
653.797	-12.62
653.83	6.38
653.863	17.38
653.896	16.38
653.929	10.38
653.961	5.38
653.994	-3.62
654.027	-7.62
654.06	22.38
654.093	-2.62
654.126	20.38
654.159	-9.62
654.192	13.38
654.225	-6.62
654.258	5.38
654.29	5.38
654.323	11.38
654.356	12.38
654.389	12.38
654.422	4.38
654.455	-1.62
654.488	-1.62
654.521	-10.62
654.553	-9.62
654.586	19.38
654.619	-2.62
654.652	6.38
654.685	10.38
654.718	13.38
654.751	7.38
654.783	4.38
654.816	29.38
654.849	6.38
654.882	-0.62
654.915	-11.62
654.948	4.38
654.98	14.38
655.013	7.38
655.046	-6.62
655.079	-3.62
655.112	4.38
655.144	-22.62
655.177	-5.62
655.21	23.38
655.243	14.38
655.276	-14.62
655.308	7.38
655.341	-32.62
655.374	0.38
655.407	6.38
655.44	-1.62
655.472	-3.62
655.505	5.38
655.538	3.38
655.571	1.38
655.603	-0.62
655.636	-11.62
655.669	10.38
655.702	0.38
655.734	-3.62
655.767	-7.62
655.8	9.38
655.833	14.38
655.865	15.38
655.898	5.38
655.931	4.38
655.964	23.38
655.996	14.38
656.029	27.38
656.062	32.38
656.095	42.38
656.127	92.38
656.16	205.38
656.193	613.38
656.225	923.38
656.258	547.38
656.291	206.38
656.324	161.38
656.356	369.38
656.389	790.38
656.422	669.38
656.454	235.38
656.487	91.38
656.52	16.38
656.552	17.38
656.585	12.38
656.618	12.38
656.65	1.38
656.683	-5.62
656.716	-2.62
656.748	-1.62
656.781	-0.62
656.814	-7.62
656.846	10.38
656.879	7.38
656.912	1.38
656.944	-18.62
656.977	-6.62
657.01	2.38
657.042	20.38
657.075	4.38
657.108	2.38
657.14	11.38
657.173	17.38
657.205	30.38
657.238	0.38
657.271	-7.62
657.303	-5.62
657.336	0.38
657.369	-0.62
657.401	-4.62
657.434	8.38
657.466	10.38
657.499	-15.62
657.532	-9.62
657.564	11.38
657.597	0.38
657.629	-4.62
657.662	-2.62
657.694	5.38
657.727	-10.62
657.76	18.38
657.792	-6.62
657.825	-6.62
657.857	-10.62
657.89	-10.62
657.922	23.38
657.955	-7.62
657.987	6.38
658.02	1.38
658.053	13.38
658.085	15.38
658.118	-1.62
658.15	4.38
658.183	24.38
658.215	-0.62
658.248	-5.62
658.28	-2.62
658.313	16.38
658.345	5.38
658.378	19.38
658.41	-2.62
658.443	3.38
658.475	-7.62
658.508	-11.62
658.54	8.38
658.573	5.38
658.605	7.38
658.638	-12.62
658.67	4.38
658.703	-2.62
658.735	-2.62
658.768	2.38
658.8	-7.62
658.833	18.38
658.865	0.38
658.898	-0.62
658.93	-1.62
658.963	18.38
658.995	-7.62
659.028	2.38
659.06	-5.62
659.092	-5.62
659.125	1.38
659.157	27.38
659.19	-1.62
659.222	5.38
659.255	14.38
659.287	-2.62
659.32	-7.62
659.352	7.38
659.384	20.38
659.417	-7.62
659.449	5.38
659.482	-0.62
659.514	-11.62
659.546	-9.62
659.579	-17.62
659.611	8.38
659.644	-4.62
659.676	-9.62
659.708	-17.62
659.741	-18.62
659.773	8.38
659.806	1.38
659.838	5.38
659.87	-5.62
659.903	3.38
659.935	14.38
659.967	-5.62
660	2.38
660.032	-13.62
660.065	11.38
660.097	8.38
660.129	0.38
660.162	-13.62
660.194	15.38
660.226	11.38
660.259	6.38
660.291	4.38
660.323	-7.62
660.356	-5.62
660.388	2.38
660.42	4.38
660.453	5.38
660.485	5.38
660.517	9.38
660.55	1.38
660.582	2.38
660.614	29.38
660.647	3.38
660.679	-16.62
660.711	3.38
660.743	-20.62
660.776	-10.62
660.808	-10.62
660.84	-2.62
660.873	-11.62
660.905	-2.62
660.937	-7.62
660.969	-4.62
661.002	-5.62
661.034	12.38
661.066	-1.62
661.099	7.38
661.131	8.38
661.163	3.38
661.195	6.38
661.228	20.38
661.26	2.38
661.292	5.38
661.324	9.38
661.357	-2.62
661.389	4.38
661.421	1.38
661.453	6.38
661.485	0.38
661.518	-9.62
661.55	-26.62
661.582	-26.62
661.614	3.38
661.647	4.38
661.679	10.38
661.711	3.38
661.743	-10.62
661.775	1.38
661.808	19.38
661.84	-6.62
661.872	4.38
661.904	4.38
661.936	1.38
661.969	-8.62
662.001	-2.62
662.033	-1.62
662.065	-2.62
662.097	6.38
662.129	7.38
662.162	-4.62
662.194	-11.62
662.226	10.38
662.258	-3.62
662.29	-4.62
662.322	-15.62
662.355	-10.62
662.387	8.38
662.419	2.38
662.451	12.38
662.483	3.38
662.515	-6.62
662.547	1.38
662.58	0.38
662.612	-10.62
662.644	-9.62
662.676	-21.62
662.708	13.38
662.74	-22.62
662.772	-7.62
662.804	-2.62
662.836	-0.62
662.869	5.38
662.901	12.38
662.933	7.38
662.965	20.38
662.997	14.38
663.029	-15.62
663.061	-4.62
663.093	2.38
663.125	-7.62
663.157	13.38
663.189	9.38
663.221	20.38
663.254	10.38
663.286	10.38
663.318	-6.62
663.35	5.38
663.382	-6.62
663.414	12.38
663.446	17.38
663.478	-4.62
663.51	20.38
663.542	-3.62
663.574	7.38
663.606	2.38
663.638	-19.62
663.67	-4.62
663.702	-0.62
663.734	-8.62
663.766	17.38
663.798	6.38
663.83	-0.62
663.862	17.38
663.894	35.38
663.926	-0.62
663.958	24.38
663.99	5.38
664.022	-3.62
664.054	11.38
664.086	-5.62
664.118	-19.62
664.15	-23.62
664.182	2.38
664.214	-5.62
664.246	10.38
664.278	6.38
664.31	9.38
664.342	2.38
664.374	19.38
664.406	-6.62
664.438	-2.62
664.47	12.38
664.502	-4.62
664.534	-14.62
664.566	8.38
664.598	6.38
664.63	-9.62
664.662	-1.62
664.693	-2.62
664.725	-5.62
664.757	-1.62
664.789	-11.62
664.821	5.38
664.853	18.38
664.885	12.38
664.917	-21.62
664.949	4.38
664.981	-0.62
665.013	5.38
665.045	-0.62
665.076	7.38
665.108	9.38
665.14	4.38
665.172	-1.62
665.204	-6.62
665.236	-1.62
665.268	16.38
665.3	-11.62
665.331	-7.62
665.363	18.38
665.395	8.38
665.427	-7.62
665.459	-8.62
665.491	16.38
665.523	7.38
665.555	-1.62
665.586	7.38
665.618	-2.62
665.65	-13.62
665.682	-6.62
665.714	-2.62
665.746	-19.62
665.777	-6.62
665.809	-7.62
665.841	7.38
665.873	-5.62
665.905	8.38
665.937	25.38
665.968	5.38
666	4.38
666.032	5.38
666.064	-7.62
666.096	-2.62
666.127	1.38
666.159	7.38
666.191	4.38
666.223	3.38
666.255	-3.62
666.286	7.38
666.318	-6.62
666.35	24.38
666.382	-2.62
666.413	5.38
666.445	-15.62
666.477	-7.62
666.509	-1.62
666.54	7.38
666.572	-16.62
666.604	-1.62
666.636	4.38
666.667	3.38
666.699	-2.62
666.731	-5.62
666.763	-8.62
666.794	11.38
666.826	8.38
666.858	-14.62
666.89	3.38
666.921	8.38
666.953	21.38
666.985	-8.62
667.017	22.38
667.048	-11.62
667.08	6.38
667.112	-8.62
667.143	-22.62
667.175	7.38
667.207	-5.62
667.238	10.38
667.27	17.38
667.302	5.38
667.334	-3.62
667.365	16.38
667.397	11.38
667.429	12.38
667.46	24.38
667.492	3.38
667.524	-2.62
667.555	1.38
667.587	-3.62
667.619	-11.62
667.65	4.38
667.682	10.38
667.714	10.38
667.745	-22.62
667.777	9.38
667.808	15.38
667.84	18.38
667.872	5.38
667.903	7.38
667.935	-1.62
667.967	4.38
667.998	-1.62
668.03	-3.62
668.061	8.38
668.093	-2.62
668.125	12.38
668.156	8.38
668.188	-17.62
668.22	-8.62
668.251	6.38
668.283	9.38
668.314	1.38
668.346	-5.62
668.377	5.38
668.409	-15.62
668.441	4.38
668.472	-4.62
668.504	-1.62
668.535	18.38
668.567	9.38
668.599	18.38
668.63	-11.62
668.662	7.38
668.693	12.38
668.725	8.38
668.756	8.38
668.788	-6.62
668.819	3.38
668.851	-6.62
668.882	8.38
668.914	-3.62
668.946	-3.62
668.977	-10.62
669.009	-11.62
669.04	-10.62
669.072	2.38
669.103	5.38
669.135	5.38
669.166	3.38
669.198	-6.62
669.229	12.38
669.261	6.38
669.292	5.38
669.324	23.38
669.355	8.38
669.387	-5.62
669.418	-10.62
669.45	-4.62
669.481	4.38
669.513	7.38
669.544	7.38
669.576	-11.62
669.607	11.38
669.639	8.38
669.67	-3.62
669.701	5.38
669.733	1.38
669.764	9.38
669.796	-6.62
669.827	-20.62
669.859	-8.62
669.89	12.38
669.922	17.38
669.953	8.38
669.985	14.38
670.016	-1.62
670.047	2.38
670.079	-7.62
670.11	22.38
670.142	13.38
670.173	5.38
670.204	1.38
670.236	0.38
670.267	-5.62
670.299	-7.62
670.33	-2.62
670.362	24.38
670.393	21.38
670.424	9.38
670.456	-8.62
670.487	6.38
670.518	-0.62
670.55	-9.62
670.581	-1.62
670.613	1.38
670.644	7.38
670.675	3.38
670.707	-11.62
670.738	-1.62
670.769	-6.62
670.801	-0.62
670.832	17.38
670.864	-5.62
670.895	2.38
670.926	-5.62
670.958	-6.62
670.989	10.38
671.02	-10.62
671.052	-10.62
671.083	-5.62
671.114	-10.62
671.146	18.38
671.177	1.38
671.208	-8.62
671.24	11.38
671.271	8.38
671.302	-5.62
671.333	-9.62
671.365	-14.62
671.396	3.38
671.427	7.38
671.459	10.38
671.49	-4.62
671.521	-6.62
671.553	-7.62
671.584	-11.62
671.615	-10.62
671.646	-5.62
671.678	-3.62
671.709	12.38
671.74	-2.62
671.771	4.38
671.803	-6.62
671.834	4.38
671.865	-3.62
671.896	0.38
671.928	-3.62
671.959	5.38
671.99	-16.62
672.021	-22.62
672.053	0.38
672.084	19.38
672.115	-4.62
672.146	-7.62
672.178	-19.62
672.209	-15.62
672.24	-0.62
672.271	23.38
672.303	11.38
672.334	-6.62
672.365	0.38
672.396	13.38
672.427	2.38
672.459	23.38
672.49	32.38
672.521	-6.62
672.552	12.38
672.583	17.38
672.615	-6.62
672.646	10.38
672.677	6.38
672.708	-15.62
672.739	0.38
672.77	13.38
672.802	13.38
672.833	6.38
672.864	6.38
672.895	2.38
672.926	6.38
672.957	0.38
672.989	8.38
673.02	-0.62
673.051	11.38
673.082	12.38
673.113	5.38
673.144	3.38
673.175	6.38
673.206	-6.62
673.238	-5.62
673.269	6.38
673.3	1.38
673.331	9.38
673.362	1.38
673.393	8.38
673.424	-2.62
673.455	10.38
673.487	9.38
673.518	12.38
673.549	16.38
673.58	9.38
673.611	-2.62
673.642	-1.62
673.673	-24.62
673.704	-1.62
673.735	8.38
673.766	9.38
673.797	-7.62
673.828	3.38
673.86	4.38
673.891	-17.62
673.922	5.38
673.953	-5.62
673.984	4.38
674.015	-6.62
674.046	-4.62
674.077	-8.62
674.108	-20.62
674.139	7.38
674.17	-6.62
674.201	-10.62
674.232	1.38
674.263	-0.62
674.294	-16.62
674.325	-21.62
674.356	11.38
674.387	24.38
674.418	10.38
674.449	4.38
674.48	1.38
674.511	-3.62
674.542	-0.62
674.573	10.38
674.604	20.38
674.635	0.38
674.666	0.38
674.697	-6.62
674.728	9.38
674.759	5.38
674.79	-12.62
674.821	-13.62
674.852	0.38
674.883	-14.62
674.914	-3.62
674.945	-13.62
674.976	8.38
675.007	18.38
675.038	-8.62
675.069	-15.62
675.1	-7.62
675.131	-5.62
675.162	-2.62
675.193	7.38
675.224	10.38
675.254	16.38
675.285	15.38
675.316	12.38
675.347	-12.62
675.378	-14.62
675.409	2.38
675.44	12.38
675.471	-5.62
675.502	5.38
675.533	-1.62
675.564	0.38
675.595	-3.62
675.625	16.38
675.656	10.38
675.687	8.38
675.718	-4.62
675.749	16.38
675.78	6.38
675.811	-1.62
675.842	-1.62
675.873	-14.62
675.903	-13.62
675.934	3.38
675.965	8.38
675.996	2.38
676.027	-8.62
676.058	-10.62
676.089	6.38
676.119	-1.62
676.15	-10.62
676.181	8.38
676.212	-1.62
676.243	0.38
676.274	8.38
676.304	20.38
676.335	-7.62
676.366	5.38
676.397	-17.62
676.428	3.38
676.459	17.38
676.489	2.38
676.52	-3.62
676.551	-1.62
676.582	9.38
676.613	-3.62
676.643	-6.62
676.674	-5.62
676.705	-3.62
676.736	11.38
676.767	10.38
676.797	20.38
676.828	-3.62
676.859	5.38
676.89	-10.62
676.92	16.38
676.951	-2.62
676.982	6.38
677.013	1.38
677.044	26.38
677.074	-8.62
677.105	-6.62
677.136	12.38
677.167	-3.62
677.197	7.38
677.228	-1.62
677.259	0.38
677.289	-5.62
677.32	-12.62
677.351	-3.62
677.382	-3.62
677.412	-0.62
677.443	18.38
677.474	2.38
677.505	-15.62
677.535	-5.62
677.566	-7.62
677.597	-0.62
677.627	-3.62
677.658	11.38
677.689	13.38
677.72	7.38
677.75	5.38
677.781	-1.62
677.812	-2.62
677.842	12.38
677.873	-12.62
677.904	-1.62
677.934	-7.62
677.965	-4.62
677.996	-6.62
678.026	-8.62
678.057	14.38
678.088	-12.62
678.118	0.38
678.149	-10.62
678.18	-11.62
678.21	1.38
678.241	0.38
678.272	-7.62
678.302	-2.62
678.333	-6.62
678.363	21.38
678.394	3.38
678.425	-2.62
678.455	1.38
678.486	27.38
678.517	-3.62
678.547	-2.62
678.578	15.38
678.608	5.38
678.639	-0.62
678.67	11.38
678.7	-4.62
678.731	9.38
678.761	6.38
678.792	-5.62
678.823	6.38
678.853	-11.62
678.884	7.38
678.914	15.38
678.945	-2.62
678.975	-5.62
679.006	12.38
679.037	10.38
679.067	24.38
679.098	0.38
679.128	4.38
679.159	-19.62
679.189	4.38
679.22	-21.62
679.25	-3.62
679.281	-2.62
679.312	0.38
679.342	14.38
679.373	13.38
679.403	0.38
679.434	1.38
679.464	-8.62
679.495	-1.62
679.525	8.38
679.556	5.38
679.586	12.38
679.617	-1.62
679.647	-3.62
679.678	-0.62
679.708	-11.62
679.739	-9.62
679.769	-0.62
679.8	-8.62
679.83	4.38
679.861	8.38
679.891	-12.62
679.922	-16.62
679.952	20.38
679.983	26.38
680.013	15.38
680.044	-0.62
680.074	8.38
680.105	13.38
680.135	-6.62
680.165	7.38
680.196	4.38
680.226	11.38
680.257	4.38
680.287	-4.62
680.318	6.38
680.348	-20.62
680.379	11.38
680.409	-0.62
680.439	-5.62
680.47	-5.62
680.5	-0.62
680.531	7.38
680.561	11.38
680.592	11.38
680.622	23.38
680.652	15.38
680.683	17.38
680.713	-7.62
680.744	-16.62
680.774	-7.62
680.804	23.38
680.835	13.38
680.865	-12.62
680.896	13.38
680.926	26.38
680.956	6.38
680.987	15.38
681.017	-6.62
681.047	9.38
681.078	1.38
681.108	-9.62
681.139	-13.62
681.169	-9.62
681.199	2.38
681.23	-2.62
681.26	-0.62
681.29	-5.62
681.321	-3.62
681.351	1.38
681.381	-16.62
681.412	10.38
681.442	22.38
681.472	24.38
681.503	14.38
681.533	12.38
681.563	12.38
681.594	12.38
681.624	8.38
681.654	0.38
681.685	0.38
681.715	6.38
681.745	-3.62
681.775	14.38
681.806	7.38
681.836	-3.62
681.866	-2.62
681.897	9.38
681.927	-12.62
681.957	-19.62
681.987	5.38
682.018	-8.62
682.048	1.38
682.078	-3.62
682.109	3.38
682.139	18.38
682.169	-0.62
682.199	1.38
682.23	-2.62
682.26	0.38
682.29	-7.62
682.32	2.38
682.351	4.38
682.381	4.38
682.411	-5.62
682.441	-13.62
682.472	-8.62
682.502	-6.62
682.532	-2.62
682.562	-4.62
682.592	-0.62
682.623	0.38
682.653	7.38
682.683	1.38
682.713	4.38
682.743	1.38
682.774	-8.62
682.804	7.38
682.834	5.38
682.864	-19.62
682.894	-7.62
682.925	1.38
682.955	4.38
682.985	9.38
683.015	8.38
683.045	3.38
683.076	-1.62
683.106	-3.62
683.136	-2.62
683.166	-17.62
683.196	-15.62
683.226	-12.62
683.257	3.38
683.287	-10.62
683.317	5.38
683.347	1.38
683.377	-3.62
683.407	5.38
683.437	2.38
683.468	7.38
683.498	-2.62
683.528	8.38
683.558	4.38
683.588	9.38
683.618	3.38
683.648	-1.62
683.678	4.38
683.708	4.38
683.739	-1.62
683.769	1.38
683.799	-23.62
683.829	-7.62
683.859	2.38
683.889	8.38
683.919	-8.62
683.949	10.38
683.979	1.38
684.009	-1.62
684.039	9.38
684.07	4.38
684.1	15.38
684.13	-4.62
684.16	-1.62
684.19	4.38
684.22	-10.62
684.25	-2.62
684.28	-3.62
684.31	17.38
684.34	0.38
684.37	1.38
684.4	-9.62
684.43	4.38
684.46	0.38
684.49	16.38
684.52	18.38
684.55	12.38
684.58	-7.62
684.61	4.38
684.64	-3.62
684.67	9.38
684.7	-1.62
684.73	14.38
684.76	1.38
684.79	17.38
684.82	9.38
684.85	-10.62
684.88	8.38
684.91	9.38
684.94	-11.62
684.97	-12.62
685	7.38
685.03	-4.62
685.06	-8.62
685.09	-8.62
685.12	17.38
685.15	-12.62
685.18	15.38
685.21	16.38
685.24	1.38
685.27	8.38
685.3	-3.62
685.33	-0.62
685.36	7.38
685.39	1.38
685.42	-2.62
685.45	0.38
685.48	-21.62
685.51	-8.62
685.54	15.38
685.569	12.38
685.599	19.38
685.629	9.38
685.659	22.38
685.689	17.38
685.719	8.38
685.749	-1.62
685.779	13.38
685.809	7.38
685.839	-2.62
685.869	5.38
685.898	-3.62
685.928	3.38
685.958	9.38
685.988	14.38
686.018	12.38
686.048	5.38
686.078	13.38
686.108	13.38
686.137	-6.62
686.167	2.38
686.197	-17.62
686.227	-1.62
686.257	23.38
686.287	29.38
686.317	15.38
686.346	-7.62
686.376	-5.62
686.406	-8.62
686.436	5.38
686.466	-8.62
686.496	22.38
686.525	4.38
686.555	-10.62
686.585	17.38
686.615	19.38
686.645	-2.62
686.675	-2.62
686.704	12.38
686.734	12.38
686.764	-0.62
686.794	12.38
686.824	5.38
686.853	9.38
686.883	12.38
686.913	9.38
686.943	3.38
686.973	0.38
687.002	8.38
687.032	4.38
687.062	-2.62
687.092	16.38
687.121	-9.62
687.151	4.38
687.181	10.38
687.211	7.38
687.24	9.38
687.27	6.38
687.3	1.38
687.33	-4.62
687.359	-11.62
687.389	4.38
687.419	-1.62
687.449	-1.62
687.478	7.38
687.508	4.38
687.538	0.38
687.568	1.38
687.597	1.38
687.627	4.38
687.657	3.38
687.686	0.38
687.716	14.38
687.746	3.38
687.776	-2.62
687.805	10.38
687.835	20.38
687.865	17.38
687.894	11.38
687.924	5.38
687.954	6.38
687.983	-3.62
688.013	3.38
688.043	7.38
688.072	-5.62
688.102	5.38
688.132	-10.62
688.161	-16.62
688.191	-0.62
688.221	25.38
688.25	-18.62
688.28	11.38
688.31	-4.62
688.339	11.38
688.369	-4.62
688.399	-1.62
688.428	6.38
688.458	6.38
688.488	-4.62
688.517	9.38
688.547	-10.62
688.576	29.38
688.606	3.38
688.636	-18.62
688.665	8.38
688.695	5.38
688.725	6.38
688.754	4.38
688.784	3.38
688.813	5.38
688.843	-7.62
688.873	-2.62
688.902	-4.62
688.932	5.38
688.961	2.38
688.991	5.38
689.02	15.38
689.05	-0.62
689.08	13.38
689.109	25.38
689.139	-3.62
689.168	12.38
689.198	7.38
689.227	2.38
689.257	-11.62
689.287	13.38
689.316	-4.62
689.346	-10.62
689.375	-17.62
689.405	8.38
689.434	3.38
689.464	11.38
689.493	15.38
689.523	9.38
689.552	0.38
689.582	-0.62
689.611	7.38
689.641	9.38
689.67	11.38
689.7	14.38
689.73	13.38
689.759	-1.62
689.789	18.38
689.818	9.38
689.848	-9.62
689.877	15.38
689.906	3.38
689.936	-2.62
689.965	13.38
689.995	16.38
690.024	15.38
690.054	-3.62
690.083	13.38
690.113	-3.62
690.142	5.38
690.172	12.38
690.201	13.38
690.231	-3.62
690.26	8.38
690.29	5.38
690.319	28.38
690.348	10.38
690.378	13.38
690.407	-4.62
690.437	-19.62
690.466	7.38
690.496	-9.62
690.525	10.38
690.555	-0.62
690.584	17.38
690.613	3.38
690.643	10.38
690.672	6.38
690.702	9.38
690.731	0.38
690.76	0.38
690.79	-0.62
690.819	-7.62
690.849	4.38
690.878	-3.62
690.907	3.38
690.937	8.38
690.966	9.38
690.996	-4.62
691.025	-5.62
691.054	-2.62
691.084	5.38
691.113	6.38
691.142	13.38
691.172	11.38
691.201	15.38
691.23	1.38
691.26	4.38
691.289	18.38
691.319	9.38
691.348	5.38
691.377	8.38
691.407	5.38
691.436	7.38
691.465	16.38
691.495	13.38
691.524	-10.62
691.553	-13.62
691.583	-12.62
691.612	22.38
691.641	7.38
691.67	0.38
691.7	6.38
691.729	-9.62
691.758	2.38
691.788	4.38
691.817	-8.62
691.846	-3.62
691.876	-0.62
691.905	12.38
691.934	8.38
691.963	15.38
691.993	2.38
692.022	3.38
692.051	-6.62
692.081	24.38
692.11	15.38
692.139	-2.62
692.168	-1.62
692.198	13.38
692.227	7.38
692.256	8.38
692.285	4.38
692.315	6.38
692.344	-4.62
692.373	-1.62
692.402	-22.62
692.432	-23.62
692.461	-2.62
692.49	2.38
692.519	5.38
692.548	1.38
692.578	-0.62
692.607	5.38
692.636	1.38
692.665	-9.62
692.694	5.38
692.724	15.38
692.753	9.38
692.782	13.38
692.811	2.38
692.84	-3.62
692.87	12.38
692.899	-4.62
692.928	4.38
692.957	-0.62
692.986	8.38
693.016	5.38
693.045	10.38
693.074	11.38
693.103	4.38
693.132	0.38
693.161	9.38
693.191	-4.62
693.22	-19.62
693.249	-1.62
693.278	-1.62
693.307	17.38
693.336	-10.62
693.365	-1.62
693.395	2.38
693.424	16.38
693.453	25.38
693.482	4.38
693.511	16.38
693.54	4.38
693.569	-1.62
693.598	3.38
693.628	20.38
693.657	22.38
693.686	14.38
693.715	26.38
693.744	9.38
693.773	16.38
693.802	14.38
693.831	-1.62
693.86	23.38
693.889	2.38
693.919	19.38
693.948	11.38
693.977	3.38
694.006	-1.62
694.035	15.38
694.064	3.38
694.093	-12.62
694.122	-15.62
694.151	5.38
694.18	9.38
694.209	27.38
694.238	-4.62
694.267	25.38
694.296	13.38
694.325	9.38
694.354	23.38
694.383	9.38
694.412	-2.62
694.441	4.38
694.471	3.38
694.5	-5.62
694.529	13.38
694.558	9.38
694.587	9.38
694.616	8.38
694.645	6.38
694.674	11.38
694.703	-2.62
694.732	-0.62
694.761	24.38
694.79	5.38
694.819	-11.62
694.848	-12.62
694.877	16.38
694.906	32.38
694.935	9.38
694.963	23.38
694.992	-12.62
695.021	-5.62
695.05	15.38
695.079	-3.62
695.108	6.38
695.137	20.38
695.166	6.38
695.195	-18.62
695.224	17.38
695.253	1.38
695.282	4.38
695.311	-6.62
695.34	-3.62
695.369	11.38
695.398	4.38
695.427	28.38
695.456	2.38
695.485	3.38
695.513	8.38
695.542	0.38
695.571	15.38
695.6	10.38
695.629	12.38
695.658	14.38
695.687	6.38
695.716	1.38
695.745	21.38
695.774	-16.62
695.802	-4.62
695.831	14.38
695.86	15.38
695.889	3.38
695.918	9.38
695.947	-2.62
695.976	4.38
696.005	8.38
696.033	4.38
696.062	20.38
696.091	6.38
696.12	4.38
696.149	17.38
696.178	18.38
696.207	-2.62
696.235	-3.62
696.264	13.38
696.293	-2.62
696.322	-2.62
696.351	10.38
696.38	4.38
696.408	3.38
696.437	9.38
696.466	16.38
696.495	5.38
696.524	11.38
696.553	10.38
696.581	21.38
696.61	5.38
696.639	0.38
696.668	17.38
696.697	4.38
696.725	15.38
696.754	7.38
696.783	-3.62
696.812	-2.62
696.84	-0.62
696.869	8.38
696.898	15.38
696.927	3.38
696.956	12.38
696.984	-4.62
697.013	-15.62
697.042	-0.62
697.071	1.38
697.099	-3.62
697.128	6.38
697.157	15.38
697.186	-7.62
697.214	-2.62
697.243	-11.62
697.272	3.38
697.301	15.38
697.329	24.38
697.358	16.38
697.387	21.38
697.415	17.38
697.444	4.38
697.473	7.38
697.502	-0.62
697.53	15.38
697.559	5.38
697.588	7.38
697.616	5.38
697.645	10.38
697.674	8.38
697.703	4.38
697.731	17.38
697.76	6.38
697.789	20.38
697.817	17.38
697.846	9.38
697.875	-8.62
697.903	22.38
697.932	11.38
697.961	13.38
697.989	8.38
698.018	-4.62
698.047	15.38
698.075	12.38
698.104	-2.62
698.133	11.38
698.161	4.38
698.19	-8.62
698.218	-0.62
698.247	21.38
698.276	-0.62
698.304	21.38
698.333	12.38
698.362	1.38
698.39	8.38
698.419	9.38
698.447	-0.62
698.476	5.38
698.505	24.38
698.533	9.38
698.562	9.38
698.591	-6.62
698.619	-9.62
698.648	0.38
698.676	14.38
698.705	5.38
698.733	-11.62
698.762	6.38
698.791	4.38
698.819	14.38
698.848	-4.62
698.876	-2.62
698.905	7.38
698.933	9.38
698.962	-4.62
698.991	-11.62
699.019	4.38
699.048	4.38
699.076	9.38
699.105	-7.62
699.133	-12.62
699.162	17.38
699.19	35.38
699.219	9.38
699.248	8.38
699.276	-9.62
699.305	1.38
699.333	15.38
699.362	5.38
699.39	19.38
699.419	7.38
699.447	11.38
699.476	12.38
699.504	14.38
699.533	9.38
699.561	-13.62
699.59	5.38
699.618	0.38
699.647	3.38
699.675	4.38
699.704	10.38
699.732	5.38
699.761	22.38
699.789	18.38
699.818	17.38
699.846	12.38
699.874	-5.62
699.903	-2.62
699.931	-2.62
699.96	16.38
699.988	10.38
700.017	-1.62
700.045	3.38
700.074	-7.62
700.102	-1.62
700.13	-6.62
700.159	17.38
700.187	0.38
700.216	-3.62
700.244	-3.62
700.273	-2.62
700.301	6.38
700.329	-1.62
700.358	3.38
700.386	2.38
700.415	0.38
700.443	-11.62
700.472	4.38
700.5	1.38
700.528	11.38
700.557	5.38
700.585	-2.62
700.614	-6.62
700.642	9.38
700.67	28.38
700.699	12.38
700.727	-3.62
700.755	-11.62
700.784	5.38
700.812	-9.62
700.841	4.38
700.869	3.38
700.897	-2.62
700.926	5.38
700.954	10.38
700.982	3.38
701.011	1.38
701.039	8.38
701.067	-11.62
701.096	4.38
701.124	-0.62
701.152	2.38
701.181	0.38
701.209	5.38
701.237	0.38
701.266	-5.62
701.294	-11.62
701.322	11.38
701.351	7.38
701.379	-0.62
701.407	-11.62
701.435	10.38
701.464	21.38
701.492	17.38
701.52	-1.62
701.549	-5.62
701.577	2.38
701.605	-0.62
701.634	0.38
701.662	12.38
701.69	-3.62
701.718	-19.62
701.747	10.38
701.775	-1.62
701.803	-0.62
701.831	19.38
701.86	7.38
701.888	16.38
701.916	-6.62
701.944	-4.62
701.973	-3.62
702.001	-4.62
702.029	-7.62
702.057	8.38
702.086	-25.62
702.114	-9.62
702.142	1.38
702.17	10.38
702.199	1.38
702.227	-2.62
702.255	6.38
702.283	3.38
702.311	12.38
702.34	7.38
702.368	-16.62
702.396	-3.62
702.424	4.38
702.452	-1.62
702.481	-0.62
702.509	0.38
702.537	10.38
702.565	6.38
702.593	-8.62
702.621	4.38
702.65	8.38
702.678	5.38
702.706	0.38
702.734	-0.62
702.762	17.38
702.79	-0.62
702.819	-21.62
702.847	4.38
702.875	7.38
702.903	12.38
702.931	9.38
702.959	6.38
702.988	11.38
703.016	-2.62
703.044	-1.62
703.072	7.38
703.1	3.38
703.128	4.38
703.156	5.38
703.184	0.38
703.212	16.38
703.241	5.38
703.269	-7.62
703.297	1.38
703.325	11.38
703.353	-0.62
703.381	-18.62
703.409	-5.62
703.437	-17.62
703.465	-2.62
703.493	-7.62
703.522	7.38
703.55	8.38
703.578	11.38
703.606	4.38
703.634	7.38
703.662	9.38
703.69	3.38
703.718	24.38
703.746	23.38
703.774	8.38
703.802	33.38
703.83	-3.62
703.858	0.38
703.886	-7.62
703.914	-10.62
703.942	15.38
703.97	8.38
703.998	4.38
704.027	27.38
704.055	26.38
704.083	18.38
704.111	7.38
704.139	-0.62
704.167	-11.62
704.195	-0.62
704.223	2.38
704.251	-6.62
704.279	11.38
704.307	2.38
704.335	-11.62
704.363	6.38
704.391	-5.62
704.419	0.38
704.447	-8.62
704.475	-0.62
704.503	-11.62
704.531	8.38
704.558	6.38
704.586	17.38
704.614	1.38
704.642	3.38
704.67	-3.62
704.698	-2.62
704.726	1.38
704.754	4.38
704.782	-2.62
704.81	7.38
704.838	24.38
704.866	18.38
704.894	-8.62
704.922	-12.62
704.95	-1.62
704.978	10.38
705.006	1.38
705.034	15.38
705.061	-12.62
705.089	16.38
705.117	-5.62
705.145	6.38
705.173	9.38
705.201	5.38
705.229	9.38
705.257	0.38
705.285	20.38
705.313	17.38
705.34	3.38
705.368	-11.62
705.396	8.38
705.424	-6.62
705.452	0.38
705.48	-12.62
705.508	-7.62
705.536	17.38
705.563	4.38
705.591	8.38
705.619	19.38
705.647	-1.62
705.675	20.38
705.703	4.38
705.731	-2.62
705.758	4.38
705.786	10.38
705.814	27.38
705.842	-0.62
705.87	15.38
705.898	-0.62
705.925	6.38
705.953	0.38
705.981	-6.62
706.009	8.38
706.037	14.38
706.065	-1.62
706.092	-0.62
706.12	2.38
706.148	-22.62
706.176	-2.62
706.204	12.38
706.231	-1.62
706.259	-9.62
706.287	5.38
706.315	2.38
706.342	4.38
706.37	17.38
706.398	12.38
706.426	0.38
706.454	0.38
706.481	19.38
706.509	-5.62
706.537	-11.62
706.565	-0.62
706.592	7.38
706.62	-4.62
706.648	12.38
706.676	-0.62
706.703	5.38
706.731	-1.62
706.759	0.38
706.787	15.38
706.814	5.38
706.842	4.38
706.87	5.38
706.897	7.38
706.925	-8.62
706.953	-0.62
706.981	14.38
707.008	27.38
707.036	7.38
707.064	-6.62
707.091	-1.62
707.119	2.38
707.147	-4.62
707.174	3.38
707.202	19.38
707.23	-3.62
707.258	11.38
707.285	-0.62
707.313	4.38
707.341	-20.62
707.368	-11.62
707.396	14.38
707.424	18.38
707.451	8.38
707.479	17.38
707.507	6.38
707.534	-7.62
707.562	-2.62
707.59	2.38
707.617	-10.62
707.645	-10.62
707.672	-2.62
707.7	-4.62
707.728	4.38
707.755	23.38
707.783	-0.62
707.811	0.38
707.838	-3.62
707.866	7.38
707.893	3.38
707.921	-2.62
707.949	-1.62
707.976	5.38
708.004	2.38
708.031	13.38
708.059	-4.62
708.087	8.38
708.114	1.38
708.142	6.38
708.169	3.38
708.197	-0.62
708.225	13.38
708.252	1.38
708.28	8.38
708.307	0.38
708.335	-20.62
708.362	3.38
708.39	-18.62
708.418	12.38
708.445	-4.62
708.473	-5.62
708.5	-5.62
708.528	7.38
708.555	1.38
708.583	3.38
708.61	5.38
708.638	11.38
708.665	-0.62
708.693	8.38
708.72	2.38
708.748	-18.62
708.776	-12.62
708.803	13.38
708.831	4.38
708.858	10.38
708.886	4.38
708.913	-6.62
708.941	4.38
708.968	-8.62
708.996	7.38
709.023	33.38
709.051	5.38
709.078	-11.62
709.105	1.38
709.133	4.38
709.16	7.38
709.188	14.38
709.215	4.38
709.243	4.38
709.27	-4.62
709.298	-0.62
709.325	-9.62
709.353	-7.62
709.38	-8.62
709.408	5.38
709.435	5.38
709.462	5.38
709.49	1.38
709.517	-21.62
709.545	-3.62
709.572	-12.62
709.6	-2.62
709.627	10.38
709.655	0.38
709.682	-8.62
709.709	-6.62
709.737	-11.62
709.764	-0.62
709.792	19.38
709.819	0.38
709.846	3.38
709.874	15.38
709.901	22.38
709.929	13.38
709.956	12.38
709.983	-18.62
710.011	-0.62
710.038	1.38
710.066	-7.62
710.093	10.38
710.12	3.38
710.148	-0.62
710.175	-4.62
710.202	3.38
710.23	3.38
710.257	-5.62
710.284	5.38
710.312	7.38
710.339	-3.62
710.366	-8.62
710.394	1.38
710.421	-1.62
710.448	28.38
710.476	-4.62
710.503	7.38
710.53	7.38
710.558	6.38
710.585	3.38
710.612	-14.62
710.64	-2.62
710.667	0.38
710.694	-5.62
710.722	-2.62
710.749	0.38
710.776	0.38
710.804	16.38
710.831	4.38
710.858	3.38
710.885	-7.62
710.913	-0.62
710.94	26.38
710.967	20.38
710.995	3.38
711.022	0.38
711.049	14.38
711.076	7.38
711.104	-7.62
711.131	-2.62
711.158	-2.62
711.185	13.38
711.213	-3.62
711.24	-10.62
711.267	4.38
711.294	9.38
711.322	11.38
711.349	-2.62
711.376	0.38
711.403	6.38
711.431	0.38
711.458	9.38
711.485	-2.62
711.512	16.38
711.54	5.38
711.567	3.38
711.594	-2.62
711.621	-0.62
711.648	3.38
711.676	5.38
711.703	-3.62
711.73	-6.62
711.757	3.38
711.784	-0.62
711.812	5.38
711.839	-2.62
711.866	-6.62
711.893	-8.62
711.92	15.38
711.947	7.38
711.975	5.38
712.002	-9.62
712.029	6.38
712.056	-3.62
712.083	2.38
712.11	-4.62
712.138	12.38
712.165	8.38
712.192	-0.62
712.219	-10.62
712.246	-1.62
712.273	-9.62
712.3	-12.62
712.328	9.38
712.355	-3.62
712.382	-2.62
712.409	8.38
712.436	-5.62
712.463	11.38
712.49	6.38
712.517	15.38
712.544	-6.62
712.572	3.38
712.599	-4.62
712.626	5.38
712.653	-10.62
712.68	-11.62
712.707	1.38
712.734	11.38
712.761	14.38
712.788	20.38
712.815	-1.62
712.842	21.38
712.87	1.38
712.897	6.38
712.924	-3.62
712.951	-2.62
712.978	16.38
713.005	14.38
713.032	-7.62
713.059	-0.62
713.086	-0.62
713.113	0.38
713.14	3.38
713.167	-5.62
713.194	5.38
713.221	15.38
713.248	6.38
713.275	4.38
713.302	3.38
713.329	3.38
713.356	6.38
713.383	14.38
713.41	11.38
713.437	-2.62
713.464	12.38
713.491	12.38
713.518	9.38
713.545	-2.62
713.572	9.38
713.599	11.38
713.626	4.38
713.653	7.38
713.68	2.38
713.707	12.38
713.734	13.38
713.761	23.38
713.788	4.38
713.815	10.38
713.842	15.38
713.869	1.38
713.896	17.38
713.923	-8.62
713.95	-3.62
713.977	-9.62
714.004	-8.62
714.031	-14.62
714.058	-7.62
714.085	7.38
714.112	19.38
714.139	4.38
714.165	-18.62
714.192	-2.62
714.219	13.38
714.246	-2.62
714.273	-1.62
714.3	-0.62
714.327	9.38
714.354	7.38
714.381	-0.62
714.408	-0.62
714.435	-2.62
714.461	-14.62
714.488	11.38
714.515	-12.62
714.542	-3.62
714.569	11.38
714.596	-0.62
714.623	0.38
714.65	-1.62
714.677	19.38
714.703	-7.62
714.73	25.38
714.757	-5.62
714.784	3.38
714.811	14.38
714.838	8.38
714.865	-1.62
714.891	7.38
714.918	-11.62
714.945	-3.62
714.972	0.38
714.999	11.38
715.026	-1.62
715.052	20.38
715.079	-2.62
715.106	13.38
715.133	1.38
715.16	-3.62
715.187	-14.62
715.213	-3.62
715.24	-0.62
715.267	-4.62
715.294	0.38
715.321	7.38
715.347	22.38
715.374	-9.62
715.401	6.38
715.428	-6.62
715.455	7.38
715.481	-19.62
715.508	-7.62
715.535	-6.62
715.562	30.38
715.588	13.38
715.615	0.38
715.642	-3.62
715.669	13.38
715.695	-5.62
715.722	3.38
715.749	14.38
715.776	0.38
715.802	-6.62
715.829	8.38
715.856	-16.62
715.883	11.38
715.909	-0.62
715.936	4.38
715.963	-7.62
715.99	-3.62
716.016	12.38
716.043	-2.62
716.07	-12.62
716.096	-5.62
716.123	10.38
716.15	5.38
716.177	0.38
716.203	12.38
716.23	18.38
716.257	0.38
716.283	24.38
716.31	20.38
716.337	6.38
716.363	5.38
716.39	5.38
716.417	19.38
716.443	4.38
716.47	12.38
716.497	13.38
716.523	16.38
716.55	4.38
716.577	17.38
716.603	2.38
716.63	4.38
716.657	9.38
716.683	-0.62
716.71	10.38
716.737	0.38
716.763	12.38
716.79	9.38
716.817	18.38
716.843	-3.62
716.87	-12.62
716.897	6.38
716.923	24.38
716.95	4.38
716.976	-6.62
717.003	-0.62
717.03	16.38
717.056	9.38
717.083	-3.62
717.109	8.38
717.136	14.38
717.163	-10.62
717.189	1.38
717.216	1.38
717.242	1.38
717.269	-1.62
717.296	11.38
717.322	4.38
717.349	9.38
717.375	3.38
717.402	-1.62
717.428	12.38
717.455	12.38
717.481	13.38
717.508	23.38
717.535	11.38
717.561	-2.62
717.588	-5.62
717.614	-3.62
717.641	6.38
717.667	8.38
717.694	10.38
717.72	-3.62
717.747	19.38
717.773	-3.62
717.8	9.38
717.826	-9.62
717.853	-3.62
717.88	18.38
717.906	-0.62
717.933	11.38
717.959	4.38
717.986	1.38
718.012	-0.62
718.039	3.38
718.065	12.38
718.092	10.38
718.118	6.38
718.144	-2.62
718.171	32.38
718.197	23.38
718.224	-7.62
718.25	4.38
718.277	-2.62
718.303	-8.62
718.33	6.38
718.356	-7.62
718.383	-8.62
718.409	0.38
718.436	-3.62
718.462	3.38
718.489	3.38
718.515	11.38
718.541	12.38
718.568	17.38
718.594	6.38
718.621	-2.62
718.647	10.38
718.674	5.38
718.7	11.38
718.726	3.38
718.753	0.38
718.779	3.38
718.806	-7.62
718.832	-5.62
718.858	0.38
718.885	-8.62
718.911	-4.62
718.938	4.38
718.964	-4.62
718.99	0.38
719.017	-2.62
719.043	7.38
719.07	23.38
719.096	-6.62
719.122	-7.62
719.149	1.38
719.175	26.38
719.201	8.38
719.228	-4.62
719.254	-2.62
719.281	-0.62
719.307	4.38
719.333	10.38
719.36	23.38
719.386	-7.62
719.412	10.38
719.439	-8.62
719.465	0.38
719.491	-4.62
719.518	7.38
719.544	8.38
719.57	15.38
719.597	11.38
719.623	-7.62
719.649	12.38
719.675	-4.62
719.702	1.38
719.728	23.38
719.754	-9.62
719.781	9.38
719.807	-12.62
719.833	-0.62
719.86	-0.62
719.886	-3.62
719.912	-4.62
719.938	-9.62
719.965	-0.62
719.991	14.38
720.017	20.38
720.044	-13.62
720.07	19.38
720.096	-0.62
720.122	9.38
720.149	6.38
720.175	26.38
720.201	19.38
720.227	1.38
720.254	5.38
720.28	4.38
720.306	-3.62
720.332	12.38
720.359	8.38
720.385	16.38
720.411	24.38
720.437	26.38
720.463	-5.62
720.49	5.38
720.516	1.38
720.542	-2.62
720.568	5.38
720.595	17.38
720.621	7.38
720.647	10.38
720.673	10.38
720.699	1.38
720.725	4.38
720.752	9.38
720.778	20.38
720.804	12.38
720.83	26.38
720.856	0.38
720.883	-10.62
720.909	7.38
720.935	19.38
720.961	17.38
720.987	5.38
721.013	0.38
721.04	-1.62
721.066	-11.62
721.092	-10.62
721.118	3.38
721.144	-3.62
721.17	4.38
721.196	3.38
721.223	-6.62
721.249	-3.62
721.275	20.38
721.301	1.38
721.327	16.38
721.353	6.38
721.379	-6.62
721.405	5.38
721.432	11.38
721.458	-3.62
721.484	2.38
721.51	-14.62
721.536	4.38
721.562	8.38
721.588	5.38
721.614	-4.62
721.64	1.38
721.666	1.38
721.693	-3.62
721.719	-4.62
721.745	3.38
721.771	-1.62
721.797	3.38
721.823	-0.62
721.849	11.38
721.875	13.38
721.901	14.38
721.927	-10.62
721.953	2.38
721.979	19.38
722.005	23.38
722.031	1.38
722.057	5.38
722.083	-1.62
722.109	10.38
722.135	7.38
722.161	12.38
722.187	-14.62
722.214	-11.62
722.24	-2.62
722.266	-10.62
722.292	13.38
722.318	7.38
722.344	6.38
722.37	13.38
722.396	15.38
722.422	1.38
722.448	11.38
722.474	-15.62
722.5	10.38
722.526	-1.62
722.552	-3.62
722.578	-0.62
722.603	1.38
722.629	-7.62
722.655	0.38
722.681	-1.62
722.707	-12.62
722.733	1.38
722.759	-21.62
722.785	15.38
722.811	10.38
722.837	10.38
722.863	-2.62
722.889	6.38
722.915	-0.62
722.941	-0.62
722.967	-7.62
722.993	1.38
723.019	2.38
723.045	-0.62
723.071	14.38
723.097	0.38
723.122	-2.62
723.148	1.38
723.174	-2.62
723.2	7.38
723.226	-1.62
723.252	10.38
723.278	-5.62
723.304	-4.62
723.33	-9.62
723.356	-20.62
723.381	-9.62
723.407	-10.62
723.433	21.38
723.459	-0.62
723.485	-7.62
723.511	8.38
723.537	-11.62
723.563	6.38
723.588	-9.62
723.614	14.38
723.64	20.38
723.666	-3.62
723.692	9.38
723.718	-0.62
723.744	-9.62
723.769	-2.62
723.795	-12.62
723.821	5.38
723.847	-6.62
723.873	11.38
723.899	-1.62
723.924	-9.62
723.95	8.38
723.976	-0.62
724.002	-2.62
724.028	-2.62
724.053	4.38
724.079	-8.62
724.105	1.38
724.131	4.38
724.157	10.38
724.182	15.38
724.208	-0.62
724.234	1.38
724.26	-6.62
724.286	16.38
724.311	15.38
724.337	-5.62
724.363	8.38
724.389	6.38
724.415	-11.62
724.44	16.38
724.466	17.38
724.492	0.38
724.518	7.38
724.543	0.38
724.569	11.38
724.595	19.38
724.621	-14.62
724.646	1.38
724.672	0.38
724.698	15.38
724.723	8.38
724.749	0.38
724.775	3.38
724.801	6.38
724.826	10.38
724.852	-1.62
724.878	-6.62
724.904	-21.62
724.929	6.38
724.955	-16.62
724.981	-0.62
725.006	-3.62
725.032	-0.62
725.058	17.38
725.083	-7.62
725.109	-1.62
725.135	5.38
725.161	0.38
725.186	-4.62
725.212	-3.62
725.238	7.38
725.263	4.38
725.289	-2.62
725.315	-2.62
725.34	0.38
725.366	7.38
725.392	5.38
725.417	4.38
725.443	7.38
725.468	21.38
725.494	10.38
725.52	11.38
725.545	8.38
725.571	7.38
725.597	-1.62
725.622	1.38
725.648	6.38
725.674	17.38
725.699	18.38
725.725	10.38
725.75	27.38
725.776	-9.62
725.802	-6.62
725.827	14.38
725.853	19.38
725.878	7.38
725.904	4.38
725.93	12.38
725.955	-10.62
725.981	-3.62
726.006	7.38
726.032	-2.62
726.057	-12.62
726.083	-1.62
726.109	7.38
726.134	18.38
726.16	6.38
726.185	-3.62
726.211	-8.62
726.236	27.38
726.262	10.38
726.288	0.38
726.313	16.38
726.339	15.38
726.364	5.38
726.39	19.38
726.415	-15.62
726.441	7.38
726.466	-5.62
726.492	-1.62
726.517	5.38
726.543	-9.62
726.568	-6.62
726.594	4.38
726.619	5.38
726.645	-3.62
726.67	4.38
726.696	9.38
726.721	-3.62
726.747	8.38
726.772	1.38
726.798	-1.62
726.823	-0.62
726.849	20.38
726.874	10.38
726.9	19.38
726.925	4.38
726.951	3.38
726.976	5.38
727.002	5.38
727.027	16.38
727.053	15.38
727.078	-4.62
727.104	10.38
727.129	7.38
727.155	-8.62
727.18	14.38
727.205	7.38
727.231	-5.62
727.256	9.38
727.282	3.38
727.307	11.38
727.333	0.38
727.358	-8.62
727.383	-3.62
727.409	-15.62
727.434	4.38
727.46	3.38
727.485	-6.62
727.511	2.38
727.536	-20.62
727.561	-14.62
727.587	0.38
727.612	0.38
727.637	4.38
727.663	-12.62
727.688	21.38
727.714	-12.62
727.739	-21.62
727.764	10.38
727.79	15.38
727.815	9.38
727.841	8.38
727.866	6.38
727.891	3.38
727.917	10.38
727.942	-2.62
727.967	5.38
727.993	-4.62
728.018	-3.62
728.043	1.38
728.069	1.38
728.094	9.38
728.119	-2.62
728.145	14.38
728.17	0.38
728.195	9.38
728.221	15.38
728.246	10.38
728.271	-4.62
728.297	14.38
728.322	-0.62
728.347	10.38
728.373	5.38
728.398	19.38
728.423	-2.62
728.448	4.38
728.474	8.38
728.499	4.38
728.524	-2.62
728.55	0.38
728.575	-9.62
728.6	8.38
728.625	1.38
728.651	12.38
728.676	6.38
728.701	-0.62
728.727	1.38
728.752	-3.62
728.777	-4.62
728.802	8.38
728.828	5.38
728.853	4.38
728.878	-3.62
728.903	3.38
728.929	-12.62
728.954	-7.62
728.979	2.38
729.004	3.38
729.03	4.38
729.055	4.38
729.08	12.38
729.105	-4.62
729.13	24.38
729.156	16.38
729.181	3.38
729.206	-8.62
729.231	-6.62
729.256	3.38
729.282	-10.62
729.307	-8.62
729.332	-2.62
729.357	0.38
729.382	15.38
729.408	7.38
729.433	15.38
729.458	-9.62
729.483	14.38
729.508	18.38
729.533	4.38
729.559	0.38
729.584	-5.62
729.609	4.38
729.634	10.38
729.659	1.38
729.684	1.38
729.71	19.38
729.735	6.38
729.76	-6.62
729.785	-11.62
729.81	2.38
729.835	3.38
729.86	-1.62
729.886	12.38
729.911	-0.62
729.936	-3.62
729.961	9.38
729.986	-7.62
730.011	15.38
730.036	-11.62
730.061	-3.62
730.086	-0.62
730.112	7.38
730.137	15.38
730.162	0.38
730.187	-12.62
730.212	3.38
730.237	-7.62
730.262	4.38
730.287	2.38
730.312	19.38
730.337	1.38
730.362	0.38
730.387	5.38
730.413	-12.62
730.438	3.38
730.463	8.38
730.488	1.38
730.513	-4.62
730.538	-15.62
730.563	25.38
730.588	2.38
730.613	13.38
730.638	8.38
730.663	3.38
730.688	18.38
730.713	23.38
730.738	4.38
730.763	14.38
730.788	-15.62
730.813	0.38
730.838	2.38
730.863	-9.62
730.888	0.38
730.913	-17.62
730.938	-1.62
730.963	-0.62
730.988	4.38
731.013	21.38
731.038	-3.62
731.063	-9.62
731.088	0.38
731.113	3.38
731.138	-7.62
731.163	-7.62
731.188	7.38
731.213	11.38
731.238	18.38
731.263	1.38
731.288	-2.62
731.313	-14.62
731.338	5.38
731.363	-1.62
731.388	12.38
731.413	-7.62
731.438	9.38
731.463	0.38
731.487	16.38
731.512	0.38
731.537	-2.62
731.562	-5.62
731.587	-5.62
731.612	-2.62
731.637	-0.62
731.662	1.38
731.687	7.38
731.712	-8.62
731.737	11.38
731.762	11.38
731.786	2.38
731.811	10.38
731.836	14.38
731.861	5.38
731.886	6.38
731.911	-2.62
731.936	8.38
731.961	15.38
731.986	5.38
732.01	5.38
732.035	12.38
732.06	17.38
732.085	-8.62
732.11	3.38
732.135	4.38
732.16	3.38
732.184	2.38
732.209	4.38
732.234	13.38
732.259	22.38
732.284	21.38
732.309	-2.62
732.334	1.38
732.358	-6.62
732.383	-8.62
732.408	8.38
732.433	3.38
732.458	7.38
732.482	1.38
732.507	17.38
732.532	4.38
732.557	9.38
732.582	15.38
732.607	-4.62
732.631	-8.62
732.656	3.38
732.681	-5.62
732.706	-4.62
732.73	1.38
732.755	-0.62
732.78	9.38
732.805	6.38
732.83	7.38
732.854	7.38
732.879	21.38
732.904	2.38
732.929	-5.62
732.953	0.38
732.978	11.38
733.003	-12.62
733.028	0.38
733.052	2.38
733.077	10.38
733.102	2.38
733.127	7.38
733.151	-3.62
733.176	16.38
733.201	6.38
733.226	-16.62
733.25	0.38
733.275	-7.62
733.3	7.38
733.324	9.38
733.349	-0.62
733.374	16.38
733.399	3.38
733.423	5.38
733.448	-4.62
733.473	0.38
733.497	4.38
733.522	0.38
733.547	25.38
733.571	26.38
733.596	-0.62
733.621	0.38
733.646	11.38
733.67	8.38
733.695	0.38
733.72	1.38
733.744	10.38
733.769	-0.62
733.794	13.38
733.818	5.38
733.843	4.38
733.867	-20.62
733.892	-4.62
733.917	-0.62
733.941	6.38
733.966	-3.62
733.991	-7.62
734.015	30.38
734.04	10.38
734.065	2.38
734.089	-2.62
734.114	1.38
734.138	-0.62
734.163	-3.62
734.188	7.38
734.212	27.38
734.237	10.38
734.261	0.38
734.286	7.38
734.311	6.38
734.335	-3.62
734.36	11.38
734.384	6.38
734.409	7.38
734.434	1.38
734.458	7.38
734.483	2.38
734.507	-3.62
734.532	8.38
734.556	-0.62
734.581	3.38
734.606	-5.62
734.63	7.38
734.655	3.38
734.679	9.38
734.704	-19.62
734.728	-18.62
734.753	-1.62
734.777	-0.62
734.802	-11.62
734.826	-7.62
734.851	4.38
734.876	17.38
734.9	8.38
734.925	7.38
734.949	8.38
734.974	8.38
734.998	-4.62
735.023	-10.62
735.047	-20.62
735.072	14.38
735.096	18.38
735.121	22.38
735.145	4.38
735.17	8.38
735.194	28.38
735.219	21.38
735.243	19.38
735.268	8.38
735.292	13.38
735.317	0.38
735.341	-3.62
735.365	-22.62
735.39	10.38
735.414	-0.62
735.439	14.38
735.463	2.38
735.488	3.38
735.512	-4.62
735.537	4.38
735.561	10.38
735.586	15.38
735.61	15.38
735.634	-2.62
735.659	12.38
735.683	20.38
735.708	0.38
735.732	-12.62
735.757	0.38
735.781	5.38
735.805	12.38
735.83	-0.62
735.854	0.38
735.879	20.38
735.903	9.38
735.927	9.38
735.952	3.38
735.976	4.38
736.001	4.38
736.025	12.38
736.049	1.38
736.074	-10.62
736.098	6.38
736.123	1.38
736.147	-2.62
736.171	-1.62
736.196	2.38
736.22	0.38
736.244	19.38
736.269	14.38
736.293	5.38
736.317	-1.62
736.342	-2.62
736.366	3.38
736.39	11.38
736.415	4.38
736.439	5.38
736.463	13.38
736.488	14.38
736.512	4.38
736.536	7.38
736.561	11.38
736.585	-8.62
736.609	-1.62
736.634	-12.62
736.658	19.38
736.682	-0.62
736.707	-2.62
736.731	-25.62
736.755	3.38
736.78	30.38
736.804	24.38
736.828	4.38
736.852	-8.62
736.877	-1.62
736.901	11.38
736.925	8.38
736.949	-0.62
736.974	-1.62
736.998	-8.62
737.022	-0.62
737.047	-11.62
737.071	-1.62
737.095	16.38
737.119	24.38
737.144	-0.62
737.168	1.38
737.192	-8.62
737.216	-1.62
737.241	-0.62
737.265	11.38
737.289	0.38
737.313	-0.62
737.337	26.38
737.362	9.38
737.386	-3.62
737.41	-2.62
737.434	17.38
737.459	13.38
737.483	25.38
737.507	11.38
737.531	13.38
737.555	6.38
737.58	13.38
737.604	10.38
737.628	4.38
737.652	-0.62
737.676	-2.62
737.701	5.38
737.725	7.38
737.749	13.38
737.773	-3.62
737.797	-8.62
737.821	6.38
737.846	-0.62
737.87	23.38
737.894	8.38
737.918	3.38
737.942	1.38
737.966	5.38
737.99	2.38
738.015	9.38
738.039	5.38
738.063	-15.62
738.087	23.38
738.111	1.38
738.135	22.38
738.159	11.38
738.184	0.38
738.208	3.38
738.232	12.38
738.256	39.38
738.28	9.38
738.304	15.38
738.328	-6.62
738.352	10.38
738.376	5.38
738.4	14.38
738.425	18.38
738.449	-17.62
738.473	5.38
738.497	3.38
738.521	1.38
738.545	8.38
738.569	0.38
738.593	16.38
738.617	9.38
738.641	-8.62
738.665	15.38
738.689	10.38
738.713	-1.62
738.737	1.38
738.762	17.38
738.786	-0.62
738.81	-12.62
738.834	4.38
738.858	-2.62
738.882	-6.62
738.906	3.38
738.93	3.38
738.954	8.38
738.978	7.38
739.002	2.38
739.026	6.38
739.05	13.38
739.074	-0.62
739.098	37.38
739.122	13.38
739.146	4.38
739.17	16.38
739.194	8.38
739.218	0.38
739.242	6.38
739.266	-1.62
739.29	9.38
739.314	13.38
739.338	4.38
739.362	4.38
739.386	13.38
739.41	1.38
739.434	5.38
739.458	20.38
739.482	3.38
739.506	14.38
739.53	9.38
739.554	12.38
739.577	-0.62
739.601	6.38
739.625	1.38
739.649	-3.62
739.673	8.38
739.697	11.38
739.721	-4.62
739.745	20.38
739.769	17.38
739.793	8.38
739.817	13.38
739.841	7.38
739.865	0.38
739.889	-5.62
739.912	9.38
739.936	8.38
739.96	1.38
739.984	23.38
740.008	6.38
740.032	-8.62
740.056	-2.62
740.08	3.38
740.104	0.38
740.127	17.38
740.151	16.38
740.175	14.38
740.199	1.38
740.223	46.38
740.247	11.38
740.271	1.38
740.295	1.38
740.318	0.38
740.342	8.38
740.366	8.38
740.39	4.38
740.414	3.38
740.438	-0.62
740.461	6.38
740.485	4.38
740.509	-7.62
740.533	16.38
740.557	1.38
740.581	-19.62
740.604	-15.62
740.628	6.38
740.652	10.38
740.676	4.38
740.7	-3.62
740.723	-9.62
740.747	-9.62
740.771	6.38
740.795	-0.62
740.819	11.38
740.842	10.38
740.866	8.38
740.89	3.38
740.914	-0.62
740.938	-2.62
740.961	13.38
740.985	6.38
741.009	9.38
741.033	29.38
741.056	-3.62
741.08	-3.62
741.104	1.38
741.128	9.38
741.151	8.38
741.175	15.38
741.199	0.38
741.223	23.38
741.246	-2.62
741.27	16.38
741.294	5.38
741.318	-3.62
741.341	-6.62
741.365	3.38
741.389	-1.62
741.413	17.38
741.436	19.38
741.46	-0.62
741.484	2.38
741.507	3.38
741.531	21.38
741.555	12.38
741.579	-8.62
741.602	-3.62
741.626	6.38
741.65	4.38
741.673	0.38
741.697	11.38
741.721	18.38
741.744	-4.62
741.768	-1.62
741.792	14.38
741.815	1.38
741.839	22.38
741.863	22.38
741.886	14.38
741.91	16.38
741.934	12.38
741.957	-8.62
741.981	15.38
742.005	6.38
742.028	-6.62
742.052	7.38
742.075	2.38
742.099	-2.62
742.123	-5.62
742.146	2.38
742.17	-4.62
742.194	-8.62
742.217	-5.62
742.241	-7.62
742.264	6.38
742.288	20.38
742.312	-3.62
742.335	-17.62
742.359	-0.62
742.382	7.38
742.406	-1.62
742.43	-3.62
742.453	-11.62
742.477	-11.62
742.5	0.38
742.524	1.38
742.548	2.38
742.571	-8.62
742.595	0.38
742.618	-1.62
742.642	-10.62
742.665	5.38
742.689	-12.62
742.712	4.38
742.736	3.38
742.76	7.38
742.783	4.38
742.807	6.38
742.83	11.38
742.854	-16.62
742.877	-1.62
742.901	3.38
742.924	-6.62
742.948	1.38
742.971	-3.62
742.995	12.38
743.018	-8.62
743.042	1.38
743.065	0.38
743.089	-6.62
743.112	5.38
743.136	3.38
743.159	3.38
743.183	4.38
743.206	3.38
743.23	-1.62
743.253	2.38
743.277	8.38
743.3	9.38
743.324	-10.62
743.347	-6.62
743.371	31.38
743.394	6.38
743.418	6.38
743.441	17.38
743.465	12.38
743.488	17.38
743.512	-11.62
743.535	5.38
743.558	-18.62
743.582	1.38
743.605	3.38
743.629	20.38
743.652	-5.62
743.676	-10.62
743.699	-3.62
743.723	1.38
743.746	4.38
743.769	-3.62
743.793	3.38
743.816	0.38
743.84	13.38
743.863	-7.62
743.886	6.38
743.91	4.38
743.933	15.38
743.957	14.38
743.98	-1.62
744.003	-4.62
744.027	0.38
744.05	0.38
744.074	-3.62
744.097	-16.62
744.12	11.38
744.144	0.38
744.167	11.38
744.19	-2.62
744.214	5.38
744.237	-3.62
744.26	15.38
744.284	-3.62
744.307	-2.62
744.331	15.38
744.354	8.38
744.377	-11.62
744.401	-10.62
744.424	0.38
744.447	-22.62
744.471	-0.62
