Data from HighRes_H2D2_15_04_11_07_2024_HR4C61891__70__15-05-41-443.txt Node

Date: Thu Nov 07 15:05:41 EST 2024
User: crc00042
Spectrometer: HR4C6189
Trigger mode: 4
Integration Time (sec): 1.000000E-1
Scans to average: 1
Electric dark correction enabled: true
Nonlinearity correction enabled: false
Boxcar width: 0
XAxis mode: Wavelengths
Number of Pixels in Spectrum: 3648
>>>>>Begin Spectral Data<<<<<
639.567	-27.62
639.602	-27.62
639.636	-27.62
639.67	-30.62
639.704	-15.62
639.738	5.38
639.773	0.38
639.807	-15.62
639.841	-5.62
639.875	7.38
639.909	-0.62
639.943	-0.62
639.978	-1.62
640.012	12.38
640.046	13.38
640.08	-0.62
640.114	5.38
640.148	-19.62
640.182	12.38
640.217	-4.62
640.251	-5.62
640.285	2.38
640.319	-0.62
640.353	1.38
640.387	10.38
640.421	2.38
640.455	-3.62
640.49	2.38
640.524	10.38
640.558	-3.62
640.592	2.38
640.626	2.38
640.66	12.38
640.694	-2.62
640.728	5.38
640.762	2.38
640.796	8.38
640.83	15.38
640.865	2.38
640.899	9.38
640.933	-9.62
640.967	-14.62
641.001	7.38
641.035	-6.62
641.069	11.38
641.103	-15.62
641.137	-21.62
641.171	-21.62
641.205	9.38
641.239	-2.62
641.273	30.38
641.307	-0.62
641.341	-2.62
641.375	-2.62
641.409	-4.62
641.443	-5.62
641.477	10.38
641.511	-2.62
641.545	0.38
641.579	11.38
641.614	6.38
641.648	2.38
641.682	-8.62
641.716	12.38
641.75	17.38
641.784	7.38
641.818	8.38
641.852	7.38
641.886	4.38
641.919	22.38
641.953	-1.62
641.987	-8.62
642.021	0.38
642.055	11.38
642.089	-1.62
642.123	1.38
642.157	0.38
642.191	9.38
642.225	19.38
642.259	10.38
642.293	6.38
642.327	-15.62
642.361	8.38
642.395	10.38
642.429	29.38
642.463	9.38
642.497	29.38
642.531	19.38
642.565	-13.62
642.599	2.38
642.633	-7.62
642.666	27.38
642.7	3.38
642.734	2.38
642.768	-0.62
642.802	6.38
642.836	4.38
642.87	-0.62
642.904	-6.62
642.938	1.38
642.972	-4.62
643.005	-2.62
643.039	1.38
643.073	11.38
643.107	4.38
643.141	-12.62
643.175	6.38
643.209	-12.62
643.243	-4.62
643.276	-1.62
643.31	8.38
643.344	-0.62
643.378	-9.62
643.412	11.38
643.446	-21.62
643.48	-9.62
643.513	10.38
643.547	-1.62
643.581	5.38
643.615	11.38
643.649	14.38
643.683	5.38
643.716	6.38
643.75	17.38
643.784	-2.62
643.818	12.38
643.852	2.38
643.886	10.38
643.919	1.38
643.953	-2.62
643.987	-6.62
644.021	-3.62
644.055	9.38
644.088	-4.62
644.122	-1.62
644.156	3.38
644.19	-5.62
644.224	4.38
644.257	-1.62
644.291	-4.62
644.325	1.38
644.359	3.38
644.392	14.38
644.426	9.38
644.46	13.38
644.494	-3.62
644.527	-17.62
644.561	10.38
644.595	14.38
644.629	-9.62
644.662	-2.62
644.696	15.38
644.73	-8.62
644.764	6.38
644.797	4.38
644.831	-5.62
644.865	14.38
644.899	6.38
644.932	29.38
644.966	-0.62
645	17.38
645.033	20.38
645.067	-23.62
645.101	7.38
645.135	-9.62
645.168	0.38
645.202	-5.62
645.236	-12.62
645.269	5.38
645.303	-5.62
645.337	-10.62
645.37	1.38
645.404	4.38
645.438	5.38
645.471	-11.62
645.505	8.38
645.539	2.38
645.572	7.38
645.606	-7.62
645.64	6.38
645.673	-5.62
645.707	11.38
645.741	7.38
645.774	3.38
645.808	6.38
645.842	-1.62
645.875	10.38
645.909	-9.62
645.943	-0.62
645.976	0.38
646.01	0.38
646.043	12.38
646.077	16.38
646.111	8.38
646.144	1.38
646.178	4.38
646.212	-16.62
646.245	9.38
646.279	-1.62
646.312	7.38
646.346	37.38
646.38	10.38
646.413	18.38
646.447	17.38
646.48	10.38
646.514	14.38
646.547	14.38
646.581	6.38
646.615	-0.62
646.648	5.38
646.682	-1.62
646.715	-11.62
646.749	13.38
646.782	6.38
646.816	1.38
646.85	10.38
646.883	-6.62
646.917	3.38
646.95	-4.62
646.984	-6.62
647.017	-2.62
647.051	9.38
647.084	-14.62
647.118	10.38
647.151	10.38
647.185	2.38
647.218	-15.62
647.252	-1.62
647.285	-5.62
647.319	6.38
647.353	4.38
647.386	11.38
647.42	-7.62
647.453	-8.62
647.487	2.38
647.52	8.38
647.553	15.38
647.587	2.38
647.62	-3.62
647.654	-5.62
647.687	-4.62
647.721	12.38
647.754	6.38
647.788	-2.62
647.821	-4.62
647.855	-2.62
647.888	8.38
647.922	14.38
647.955	11.38
647.989	3.38
648.022	14.38
648.055	14.38
648.089	-8.62
648.122	23.38
648.156	17.38
648.189	3.38
648.223	6.38
648.256	6.38
648.29	13.38
648.323	2.38
648.356	11.38
648.39	6.38
648.423	2.38
648.457	13.38
648.49	12.38
648.523	11.38
648.557	25.38
648.59	-3.62
648.624	8.38
648.657	10.38
648.69	23.38
648.724	-5.62
648.757	7.38
648.791	-3.62
648.824	6.38
648.857	15.38
648.891	11.38
648.924	16.38
648.957	20.38
648.991	4.38
649.024	25.38
649.057	9.38
649.091	-8.62
649.124	10.38
649.158	10.38
649.191	22.38
649.224	5.38
649.258	15.38
649.291	8.38
649.324	10.38
649.358	-15.62
649.391	18.38
649.424	18.38
649.458	4.38
649.491	-5.62
649.524	-6.62
649.557	-6.62
649.591	-13.62
649.624	8.38
649.657	12.38
649.691	17.38
649.724	1.38
649.757	9.38
649.791	-22.62
649.824	10.38
649.857	8.38
649.89	10.38
649.924	3.38
649.957	0.38
649.99	-16.62
650.023	6.38
650.057	2.38
650.09	19.38
650.123	-3.62
650.157	8.38
650.19	6.38
650.223	-7.62
650.256	-9.62
650.29	6.38
650.323	6.38
650.356	17.38
650.389	4.38
650.423	-4.62
650.456	16.38
650.489	6.38
650.522	14.38
650.555	15.38
650.589	19.38
650.622	5.38
650.655	11.38
650.688	-1.62
650.721	3.38
650.755	11.38
650.788	7.38
650.821	3.38
650.854	6.38
650.887	21.38
650.921	6.38
650.954	-13.62
650.987	8.38
651.02	-3.62
651.053	-8.62
651.087	-0.62
651.12	23.38
651.153	18.38
651.186	2.38
651.219	-4.62
651.252	9.38
651.286	19.38
651.319	5.38
651.352	3.38
651.385	3.38
651.418	1.38
651.451	16.38
651.484	10.38
651.518	14.38
651.551	18.38
651.584	10.38
651.617	14.38
651.65	12.38
651.683	1.38
651.716	9.38
651.749	-5.62
651.783	-16.62
651.816	-2.62
651.849	-7.62
651.882	-11.62
651.915	-5.62
651.948	14.38
651.981	-16.62
652.014	-4.62
652.047	-5.62
652.08	-20.62
652.114	9.38
652.147	-1.62
652.18	-3.62
652.213	47.38
652.246	2.38
652.279	1.38
652.312	15.38
652.345	2.38
652.378	7.38
652.411	21.38
652.444	14.38
652.477	19.38
652.51	17.38
652.543	8.38
652.576	22.38
652.609	-1.62
652.642	1.38
652.675	16.38
652.709	9.38
652.742	19.38
652.775	3.38
652.808	10.38
652.841	8.38
652.874	0.38
652.907	-0.62
652.94	-1.62
652.973	-17.62
653.006	0.38
653.039	6.38
653.072	-16.62
653.105	-10.62
653.138	-0.62
653.171	0.38
653.204	0.38
653.237	10.38
653.27	-4.62
653.303	3.38
653.336	10.38
653.368	16.38
653.401	16.38
653.434	6.38
653.467	15.38
653.5	0.38
653.533	-12.62
653.566	9.38
653.599	8.38
653.632	10.38
653.665	-5.62
653.698	-2.62
653.731	1.38
653.764	6.38
653.797	-0.62
653.83	19.38
653.863	17.38
653.896	-4.62
653.929	-3.62
653.961	10.38
653.994	7.38
654.027	0.38
654.06	6.38
654.093	7.38
654.126	9.38
654.159	-9.62
654.192	20.38
654.225	8.38
654.258	-4.62
654.29	16.38
654.323	18.38
654.356	1.38
654.389	8.38
654.422	-8.62
654.455	19.38
654.488	3.38
654.521	-11.62
654.553	-8.62
654.586	6.38
654.619	17.38
654.652	-1.62
654.685	21.38
654.718	6.38
654.751	9.38
654.783	15.38
654.816	13.38
654.849	4.38
654.882	15.38
654.915	-3.62
654.948	-8.62
654.98	-2.62
655.013	1.38
655.046	-0.62
655.079	4.38
655.112	12.38
655.144	14.38
655.177	5.38
655.21	16.38
655.243	16.38
655.276	8.38
655.308	-8.62
655.341	-10.62
655.374	10.38
655.407	-12.62
655.44	3.38
655.472	26.38
655.505	-12.62
655.538	-4.62
655.571	8.38
655.603	20.38
655.636	-1.62
655.669	11.38
655.702	23.38
655.734	8.38
655.767	10.38
655.8	17.38
655.833	21.38
655.865	14.38
655.898	18.38
655.931	15.38
655.964	20.38
655.996	21.38
656.029	24.38
656.062	14.38
656.095	62.38
656.127	82.38
656.16	209.38
656.193	637.38
656.225	970.38
656.258	553.38
656.291	230.38
656.324	178.38
656.356	329.38
656.389	779.38
656.422	671.38
656.454	232.38
656.487	83.38
656.52	35.38
656.552	13.38
656.585	16.38
656.618	7.38
656.65	4.38
656.683	-5.62
656.716	8.38
656.748	-9.62
656.781	-5.62
656.814	-11.62
656.846	-1.62
656.879	-0.62
656.912	7.38
656.944	-23.62
656.977	2.38
657.01	-5.62
657.042	11.38
657.075	22.38
657.108	8.38
657.14	9.38
657.173	10.38
657.205	19.38
657.238	3.38
657.271	12.38
657.303	1.38
657.336	10.38
657.369	6.38
657.401	3.38
657.434	4.38
657.466	5.38
657.499	-8.62
657.532	-4.62
657.564	20.38
657.597	2.38
657.629	14.38
657.662	24.38
657.694	-0.62
657.727	-7.62
657.76	18.38
657.792	-16.62
657.825	0.38
657.857	-3.62
657.89	3.38
657.922	11.38
657.955	-8.62
657.987	11.38
658.02	21.38
658.053	12.38
658.085	4.38
658.118	13.38
658.15	12.38
658.183	2.38
658.215	4.38
658.248	4.38
658.28	20.38
658.313	18.38
658.345	-6.62
658.378	4.38
658.41	16.38
658.443	0.38
658.475	-0.62
658.508	-9.62
658.54	0.38
658.573	-16.62
658.605	-0.62
658.638	-4.62
658.67	9.38
658.703	11.38
658.735	1.38
658.768	6.38
658.8	-7.62
658.833	17.38
658.865	7.38
658.898	7.38
658.93	-13.62
658.963	-1.62
658.995	-10.62
659.028	-1.62
659.06	3.38
659.092	1.38
659.125	1.38
659.157	4.38
659.19	-7.62
659.222	-7.62
659.255	-6.62
659.287	3.38
659.32	9.38
659.352	-6.62
659.384	13.38
659.417	-9.62
659.449	-10.62
659.482	-0.62
659.514	-14.62
659.546	-3.62
659.579	-22.62
659.611	-9.62
659.644	-9.62
659.676	-10.62
659.708	-24.62
659.741	-0.62
659.773	0.38
659.806	6.38
659.838	-1.62
659.87	2.38
659.903	-14.62
659.935	12.38
659.967	10.38
660	7.38
660.032	-10.62
660.065	15.38
660.097	-5.62
660.129	0.38
660.162	-3.62
660.194	6.38
660.226	14.38
660.259	-1.62
660.291	-1.62
660.323	-21.62
660.356	19.38
660.388	-13.62
660.42	-13.62
660.453	-4.62
660.485	4.38
660.517	31.38
660.55	16.38
660.582	-4.62
660.614	1.38
660.647	0.38
660.679	-16.62
660.711	2.38
660.743	-7.62
660.776	-18.62
660.808	-11.62
660.84	-15.62
660.873	7.38
660.905	-4.62
660.937	4.38
660.969	5.38
661.002	1.38
661.034	10.38
661.066	10.38
661.099	7.38
661.131	4.38
661.163	0.38
661.195	10.38
661.228	1.38
661.26	3.38
661.292	-5.62
661.324	12.38
661.357	11.38
661.389	6.38
661.421	16.38
661.453	-2.62
661.485	8.38
661.518	14.38
661.55	-6.62
661.582	-18.62
661.614	-12.62
661.647	8.38
661.679	10.38
661.711	9.38
661.743	-4.62
661.775	-4.62
661.808	13.38
661.84	-12.62
661.872	2.38
661.904	-9.62
661.936	6.38
661.969	2.38
662.001	-21.62
662.033	-14.62
662.065	-6.62
662.097	6.38
662.129	10.38
662.162	2.38
662.194	4.38
662.226	3.38
662.258	2.38
662.29	-8.62
662.322	-11.62
662.355	-17.62
662.387	25.38
662.419	2.38
662.451	4.38
662.483	14.38
662.515	-9.62
662.547	-2.62
662.58	-15.62
662.612	10.38
662.644	10.38
662.676	8.38
662.708	6.38
662.74	3.38
662.772	6.38
662.804	5.38
662.836	13.38
662.869	16.38
662.901	4.38
662.933	-12.62
662.965	12.38
662.997	24.38
663.029	4.38
663.061	-15.62
663.093	-18.62
663.125	11.38
663.157	4.38
663.189	2.38
663.221	9.38
663.254	11.38
663.286	11.38
663.318	-15.62
663.35	-14.62
663.382	12.38
663.414	10.38
663.446	1.38
663.478	-0.62
663.51	19.38
663.542	-3.62
663.574	8.38
663.606	-11.62
663.638	6.38
663.67	-0.62
663.702	-8.62
663.734	-7.62
663.766	11.38
663.798	15.38
663.83	5.38
663.862	21.38
663.894	6.38
663.926	-9.62
663.958	10.38
663.99	-4.62
664.022	4.38
664.054	12.38
664.086	-13.62
664.118	-10.62
664.15	-9.62
664.182	-4.62
664.214	0.38
664.246	24.38
664.278	9.38
664.31	0.38
664.342	-2.62
664.374	-0.62
664.406	16.38
664.438	-1.62
664.47	14.38
664.502	-1.62
664.534	-1.62
664.566	-19.62
664.598	8.38
664.63	2.38
664.662	8.38
664.693	-5.62
664.725	-5.62
664.757	3.38
664.789	5.38
664.821	13.38
664.853	12.38
664.885	7.38
664.917	14.38
664.949	9.38
664.981	17.38
665.013	-2.62
665.045	-11.62
665.076	12.38
665.108	12.38
665.14	-0.62
665.172	20.38
665.204	4.38
665.236	-3.62
665.268	15.38
665.3	-5.62
665.331	0.38
665.363	3.38
665.395	-16.62
665.427	-1.62
665.459	12.38
665.491	-6.62
665.523	8.38
665.555	8.38
665.586	14.38
665.618	10.38
665.65	-0.62
665.682	3.38
665.714	-5.62
665.746	0.38
665.777	15.38
665.809	-1.62
665.841	2.38
665.873	-0.62
665.905	10.38
665.937	7.38
665.968	6.38
666	7.38
666.032	6.38
666.064	-4.62
666.096	-2.62
666.127	17.38
666.159	13.38
666.191	9.38
666.223	19.38
666.255	13.38
666.286	5.38
666.318	7.38
666.35	19.38
666.382	-2.62
666.413	-5.62
666.445	-8.62
666.477	-14.62
666.509	-10.62
666.54	-5.62
666.572	2.38
666.604	0.38
666.636	-10.62
666.667	5.38
666.699	8.38
666.731	9.38
666.763	-2.62
666.794	6.38
666.826	9.38
666.858	-12.62
666.89	16.38
666.921	10.38
666.953	-2.62
666.985	10.38
667.017	18.38
667.048	-2.62
667.08	-8.62
667.112	-2.62
667.143	-6.62
667.175	12.38
667.207	11.38
667.238	8.38
667.27	8.38
667.302	8.38
667.334	-6.62
667.365	2.38
667.397	2.38
667.429	0.38
667.46	10.38
667.492	23.38
667.524	2.38
667.555	-7.62
667.587	-0.62
667.619	8.38
667.65	-1.62
667.682	24.38
667.714	24.38
667.745	11.38
667.777	8.38
667.808	4.38
667.84	6.38
667.872	6.38
667.903	30.38
667.935	1.38
667.967	1.38
667.998	13.38
668.03	12.38
668.061	9.38
668.093	3.38
668.125	2.38
668.156	0.38
668.188	12.38
668.22	-5.62
668.251	11.38
668.283	27.38
668.314	15.38
668.346	-9.62
668.377	5.38
668.409	-6.62
668.441	22.38
668.472	17.38
668.504	13.38
668.535	-1.62
668.567	-6.62
668.599	-10.62
668.63	-0.62
668.662	0.38
668.693	5.38
668.725	-9.62
668.756	13.38
668.788	4.38
668.819	1.38
668.851	-1.62
668.882	4.38
668.914	9.38
668.946	2.38
668.977	-10.62
669.009	4.38
669.04	-20.62
669.072	-6.62
669.103	6.38
669.135	-0.62
669.166	-9.62
669.198	17.38
669.229	17.38
669.261	4.38
669.292	-0.62
669.324	13.38
669.355	24.38
669.387	2.38
669.418	1.38
669.45	-0.62
669.481	10.38
669.513	7.38
669.544	17.38
669.576	11.38
669.607	13.38
669.639	32.38
669.67	-0.62
669.701	1.38
669.733	-14.62
669.764	-6.62
669.796	-3.62
669.827	-6.62
669.859	-10.62
669.89	7.38
669.922	4.38
669.953	8.38
669.985	9.38
670.016	17.38
670.047	6.38
670.079	6.38
670.11	5.38
670.142	7.38
670.173	-5.62
670.204	-1.62
670.236	6.38
670.267	0.38
670.299	3.38
670.33	11.38
670.362	22.38
670.393	-6.62
670.424	23.38
670.456	-7.62
670.487	3.38
670.518	3.38
670.55	4.38
670.581	12.38
670.613	13.38
670.644	-11.62
670.675	-2.62
670.707	14.38
670.738	3.38
670.769	-9.62
670.801	-9.62
670.832	17.38
670.864	-3.62
670.895	2.38
670.926	-0.62
670.958	10.38
670.989	-4.62
671.02	6.38
671.052	-2.62
671.083	11.38
671.114	6.38
671.146	24.38
671.177	-2.62
671.208	4.38
671.24	8.38
671.271	1.38
671.302	21.38
671.333	11.38
671.365	-5.62
671.396	-11.62
671.427	7.38
671.459	17.38
671.49	0.38
671.521	5.38
671.553	3.38
671.584	12.38
671.615	-1.62
671.646	0.38
671.678	-3.62
671.709	-2.62
671.74	-23.62
671.771	2.38
671.803	-2.62
671.834	-1.62
671.865	2.38
671.896	10.38
671.928	6.38
671.959	-8.62
671.99	7.38
672.021	-5.62
672.053	-4.62
672.084	12.38
672.115	8.38
672.146	3.38
672.178	-23.62
672.209	-0.62
672.24	16.38
672.271	33.38
672.303	2.38
672.334	2.38
672.365	5.38
672.396	5.38
672.427	5.38
672.459	10.38
672.49	32.38
672.521	6.38
672.552	17.38
672.583	18.38
672.615	13.38
672.646	13.38
672.677	6.38
672.708	-2.62
672.739	-4.62
672.77	7.38
672.802	11.38
672.833	-8.62
672.864	-1.62
672.895	8.38
672.926	4.38
672.957	-13.62
672.989	7.38
673.02	10.38
673.051	-3.62
673.082	12.38
673.113	1.38
673.144	-0.62
673.175	2.38
673.206	-1.62
673.238	8.38
673.269	6.38
673.3	-0.62
673.331	-6.62
673.362	7.38
673.393	7.38
673.424	-0.62
673.455	8.38
673.487	23.38
673.518	22.38
673.549	22.38
673.58	27.38
673.611	8.38
673.642	0.38
673.673	-23.62
673.704	8.38
673.735	8.38
673.766	4.38
673.797	-5.62
673.828	3.38
673.86	9.38
673.891	3.38
673.922	-1.62
673.953	4.38
673.984	9.38
674.015	10.38
674.046	-5.62
674.077	1.38
674.108	6.38
674.139	7.38
674.17	-7.62
674.201	-14.62
674.232	-5.62
674.263	-6.62
674.294	10.38
674.325	0.38
674.356	8.38
674.387	9.38
674.418	-1.62
674.449	0.38
674.48	2.38
674.511	9.38
674.542	18.38
674.573	6.38
674.604	22.38
674.635	1.38
674.666	3.38
674.697	4.38
674.728	-2.62
674.759	2.38
674.79	-10.62
674.821	8.38
674.852	14.38
674.883	8.38
674.914	6.38
674.945	-0.62
674.976	-6.62
675.007	4.38
675.038	-9.62
675.069	0.38
675.1	-11.62
675.131	15.38
675.162	9.38
675.193	-0.62
675.224	4.38
675.254	0.38
675.285	5.38
675.316	14.38
675.347	18.38
675.378	-4.62
675.409	7.38
675.44	8.38
675.471	14.38
675.502	-8.62
675.533	9.38
675.564	20.38
675.595	11.38
675.625	20.38
675.656	15.38
675.687	6.38
675.718	-12.62
675.749	7.38
675.78	24.38
675.811	23.38
675.842	11.38
675.873	-0.62
675.903	-17.62
675.934	-6.62
675.965	-1.62
675.996	4.38
676.027	1.38
676.058	0.38
676.089	2.38
676.119	-5.62
676.15	-3.62
676.181	0.38
676.212	-10.62
676.243	11.38
676.274	7.38
676.304	3.38
676.335	2.38
676.366	2.38
676.397	-4.62
676.428	-3.62
676.459	-0.62
676.489	11.38
676.52	10.38
676.551	8.38
676.582	-0.62
676.613	6.38
676.643	4.38
676.674	16.38
676.705	8.38
676.736	3.38
676.767	17.38
676.797	11.38
676.828	13.38
676.859	8.38
676.89	5.38
676.92	12.38
676.951	-6.62
676.982	14.38
677.013	-0.62
677.044	16.38
677.074	-6.62
677.105	-4.62
677.136	11.38
677.167	3.38
677.197	15.38
677.228	0.38
677.259	-1.62
677.289	-0.62
677.32	-0.62
677.351	-15.62
677.382	0.38
677.412	-11.62
677.443	10.38
677.474	5.38
677.505	3.38
677.535	-10.62
677.566	-3.62
677.597	-10.62
677.627	2.38
677.658	3.38
677.689	9.38
677.72	0.38
677.75	-10.62
677.781	0.38
677.812	8.38
677.842	7.38
677.873	6.38
677.904	-13.62
677.934	-5.62
677.965	2.38
677.996	-1.62
678.026	-4.62
678.057	1.38
678.088	0.38
678.118	-7.62
678.149	2.38
678.18	7.38
678.21	10.38
678.241	16.38
678.272	-6.62
678.302	-8.62
678.333	-7.62
678.363	1.38
678.394	3.38
678.425	-10.62
678.455	0.38
678.486	12.38
678.517	1.38
678.547	0.38
678.578	1.38
678.608	6.38
678.639	2.38
678.67	3.38
678.7	1.38
678.731	3.38
678.761	12.38
678.792	-13.62
678.823	3.38
678.853	1.38
678.884	-1.62
678.914	10.38
678.945	4.38
678.975	4.38
679.006	-4.62
679.037	-15.62
679.067	19.38
679.098	4.38
679.128	-7.62
679.159	13.38
679.189	12.38
679.22	-13.62
679.25	-7.62
679.281	-15.62
679.312	9.38
679.342	3.38
679.373	16.38
679.403	6.38
679.434	13.38
679.464	3.38
679.495	15.38
679.525	1.38
679.556	11.38
679.586	12.38
679.617	14.38
679.647	-7.62
679.678	-11.62
679.708	-2.62
679.739	11.38
679.769	-4.62
679.8	3.38
679.83	-1.62
679.861	6.38
679.891	2.38
679.922	5.38
679.952	7.38
679.983	12.38
680.013	13.38
680.044	6.38
680.074	12.38
680.105	12.38
680.135	0.38
680.165	15.38
680.196	5.38
680.226	-4.62
680.257	16.38
680.287	7.38
680.318	3.38
680.348	-6.62
680.379	10.38
680.409	2.38
680.439	-0.62
680.47	13.38
680.5	8.38
680.531	13.38
680.561	11.38
680.592	2.38
680.622	14.38
680.652	0.38
680.683	6.38
680.713	2.38
680.744	-5.62
680.774	-13.62
680.804	9.38
680.835	3.38
680.865	8.38
680.896	8.38
680.926	16.38
680.956	17.38
680.987	1.38
681.017	6.38
681.047	5.38
681.078	-10.62
681.108	3.38
681.139	-10.62
681.169	21.38
681.199	1.38
681.23	7.38
681.26	-2.62
681.29	2.38
681.321	-10.62
681.351	2.38
681.381	3.38
681.412	-0.62
681.442	-8.62
681.472	19.38
681.503	11.38
681.533	11.38
681.563	1.38
681.594	-12.62
681.624	3.38
681.654	-6.62
681.685	18.38
681.715	17.38
681.745	10.38
681.775	5.38
681.806	-2.62
681.836	-4.62
681.866	-15.62
681.897	1.38
681.927	-4.62
681.957	-8.62
681.987	-14.62
682.018	8.38
682.048	9.38
682.078	9.38
682.109	15.38
682.139	6.38
682.169	2.38
682.199	-17.62
682.23	0.38
682.26	5.38
682.29	-6.62
682.32	11.38
682.351	8.38
682.381	-4.62
682.411	-4.62
682.441	-20.62
682.472	-8.62
682.502	-0.62
682.532	-5.62
682.562	4.38
682.592	17.38
682.623	14.38
682.653	-1.62
682.683	-8.62
682.713	15.38
682.743	16.38
682.774	8.38
682.804	6.38
682.834	13.38
682.864	-1.62
682.894	1.38
682.925	5.38
682.955	2.38
682.985	6.38
683.015	10.38
683.045	26.38
683.076	-4.62
683.106	11.38
683.136	-0.62
683.166	-14.62
683.196	1.38
683.226	-1.62
683.257	-2.62
683.287	-1.62
683.317	0.38
683.347	-20.62
683.377	0.38
683.407	-13.62
683.437	10.38
683.468	13.38
683.498	-4.62
683.528	0.38
683.558	20.38
683.588	1.38
683.618	-0.62
683.648	0.38
683.678	7.38
683.708	20.38
683.739	2.38
683.769	-0.62
683.799	18.38
683.829	8.38
683.859	5.38
683.889	8.38
683.919	-1.62
683.949	2.38
683.979	10.38
684.009	-3.62
684.039	0.38
684.07	-6.62
684.1	9.38
684.13	4.38
684.16	12.38
684.19	-2.62
684.22	-1.62
684.25	4.38
684.28	-8.62
684.31	6.38
684.34	13.38
684.37	6.38
684.4	-3.62
684.43	-1.62
684.46	5.38
684.49	3.38
684.52	10.38
684.55	17.38
684.58	-3.62
684.61	12.38
684.64	12.38
684.67	11.38
684.7	-1.62
684.73	13.38
684.76	-4.62
684.79	19.38
684.82	-3.62
684.85	-11.62
684.88	4.38
684.91	15.38
684.94	2.38
684.97	-3.62
685	1.38
685.03	-5.62
685.06	2.38
685.09	5.38
685.12	20.38
685.15	5.38
685.18	-3.62
685.21	8.38
685.24	6.38
685.27	25.38
685.3	6.38
685.33	7.38
685.36	-6.62
685.39	21.38
685.42	-7.62
685.45	-1.62
685.48	6.38
685.51	9.38
685.54	0.38
685.569	10.38
685.599	7.38
685.629	3.38
685.659	9.38
685.689	11.38
685.719	7.38
685.749	0.38
685.779	14.38
685.809	9.38
685.839	16.38
685.869	8.38
685.898	8.38
685.928	7.38
685.958	-2.62
685.988	8.38
686.018	-1.62
686.048	5.38
686.078	8.38
686.108	14.38
686.137	10.38
686.167	13.38
686.197	2.38
686.227	8.38
686.257	18.38
686.287	18.38
686.317	8.38
686.346	-1.62
686.376	-0.62
686.406	-5.62
686.436	14.38
686.466	-2.62
686.496	4.38
686.525	0.38
686.555	8.38
686.585	32.38
686.615	27.38
686.645	16.38
686.675	10.38
686.704	18.38
686.734	10.38
686.764	-18.62
686.794	11.38
686.824	3.38
686.853	10.38
686.883	11.38
686.913	11.38
686.943	0.38
686.973	8.38
687.002	13.38
687.032	22.38
687.062	6.38
687.092	15.38
687.121	20.38
687.151	14.38
687.181	-2.62
687.211	23.38
687.24	4.38
687.27	6.38
687.3	-3.62
687.33	15.38
687.359	-19.62
687.389	-5.62
687.419	6.38
687.449	9.38
687.478	5.38
687.508	8.38
687.538	15.38
687.568	8.38
687.597	-0.62
687.627	9.38
687.657	15.38
687.686	13.38
687.716	23.38
687.746	-1.62
687.776	-22.62
687.805	7.38
687.835	1.38
687.865	10.38
687.894	5.38
687.924	-8.62
687.954	5.38
687.983	4.38
688.013	-6.62
688.043	-6.62
688.072	-2.62
688.102	9.38
688.132	11.38
688.161	-4.62
688.191	-0.62
688.221	16.38
688.25	-1.62
688.28	-0.62
688.31	-11.62
688.339	5.38
688.369	-5.62
688.399	1.38
688.428	-14.62
688.458	7.38
688.488	3.38
688.517	4.38
688.547	2.38
688.576	30.38
688.606	9.38
688.636	-5.62
688.665	1.38
688.695	7.38
688.725	26.38
688.754	10.38
688.784	-3.62
688.813	10.38
688.843	8.38
688.873	3.38
688.902	0.38
688.932	-0.62
688.961	-7.62
688.991	14.38
689.02	8.38
689.05	-16.62
689.08	14.38
689.109	7.38
689.139	-4.62
689.168	10.38
689.198	8.38
689.227	-0.62
689.257	-4.62
689.287	-1.62
689.316	-3.62
689.346	-10.62
689.375	-8.62
689.405	18.38
689.434	-1.62
689.464	15.38
689.493	4.38
689.523	8.38
689.552	-12.62
689.582	-6.62
689.611	-6.62
689.641	5.38
689.67	4.38
689.7	4.38
689.73	18.38
689.759	15.38
689.789	29.38
689.818	18.38
689.848	11.38
689.877	32.38
689.906	2.38
689.936	-1.62
689.965	6.38
689.995	13.38
690.024	1.38
690.054	8.38
690.083	-1.62
690.113	9.38
690.142	1.38
690.172	13.38
690.201	12.38
690.231	-5.62
690.26	18.38
690.29	0.38
690.319	11.38
690.348	3.38
690.378	1.38
690.407	21.38
690.437	0.38
690.466	0.38
690.496	-16.62
690.525	1.38
690.555	-15.62
690.584	3.38
690.613	3.38
690.643	2.38
690.672	7.38
690.702	13.38
690.731	-3.62
690.76	2.38
690.79	-2.62
690.819	-3.62
690.849	2.38
690.878	-5.62
690.907	-2.62
690.937	13.38
690.966	12.38
690.996	5.38
691.025	3.38
691.054	-4.62
691.084	10.38
691.113	3.38
691.142	14.38
691.172	7.38
691.201	4.38
691.23	7.38
691.26	37.38
691.289	14.38
691.319	6.38
691.348	1.38
691.377	20.38
691.407	13.38
691.436	9.38
691.465	0.38
691.495	-5.62
691.524	-10.62
691.553	-4.62
691.583	-20.62
691.612	16.38
691.641	12.38
691.67	3.38
691.7	-15.62
691.729	-16.62
691.758	5.38
691.788	12.38
691.817	-2.62
691.846	-7.62
691.876	-5.62
691.905	2.38
691.934	-4.62
691.963	29.38
691.993	4.38
692.022	-4.62
692.051	4.38
692.081	12.38
692.11	20.38
692.139	6.38
692.168	7.38
692.198	16.38
692.227	13.38
692.256	7.38
692.285	-0.62
692.315	-4.62
692.344	-2.62
692.373	0.38
692.402	-16.62
692.432	-2.62
692.461	10.38
692.49	9.38
692.519	4.38
692.548	14.38
692.578	6.38
692.607	-6.62
692.636	-0.62
692.665	23.38
692.694	8.38
692.724	13.38
692.753	14.38
692.782	17.38
692.811	14.38
692.84	-2.62
692.87	-5.62
692.899	-5.62
692.928	19.38
692.957	12.38
692.986	16.38
693.016	9.38
693.045	-3.62
693.074	-0.62
693.103	-7.62
693.132	1.38
693.161	5.38
693.191	-9.62
693.22	2.38
693.249	4.38
693.278	1.38
693.307	17.38
693.336	-4.62
693.365	-9.62
693.395	-5.62
693.424	3.38
693.453	9.38
693.482	1.38
693.511	-6.62
693.54	20.38
693.569	28.38
693.598	7.38
693.628	8.38
693.657	11.38
693.686	16.38
693.715	12.38
693.744	6.38
693.773	10.38
693.802	8.38
693.831	1.38
693.86	27.38
693.889	-1.62
693.919	25.38
693.948	5.38
693.977	8.38
694.006	1.38
694.035	5.38
694.064	10.38
694.093	29.38
694.122	19.38
694.151	6.38
694.18	5.38
694.209	17.38
694.238	16.38
694.267	25.38
694.296	23.38
694.325	14.38
694.354	15.38
694.383	17.38
694.412	7.38
694.441	0.38
694.471	-10.62
694.5	-2.62
694.529	6.38
694.558	14.38
694.587	-3.62
694.616	2.38
694.645	11.38
694.674	12.38
694.703	11.38
694.732	6.38
694.761	17.38
694.79	17.38
694.819	-12.62
694.848	7.38
694.877	10.38
694.906	18.38
694.935	7.38
694.963	16.38
694.992	-9.62
695.021	-4.62
695.05	16.38
695.079	13.38
695.108	-0.62
695.137	23.38
695.166	17.38
695.195	0.38
695.224	10.38
695.253	6.38
695.282	14.38
695.311	14.38
695.34	6.38
695.369	9.38
695.398	10.38
695.427	8.38
695.456	5.38
695.485	21.38
695.513	12.38
695.542	19.38
695.571	11.38
695.6	17.38
695.629	0.38
695.658	0.38
695.687	1.38
695.716	-7.62
695.745	14.38
695.774	-10.62
695.802	-2.62
695.831	12.38
695.86	7.38
695.889	22.38
695.918	9.38
695.947	7.38
695.976	4.38
696.005	14.38
696.033	16.38
696.062	18.38
696.091	-4.62
696.12	22.38
696.149	3.38
696.178	-2.62
696.207	7.38
696.235	6.38
696.264	8.38
696.293	21.38
696.322	-4.62
696.351	10.38
696.38	0.38
696.408	-0.62
696.437	-0.62
696.466	-1.62
696.495	-0.62
696.524	6.38
696.553	0.38
696.581	11.38
696.61	-2.62
696.639	2.38
696.668	6.38
696.697	-2.62
696.725	7.38
696.754	13.38
696.783	3.38
696.812	-6.62
696.84	-7.62
696.869	0.38
696.898	-5.62
696.927	6.38
696.956	18.38
696.984	3.38
697.013	6.38
697.042	-2.62
697.071	1.38
697.099	28.38
697.128	9.38
697.157	7.38
697.186	7.38
697.214	6.38
697.243	-0.62
697.272	-5.62
697.301	5.38
697.329	7.38
697.358	23.38
697.387	25.38
697.415	7.38
697.444	5.38
697.473	4.38
697.502	8.38
697.53	7.38
697.559	-2.62
697.588	3.38
697.616	-5.62
697.645	-7.62
697.674	6.38
697.703	9.38
697.731	9.38
697.76	11.38
697.789	6.38
697.817	9.38
697.846	11.38
697.875	11.38
697.903	28.38
697.932	13.38
697.961	16.38
697.989	27.38
698.018	0.38
698.047	10.38
698.075	17.38
698.104	15.38
698.133	8.38
698.161	1.38
698.19	11.38
698.218	0.38
698.247	7.38
698.276	1.38
698.304	8.38
698.333	10.38
698.362	11.38
698.39	9.38
698.419	6.38
698.447	0.38
698.476	-3.62
698.505	16.38
698.533	22.38
698.562	17.38
698.591	6.38
698.619	-3.62
698.648	2.38
698.676	7.38
698.705	-4.62
698.733	-9.62
698.762	0.38
698.791	-6.62
698.819	2.38
698.848	-1.62
698.876	13.38
698.905	28.38
698.933	15.38
698.962	24.38
698.991	35.38
699.019	28.38
699.048	12.38
699.076	10.38
699.105	-6.62
699.133	-8.62
699.162	5.38
699.19	27.38
699.219	19.38
699.248	2.38
699.276	-0.62
699.305	3.38
699.333	10.38
699.362	5.38
699.39	18.38
699.419	6.38
699.447	10.38
699.476	19.38
699.504	4.38
699.533	16.38
699.561	-2.62
699.59	7.38
699.618	6.38
699.647	2.38
699.675	12.38
699.704	29.38
699.732	0.38
699.761	18.38
699.789	8.38
699.818	11.38
699.846	-3.62
699.874	-2.62
699.903	7.38
699.931	0.38
699.96	-0.62
699.988	10.38
700.017	-8.62
700.045	-8.62
700.074	-0.62
700.102	4.38
700.13	6.38
700.159	9.38
700.187	9.38
700.216	-5.62
700.244	-22.62
700.273	-4.62
700.301	-12.62
700.329	12.38
700.358	12.38
700.386	5.38
700.415	13.38
700.443	-1.62
700.472	-8.62
700.5	-1.62
700.528	17.38
700.557	12.38
700.585	0.38
700.614	2.38
700.642	21.38
700.67	15.38
700.699	25.38
700.727	5.38
700.755	7.38
700.784	-5.62
700.812	-3.62
700.841	-4.62
700.869	-3.62
700.897	-22.62
700.926	6.38
700.954	14.38
700.982	14.38
701.011	11.38
701.039	16.38
701.067	0.38
701.096	4.38
701.124	1.38
701.152	6.38
701.181	17.38
701.209	-15.62
701.237	19.38
701.266	3.38
701.294	-2.62
701.322	14.38
701.351	13.38
701.379	-1.62
701.407	-10.62
701.435	13.38
701.464	15.38
701.492	24.38
701.52	-6.62
701.549	-1.62
701.577	-0.62
701.605	-2.62
701.634	10.38
701.662	9.38
701.69	6.38
701.718	-12.62
701.747	10.38
701.775	5.38
701.803	-1.62
701.831	8.38
701.86	0.38
701.888	-1.62
701.916	-1.62
701.944	-5.62
701.973	-10.62
702.001	4.38
702.029	16.38
702.057	5.38
702.086	-4.62
702.114	-15.62
702.142	5.38
702.17	-7.62
702.199	-3.62
702.227	-2.62
702.255	4.38
702.283	2.38
702.311	12.38
702.34	14.38
702.368	0.38
702.396	3.38
702.424	-4.62
702.452	-3.62
702.481	7.38
702.509	2.38
702.537	12.38
702.565	2.38
702.593	-8.62
702.621	13.38
702.65	12.38
702.678	10.38
702.706	10.38
702.734	-0.62
702.762	7.38
702.79	7.38
702.819	2.38
702.847	1.38
702.875	6.38
702.903	19.38
702.931	-7.62
702.959	9.38
702.988	0.38
703.016	12.38
703.044	-6.62
703.072	14.38
703.1	-0.62
703.128	5.38
703.156	1.38
703.184	-0.62
703.212	22.38
703.241	-6.62
703.269	7.38
703.297	-4.62
703.325	5.38
703.353	-5.62
703.381	-8.62
703.409	16.38
703.437	-7.62
703.465	-2.62
703.493	-14.62
703.522	17.38
703.55	13.38
703.578	20.38
703.606	-0.62
703.634	-0.62
703.662	-12.62
703.69	1.38
703.718	1.38
703.746	25.38
703.774	-3.62
703.802	11.38
703.83	3.38
703.858	11.38
703.886	-1.62
703.914	5.38
703.942	9.38
703.97	-1.62
703.998	3.38
704.027	26.38
704.055	6.38
704.083	-3.62
704.111	1.38
704.139	6.38
704.167	-0.62
704.195	9.38
704.223	-2.62
704.251	5.38
704.279	3.38
704.307	8.38
704.335	-12.62
704.363	13.38
704.391	4.38
704.419	-7.62
704.447	-19.62
704.475	17.38
704.503	-3.62
704.531	17.38
704.558	12.38
704.586	15.38
704.614	3.38
704.642	23.38
704.67	5.38
704.698	1.38
704.726	3.38
704.754	0.38
704.782	-5.62
704.81	0.38
704.838	12.38
704.866	8.38
704.894	-14.62
704.922	7.38
704.95	12.38
704.978	12.38
705.006	-2.62
705.034	9.38
705.061	-2.62
705.089	1.38
705.117	-0.62
705.145	-2.62
705.173	-10.62
705.201	10.38
705.229	9.38
705.257	-0.62
705.285	0.38
705.313	15.38
705.34	2.38
705.368	2.38
705.396	0.38
705.424	-6.62
705.452	-9.62
705.48	1.38
705.508	13.38
705.536	7.38
705.563	-8.62
705.591	2.38
705.619	18.38
705.647	-1.62
705.675	11.38
705.703	8.38
705.731	15.38
705.758	17.38
705.786	20.38
705.814	18.38
705.842	-12.62
705.87	7.38
705.898	19.38
705.925	12.38
705.953	8.38
705.981	-9.62
706.009	6.38
706.037	17.38
706.065	7.38
706.092	-8.62
706.12	10.38
706.148	-5.62
706.176	1.38
706.204	13.38
706.231	3.38
706.259	-5.62
706.287	-1.62
706.315	6.38
706.342	4.38
706.37	5.38
706.398	5.38
706.426	-10.62
706.454	-2.62
706.481	20.38
706.509	3.38
706.537	11.38
706.565	-6.62
706.592	5.38
706.62	-7.62
706.648	3.38
706.676	-5.62
706.703	13.38
706.731	-9.62
706.759	0.38
706.787	6.38
706.814	13.38
706.842	-2.62
706.87	-10.62
706.897	8.38
706.925	11.38
706.953	24.38
706.981	16.38
707.008	7.38
707.036	-1.62
707.064	-2.62
707.091	-3.62
707.119	7.38
707.147	9.38
707.174	5.38
707.202	9.38
707.23	-8.62
707.258	13.38
707.285	-5.62
707.313	3.38
707.341	-0.62
707.368	8.38
707.396	-0.62
707.424	19.38
707.451	-1.62
707.479	5.38
707.507	12.38
707.534	6.38
707.562	9.38
707.59	-9.62
707.617	-11.62
707.645	-5.62
707.672	6.38
707.7	5.38
707.728	12.38
707.755	10.38
707.783	10.38
707.811	8.38
707.838	-10.62
707.866	-5.62
707.893	4.38
707.921	-3.62
707.949	1.38
707.976	1.38
708.004	19.38
708.031	-8.62
708.059	-3.62
708.087	14.38
708.114	-10.62
708.142	-1.62
708.169	3.38
708.197	11.38
708.225	2.38
708.252	2.38
708.28	10.38
708.307	-22.62
708.335	6.38
708.362	5.38
708.39	6.38
708.418	9.38
708.445	13.38
708.473	0.38
708.5	-15.62
708.528	13.38
708.555	3.38
708.583	11.38
708.61	6.38
708.638	3.38
708.665	2.38
708.693	11.38
708.72	-0.62
708.748	1.38
708.776	8.38
708.803	18.38
708.831	8.38
708.858	14.38
708.886	4.38
708.913	20.38
708.941	-2.62
708.968	7.38
708.996	5.38
709.023	27.38
709.051	-9.62
709.078	5.38
709.105	5.38
709.133	19.38
709.16	-0.62
709.188	17.38
709.215	2.38
709.243	3.38
709.27	-8.62
709.298	-1.62
709.325	0.38
709.353	4.38
709.38	1.38
709.408	-0.62
709.435	0.38
709.462	6.38
709.49	3.38
709.517	-4.62
709.545	-13.62
709.572	-1.62
709.6	-9.62
709.627	7.38
709.655	4.38
709.682	1.38
709.709	-10.62
709.737	2.38
709.764	-0.62
709.792	8.38
709.819	-1.62
709.846	1.38
709.874	-2.62
709.901	16.38
709.929	6.38
709.956	13.38
709.983	-9.62
710.011	-12.62
710.038	-17.62
710.066	5.38
710.093	15.38
710.12	11.38
710.148	5.38
710.175	-5.62
710.202	-14.62
710.23	3.38
710.257	11.38
710.284	19.38
710.312	9.38
710.339	-2.62
710.366	3.38
710.394	-0.62
710.421	-6.62
710.448	-2.62
710.476	-12.62
710.503	-9.62
710.53	7.38
710.558	19.38
710.585	12.38
710.612	-3.62
710.64	-1.62
710.667	-4.62
710.694	-1.62
710.722	-2.62
710.749	-0.62
710.776	12.38
710.804	23.38
710.831	2.38
710.858	11.38
710.885	3.38
710.913	14.38
710.94	29.38
710.967	6.38
710.995	4.38
711.022	-5.62
711.049	1.38
711.076	-6.62
711.104	8.38
711.131	1.38
711.158	1.38
711.185	17.38
711.213	-5.62
711.24	-18.62
711.267	-2.62
711.294	-3.62
711.322	6.38
711.349	-2.62
711.376	-2.62
711.403	20.38
711.431	-5.62
711.458	-8.62
711.485	-10.62
711.512	14.38
711.54	14.38
711.567	-6.62
711.594	10.38
711.621	-0.62
711.648	1.38
711.676	2.38
711.703	11.38
711.73	11.38
711.757	0.38
711.784	9.38
711.812	7.38
711.839	-4.62
711.866	5.38
711.893	-12.62
711.92	10.38
711.947	13.38
711.975	16.38
712.002	1.38
712.029	10.38
712.056	3.38
712.083	5.38
712.11	-18.62
712.138	12.38
712.165	7.38
712.192	2.38
712.219	-1.62
712.246	-14.62
712.273	-0.62
712.3	5.38
712.328	9.38
712.355	9.38
712.382	-6.62
712.409	8.38
712.436	7.38
712.463	26.38
712.49	17.38
712.517	7.38
712.544	4.38
712.572	-0.62
712.599	-1.62
712.626	9.38
712.653	-1.62
712.68	1.38
712.707	0.38
712.734	7.38
712.761	2.38
712.788	1.38
712.815	5.38
712.842	21.38
712.87	1.38
712.897	1.38
712.924	-2.62
712.951	11.38
712.978	15.38
713.005	2.38
713.032	17.38
713.059	12.38
713.086	5.38
713.113	-0.62
713.14	-5.62
713.167	5.38
713.194	6.38
713.221	2.38
713.248	32.38
713.275	5.38
713.302	-1.62
713.329	7.38
713.356	4.38
713.383	0.38
713.41	0.38
713.437	-3.62
713.464	5.38
713.491	15.38
713.518	0.38
713.545	7.38
713.572	1.38
713.599	27.38
713.626	-4.62
713.653	2.38
713.68	-14.62
713.707	-8.62
713.734	7.38
713.761	0.38
713.788	-10.62
713.815	7.38
713.842	7.38
713.869	7.38
713.896	-10.62
713.923	6.38
713.95	-6.62
713.977	-8.62
714.004	-4.62
714.031	-0.62
714.058	1.38
714.085	2.38
714.112	5.38
714.139	6.38
714.165	7.38
714.192	-0.62
714.219	3.38
714.246	-1.62
714.273	-2.62
714.3	15.38
714.327	8.38
714.354	21.38
714.381	0.38
714.408	-4.62
714.435	-5.62
714.461	16.38
714.488	20.38
714.515	-2.62
714.542	-7.62
714.569	-9.62
714.596	-3.62
714.623	2.38
714.65	-3.62
714.677	17.38
714.703	5.38
714.73	1.38
714.757	2.38
714.784	2.38
714.811	-8.62
714.838	12.38
714.865	-1.62
714.891	6.38
714.918	-0.62
714.945	3.38
714.972	2.38
714.999	5.38
715.026	-12.62
715.052	-0.62
715.079	-4.62
715.106	-0.62
715.133	-6.62
715.16	11.38
715.187	27.38
715.213	9.38
715.24	10.38
715.267	-8.62
715.294	-9.62
715.321	-20.62
715.347	3.38
715.374	-4.62
715.401	13.38
715.428	1.38
715.455	6.38
715.481	-9.62
715.508	20.38
715.535	1.38
715.562	18.38
715.588	5.38
715.615	-7.62
715.642	12.38
715.669	14.38
715.695	-1.62
715.722	17.38
715.749	6.38
715.776	37.38
715.802	7.38
715.829	10.38
715.856	-5.62
715.883	8.38
715.909	4.38
715.936	-1.62
715.963	-3.62
715.99	-10.62
716.016	13.38
716.043	14.38
716.07	-8.62
716.096	-16.62
716.123	3.38
716.15	0.38
716.177	7.38
716.203	5.38
716.23	-0.62
716.257	7.38
716.283	20.38
716.31	-1.62
716.337	-13.62
716.363	3.38
716.39	2.38
716.417	15.38
716.443	-0.62
716.47	10.38
716.497	10.38
716.523	5.38
716.55	5.38
716.577	17.38
716.603	1.38
716.63	1.38
716.657	16.38
716.683	-1.62
716.71	-3.62
716.737	6.38
716.763	14.38
716.79	13.38
716.817	14.38
716.843	11.38
716.87	2.38
716.897	3.38
716.923	10.38
716.95	-5.62
716.976	-12.62
717.003	0.38
717.03	4.38
717.056	3.38
717.083	-1.62
717.109	12.38
717.136	11.38
717.163	3.38
717.189	9.38
717.216	-3.62
717.242	-2.62
717.269	6.38
717.296	6.38
717.322	16.38
717.349	16.38
717.375	5.38
717.402	2.38
717.428	1.38
717.455	18.38
717.481	7.38
717.508	12.38
717.535	-4.62
717.561	-3.62
717.588	3.38
717.614	11.38
717.641	-8.62
717.667	12.38
717.694	13.38
717.72	2.38
717.747	7.38
717.773	-0.62
717.8	12.38
717.826	5.38
717.853	6.38
717.88	11.38
717.906	6.38
717.933	17.38
717.959	12.38
717.986	6.38
718.012	2.38
718.039	29.38
718.065	18.38
718.092	8.38
718.118	0.38
718.144	-7.62
718.171	17.38
718.197	15.38
718.224	3.38
718.25	5.38
718.277	12.38
718.303	5.38
718.33	6.38
718.356	1.38
718.383	1.38
718.409	2.38
718.436	7.38
718.462	12.38
718.489	8.38
718.515	31.38
718.541	19.38
718.568	1.38
718.594	-3.62
718.621	11.38
718.647	13.38
718.674	12.38
718.7	3.38
718.726	-4.62
718.753	-2.62
718.779	7.38
718.806	-0.62
718.832	1.38
718.858	-2.62
718.885	-6.62
718.911	5.38
718.938	0.38
718.964	-0.62
718.99	11.38
719.017	-1.62
719.043	4.38
719.07	15.38
719.096	-0.62
719.122	6.38
719.149	6.38
719.175	9.38
719.201	14.38
719.228	5.38
719.254	2.38
719.281	-7.62
719.307	8.38
719.333	4.38
719.36	12.38
719.386	13.38
719.412	17.38
719.439	2.38
719.465	3.38
719.491	3.38
719.518	8.38
719.544	1.38
719.57	21.38
719.597	11.38
719.623	-4.62
719.649	-0.62
719.675	-0.62
719.702	-1.62
719.728	14.38
719.754	-7.62
719.781	-2.62
719.807	1.38
719.833	4.38
719.86	3.38
719.886	-6.62
719.912	12.38
719.938	-9.62
719.965	-4.62
719.991	14.38
720.017	-0.62
720.044	-14.62
720.07	4.38
720.096	8.38
720.122	3.38
720.149	-4.62
720.175	20.38
720.201	9.38
720.227	5.38
720.254	1.38
720.28	0.38
720.306	-9.62
720.332	3.38
720.359	6.38
720.385	10.38
720.411	-9.62
720.437	3.38
720.463	1.38
720.49	11.38
720.516	-10.62
720.542	-10.62
720.568	14.38
720.595	20.38
720.621	-1.62
720.647	11.38
720.673	19.38
720.699	2.38
720.725	7.38
720.752	10.38
720.778	7.38
720.804	17.38
720.83	6.38
720.856	-1.62
720.883	-7.62
720.909	7.38
720.935	11.38
720.961	4.38
720.987	2.38
721.013	19.38
721.04	-1.62
721.066	-4.62
721.092	-10.62
721.118	1.38
721.144	0.38
721.17	3.38
721.196	9.38
721.223	-12.62
721.249	2.38
721.275	23.38
721.301	12.38
721.327	11.38
721.353	14.38
721.379	-13.62
721.405	7.38
721.432	14.38
721.458	3.38
721.484	0.38
721.51	-7.62
721.536	3.38
721.562	5.38
721.588	-0.62
721.614	-4.62
721.64	-1.62
721.666	-8.62
721.693	1.38
721.719	-2.62
721.745	-6.62
721.771	-12.62
721.797	-9.62
721.823	2.38
721.849	12.38
721.875	18.38
721.901	4.38
721.927	8.38
721.953	12.38
721.979	10.38
722.005	2.38
722.031	1.38
722.057	13.38
722.083	2.38
722.109	15.38
722.135	17.38
722.161	9.38
722.187	12.38
722.214	2.38
722.24	0.38
722.266	1.38
722.292	5.38
722.318	22.38
722.344	10.38
722.37	11.38
722.396	12.38
722.422	2.38
722.448	3.38
722.474	-2.62
722.5	1.38
722.526	9.38
722.552	-0.62
722.578	2.38
722.603	15.38
722.629	3.38
722.655	6.38
722.681	-0.62
722.707	15.38
722.733	-4.62
722.759	6.38
722.785	15.38
722.811	-2.62
722.837	9.38
722.863	11.38
722.889	15.38
722.915	-2.62
722.941	8.38
722.967	7.38
722.993	15.38
723.019	4.38
723.045	12.38
723.071	5.38
723.097	10.38
723.122	25.38
723.148	3.38
723.174	1.38
723.2	-4.62
723.226	1.38
723.252	6.38
723.278	-1.62
723.304	-4.62
723.33	13.38
723.356	-2.62
723.381	-8.62
723.407	-18.62
723.433	3.38
723.459	2.38
723.485	4.38
723.511	15.38
723.537	11.38
723.563	2.38
723.588	8.38
723.614	31.38
723.64	1.38
723.666	-8.62
723.692	8.38
723.718	4.38
723.744	17.38
723.769	2.38
723.795	11.38
723.821	13.38
723.847	11.38
723.873	8.38
723.899	-0.62
723.924	-10.62
723.95	-9.62
723.976	-8.62
724.002	9.38
724.028	23.38
724.053	1.38
724.079	17.38
724.105	12.38
724.131	2.38
724.157	7.38
724.182	2.38
724.208	-12.62
724.234	7.38
724.26	7.38
724.286	11.38
724.311	14.38
724.337	-4.62
724.363	-0.62
724.389	15.38
724.415	6.38
724.44	11.38
724.466	-2.62
724.492	-3.62
724.518	4.38
724.543	1.38
724.569	0.38
724.595	11.38
724.621	15.38
724.646	9.38
724.672	-5.62
724.698	18.38
724.723	8.38
724.749	16.38
724.775	13.38
724.801	0.38
724.826	-5.62
724.852	-5.62
724.878	-1.62
724.904	-12.62
724.929	2.38
724.955	-9.62
724.981	-5.62
725.006	15.38
725.032	15.38
725.058	13.38
725.083	8.38
725.109	11.38
725.135	3.38
725.161	9.38
725.186	0.38
725.212	3.38
725.238	5.38
725.263	2.38
725.289	1.38
725.315	1.38
725.34	1.38
725.366	31.38
725.392	6.38
725.417	7.38
725.443	22.38
725.468	14.38
725.494	8.38
725.52	3.38
725.545	0.38
725.571	4.38
725.597	-1.62
725.622	8.38
725.648	13.38
725.674	12.38
725.699	-1.62
725.725	-7.62
725.75	27.38
725.776	-0.62
725.802	3.38
725.827	-2.62
725.853	15.38
725.878	25.38
725.904	1.38
725.93	-1.62
725.955	-13.62
725.981	-0.62
726.006	-6.62
726.032	24.38
726.057	-12.62
726.083	-0.62
726.109	8.38
726.134	7.38
726.16	-2.62
726.185	-6.62
726.211	-3.62
726.236	11.38
726.262	0.38
726.288	-1.62
726.313	10.38
726.339	19.38
726.364	13.38
726.39	26.38
726.415	11.38
726.441	12.38
726.466	-16.62
726.492	-2.62
726.517	9.38
726.543	-2.62
726.568	-2.62
726.594	-4.62
726.619	-4.62
726.645	13.38
726.67	10.38
726.696	16.38
726.721	8.38
726.747	5.38
726.772	6.38
726.798	8.38
726.823	4.38
726.849	4.38
726.874	30.38
726.9	18.38
726.925	7.38
726.951	2.38
726.976	-2.62
727.002	11.38
727.027	23.38
727.053	10.38
727.078	-6.62
727.104	8.38
727.129	-8.62
727.155	3.38
727.18	15.38
727.205	-3.62
727.231	-8.62
727.256	13.38
727.282	15.38
727.307	17.38
727.333	2.38
727.358	-4.62
727.383	-10.62
727.409	-21.62
727.434	6.38
727.46	7.38
727.485	-5.62
727.511	13.38
727.536	-8.62
727.561	-13.62
727.587	8.38
727.612	9.38
727.637	3.38
727.663	-0.62
727.688	14.38
727.714	-0.62
727.739	3.38
727.764	9.38
727.79	20.38
727.815	13.38
727.841	19.38
727.866	15.38
727.891	13.38
727.917	-18.62
727.942	-4.62
727.967	-5.62
727.993	-20.62
728.018	11.38
728.043	22.38
728.069	20.38
728.094	8.38
728.119	-4.62
728.145	14.38
728.17	5.38
728.195	0.38
728.221	28.38
728.246	-3.62
728.271	-1.62
728.297	6.38
728.322	8.38
728.347	23.38
728.373	9.38
728.398	23.38
728.423	5.38
728.448	8.38
728.474	11.38
728.499	13.38
728.524	-4.62
728.55	-2.62
728.575	18.38
728.6	18.38
728.625	-2.62
728.651	15.38
728.676	1.38
728.701	-0.62
728.727	-6.62
728.752	1.38
728.777	-7.62
728.802	10.38
728.828	14.38
728.853	12.38
728.878	-4.62
728.903	2.38
728.929	-0.62
728.954	-3.62
728.979	-2.62
729.004	5.38
729.03	3.38
729.055	11.38
729.08	2.38
729.105	5.38
729.13	10.38
729.156	3.38
729.181	4.38
729.206	-15.62
729.231	-1.62
729.256	8.38
729.282	-0.62
729.307	-8.62
729.332	-0.62
729.357	-5.62
729.382	-0.62
729.408	2.38
729.433	13.38
729.458	4.38
729.483	19.38
729.508	19.38
729.533	10.38
729.559	8.38
729.584	-1.62
729.609	-1.62
729.634	0.38
729.659	-3.62
729.684	7.38
729.71	24.38
729.735	12.38
729.76	1.38
729.785	10.38
729.81	17.38
729.835	2.38
729.86	-6.62
729.886	11.38
729.911	-0.62
729.936	-11.62
729.961	9.38
729.986	-2.62
730.011	-2.62
730.036	14.38
730.061	15.38
730.086	19.38
730.112	2.38
730.137	24.38
730.162	9.38
730.187	3.38
730.212	-6.62
730.237	-2.62
730.262	5.38
730.287	3.38
730.312	26.38
730.337	0.38
730.362	10.38
730.387	2.38
730.413	0.38
730.438	6.38
730.463	2.38
730.488	-9.62
730.513	-8.62
730.538	4.38
730.563	24.38
730.588	6.38
730.613	7.38
730.638	5.38
730.663	10.38
730.688	13.38
730.713	16.38
730.738	-1.62
730.763	-2.62
730.788	-17.62
730.813	5.38
730.838	-9.62
730.863	-6.62
730.888	0.38
730.913	1.38
730.938	-7.62
730.963	5.38
730.988	16.38
731.013	24.38
731.038	-2.62
731.063	-3.62
731.088	16.38
731.113	10.38
731.138	-2.62
731.163	10.38
731.188	3.38
731.213	10.38
731.238	8.38
731.263	8.38
731.288	-4.62
731.313	-0.62
731.338	18.38
731.363	10.38
731.388	18.38
731.413	2.38
731.438	6.38
731.463	7.38
731.487	12.38
731.512	-2.62
731.537	3.38
731.562	2.38
731.587	13.38
731.612	-2.62
731.637	-3.62
731.662	-1.62
731.687	5.38
731.712	-0.62
731.737	-0.62
731.762	-4.62
731.786	9.38
731.811	17.38
731.836	11.38
731.861	-2.62
731.886	7.38
731.911	3.38
731.936	19.38
731.961	0.38
731.986	-2.62
732.01	1.38
732.035	1.38
732.06	19.38
732.085	11.38
732.11	-0.62
732.135	0.38
732.16	-2.62
732.184	-0.62
732.209	2.38
732.234	7.38
732.259	-6.62
732.284	15.38
732.309	-5.62
732.334	-8.62
732.358	-12.62
732.383	-3.62
732.408	-0.62
732.433	14.38
732.458	-1.62
732.482	9.38
732.507	4.38
732.532	-3.62
732.557	8.38
732.582	8.38
732.607	9.38
732.631	-2.62
732.656	-12.62
732.681	5.38
732.706	0.38
732.73	0.38
732.755	4.38
732.78	6.38
732.805	-7.62
732.83	-3.62
732.854	9.38
732.879	23.38
732.904	3.38
732.929	-6.62
732.953	26.38
732.978	3.38
733.003	-4.62
733.028	5.38
733.052	14.38
733.077	5.38
733.102	13.38
733.127	-1.62
733.151	-8.62
733.176	2.38
733.201	-10.62
733.226	-8.62
733.25	8.38
733.275	-1.62
733.3	5.38
733.324	22.38
733.349	7.38
733.374	5.38
733.399	4.38
733.423	26.38
733.448	2.38
733.473	-7.62
733.497	-0.62
733.522	-6.62
733.547	13.38
733.571	18.38
733.596	3.38
733.621	15.38
733.646	5.38
733.67	11.38
733.695	10.38
733.72	4.38
733.744	0.38
733.769	3.38
733.794	11.38
733.818	3.38
733.843	-7.62
733.867	-6.62
733.892	1.38
733.917	-2.62
733.941	4.38
733.966	-10.62
733.991	11.38
734.015	16.38
734.04	16.38
734.065	21.38
734.089	11.38
734.114	4.38
734.138	4.38
734.163	1.38
734.188	4.38
734.212	19.38
734.237	7.38
734.261	9.38
734.286	-1.62
734.311	8.38
734.335	16.38
734.36	6.38
734.384	6.38
734.409	23.38
734.434	9.38
734.458	8.38
734.483	-5.62
734.507	4.38
734.532	13.38
734.556	-0.62
734.581	7.38
734.606	-1.62
734.63	-9.62
734.655	6.38
734.679	4.38
734.704	6.38
734.728	6.38
734.753	-4.62
734.777	16.38
734.802	2.38
734.826	12.38
734.851	2.38
734.876	-1.62
734.9	3.38
734.925	7.38
734.949	5.38
734.974	4.38
734.998	14.38
735.023	-8.62
735.047	-9.62
735.072	15.38
735.096	8.38
735.121	22.38
735.145	18.38
735.17	5.38
735.194	31.38
735.219	6.38
735.243	-2.62
735.268	9.38
735.292	5.38
735.317	11.38
735.341	4.38
735.365	6.38
735.39	13.38
735.414	5.38
735.439	6.38
735.463	4.38
735.488	10.38
735.512	1.38
735.537	7.38
735.561	2.38
735.586	8.38
735.61	11.38
735.634	6.38
735.659	7.38
735.683	20.38
735.708	20.38
735.732	-0.62
735.757	11.38
735.781	18.38
735.805	2.38
735.83	3.38
735.854	5.38
735.879	19.38
735.903	17.38
735.927	17.38
735.952	20.38
735.976	15.38
736.001	2.38
736.025	-7.62
736.049	1.38
736.074	17.38
736.098	17.38
736.123	-3.62
736.147	9.38
736.171	13.38
736.196	10.38
736.22	0.38
736.244	-2.62
736.269	3.38
736.293	7.38
736.317	7.38
736.342	11.38
736.366	11.38
736.39	5.38
736.415	-5.62
736.439	-0.62
736.463	17.38
736.488	-9.62
736.512	4.38
736.536	9.38
736.561	23.38
736.585	-8.62
736.609	19.38
736.634	-0.62
736.658	0.38
736.682	5.38
736.707	-20.62
736.731	-19.62
736.755	-9.62
736.78	7.38
736.804	29.38
736.828	9.38
736.852	16.38
736.877	2.38
736.901	2.38
736.925	1.38
736.949	3.38
736.974	-5.62
736.998	-1.62
737.022	6.38
737.047	1.38
737.071	3.38
737.095	19.38
737.119	19.38
737.144	7.38
737.168	2.38
737.192	19.38
737.216	4.38
737.241	-4.62
737.265	-0.62
737.289	14.38
737.313	-0.62
737.337	14.38
737.362	13.38
737.386	-7.62
737.41	-6.62
737.434	17.38
737.459	7.38
737.483	28.38
737.507	23.38
737.531	3.38
737.555	-1.62
737.58	-4.62
737.604	14.38
737.628	-7.62
737.652	-1.62
737.676	-2.62
737.701	10.38
737.725	1.38
737.749	12.38
737.773	2.38
737.797	-5.62
737.821	-5.62
737.846	-5.62
737.87	23.38
737.894	11.38
737.918	-1.62
737.942	6.38
737.966	9.38
737.99	16.38
738.015	2.38
738.039	0.38
738.063	-4.62
738.087	24.38
738.111	12.38
738.135	14.38
738.159	-1.62
738.184	-8.62
738.208	18.38
738.232	6.38
738.256	17.38
738.28	17.38
738.304	18.38
738.328	-9.62
738.352	14.38
738.376	-1.62
738.4	11.38
738.425	19.38
738.449	-2.62
738.473	5.38
738.497	10.38
738.521	22.38
738.545	3.38
738.569	11.38
738.593	11.38
738.617	7.38
738.641	14.38
738.665	2.38
738.689	10.38
738.713	-0.62
738.737	15.38
738.762	24.38
738.786	9.38
738.81	-0.62
738.834	11.38
738.858	-7.62
738.882	8.38
738.906	6.38
738.93	6.38
738.954	3.38
738.978	22.38
739.002	1.38
739.026	23.38
739.05	0.38
739.074	-5.62
739.098	25.38
739.122	13.38
739.146	24.38
739.17	26.38
739.194	15.38
739.218	-6.62
739.242	-2.62
739.266	-4.62
739.29	2.38
739.314	5.38
739.338	-7.62
739.362	3.38
739.386	1.38
739.41	-3.62
739.434	9.38
739.458	13.38
739.482	15.38
739.506	5.38
739.53	1.38
739.554	6.38
739.577	3.38
739.601	9.38
739.625	13.38
739.649	5.38
739.673	-3.62
739.697	23.38
739.721	5.38
739.745	16.38
739.769	15.38
739.793	0.38
739.817	14.38
739.841	8.38
739.865	1.38
739.889	-2.62
739.912	18.38
739.936	-3.62
739.96	17.38
739.984	25.38
740.008	4.38
740.032	5.38
740.056	-4.62
740.08	1.38
740.104	-2.62
740.127	7.38
740.151	13.38
740.175	15.38
740.199	17.38
740.223	50.38
740.247	-0.62
740.271	12.38
740.295	13.38
740.318	-5.62
740.342	5.38
740.366	3.38
740.39	-0.62
740.414	4.38
740.438	1.38
740.461	27.38
740.485	13.38
740.509	-1.62
740.533	4.38
740.557	-1.62
740.581	1.38
740.604	-8.62
740.628	-4.62
740.652	17.38
740.676	-2.62
740.7	19.38
740.723	-3.62
740.747	1.38
740.771	14.38
740.795	-8.62
740.819	-2.62
740.842	3.38
740.866	18.38
740.89	0.38
740.914	5.38
740.938	12.38
740.961	14.38
740.985	23.38
741.009	10.38
741.033	10.38
741.056	3.38
741.08	9.38
741.104	9.38
741.128	14.38
741.151	7.38
741.175	12.38
741.199	13.38
741.223	29.38
741.246	7.38
741.27	10.38
741.294	20.38
741.318	-2.62
741.341	5.38
741.365	-2.62
741.389	16.38
741.413	23.38
741.436	9.38
741.46	31.38
741.484	20.38
741.507	6.38
741.531	13.38
741.555	21.38
741.579	1.38
741.602	12.38
741.626	1.38
741.65	6.38
741.673	5.38
741.697	26.38
741.721	18.38
741.744	12.38
741.768	6.38
741.792	17.38
741.815	-0.62
741.839	8.38
741.863	27.38
741.886	18.38
741.91	20.38
741.934	-0.62
741.957	-7.62
741.981	14.38
742.005	11.38
742.028	-4.62
742.052	-9.62
742.075	1.38
742.099	22.38
742.123	8.38
742.146	4.38
742.17	-2.62
742.194	0.38
742.217	9.38
742.241	4.38
742.264	2.38
742.288	29.38
742.312	7.38
742.335	5.38
742.359	2.38
742.382	12.38
742.406	10.38
742.43	-2.62
742.453	-14.62
742.477	-18.62
742.5	-4.62
742.524	9.38
742.548	2.38
742.571	0.38
742.595	5.38
742.618	-18.62
742.642	-4.62
742.665	4.38
742.689	11.38
742.712	6.38
742.736	-1.62
742.76	8.38
742.783	0.38
742.807	13.38
742.83	14.38
742.854	-10.62
742.877	-9.62
742.901	-1.62
742.924	13.38
742.948	5.38
742.971	10.38
742.995	11.38
743.018	2.38
743.042	0.38
743.065	-1.62
743.089	-14.62
743.112	2.38
743.136	2.38
743.159	-0.62
743.183	-6.62
743.206	7.38
743.23	-3.62
743.253	0.38
743.277	10.38
743.3	-9.62
743.324	-1.62
743.347	-12.62
743.371	3.38
743.394	1.38
743.418	18.38
743.441	14.38
743.465	3.38
743.488	7.38
743.512	-14.62
743.535	6.38
743.558	3.38
743.582	5.38
743.605	10.38
743.629	17.38
743.652	10.38
743.676	11.38
743.699	17.38
743.723	4.38
743.746	13.38
743.769	11.38
743.793	1.38
743.816	2.38
743.84	16.38
743.863	-0.62
743.886	15.38
743.91	-1.62
743.933	-1.62
743.957	9.38
743.98	0.38
744.003	-5.62
744.027	11.38
744.05	-6.62
744.074	12.38
744.097	-15.62
744.12	6.38
744.144	-12.62
744.167	-0.62
744.19	10.38
744.214	-4.62
744.237	1.38
744.26	10.38
744.284	5.38
744.307	-4.62
744.331	7.38
744.354	-3.62
744.377	-15.62
744.401	8.38
744.424	-6.62
744.447	-2.62
744.471	-7.62
