Data from HighRes_H2D2_15_04_11_07_2024_HR4C61891__5__15-05-34-943.txt Node

Date: Thu Nov 07 15:05:34 EST 2024
User: crc00042
Spectrometer: HR4C6189
Trigger mode: 4
Integration Time (sec): 1.000000E-1
Scans to average: 1
Electric dark correction enabled: true
Nonlinearity correction enabled: false
Boxcar width: 0
XAxis mode: Wavelengths
Number of Pixels in Spectrum: 3648
>>>>>Begin Spectral Data<<<<<
639.567	-39.31
639.602	-39.31
639.636	-39.31
639.67	-44.31
639.704	-14.31
639.738	2.69
639.773	2.69
639.807	-11.31
639.841	-0.31
639.875	16.69
639.909	-1.31
639.943	-7.31
639.978	-8.31
640.012	5.69
640.046	21.69
640.08	8.69
640.114	-7.31
640.148	-22.31
640.182	-34.31
640.217	-10.31
640.251	9.69
640.285	-2.31
640.319	-8.31
640.353	8.69
640.387	-17.31
640.421	-5.31
640.455	-19.31
640.49	-16.31
640.524	-12.31
640.558	0.69
640.592	-7.31
640.626	2.69
640.66	-3.31
640.694	12.69
640.728	1.69
640.762	18.69
640.796	12.69
640.83	22.69
640.865	0.69
640.899	8.69
640.933	1.69
640.967	0.69
641.001	11.69
641.035	4.69
641.069	3.69
641.103	-4.31
641.137	6.69
641.171	-28.31
641.205	-1.31
641.239	7.69
641.273	12.69
641.307	11.69
641.341	11.69
641.375	11.69
641.409	-5.31
641.443	0.69
641.477	-3.31
641.511	12.69
641.545	3.69
641.579	-14.31
641.614	3.69
641.648	12.69
641.682	-16.31
641.716	13.69
641.75	12.69
641.784	-4.31
641.818	0.69
641.852	4.69
641.886	-10.31
641.919	23.69
641.953	2.69
641.987	-18.31
642.021	7.69
642.055	7.69
642.089	8.69
642.123	-1.31
642.157	2.69
642.191	-2.31
642.225	7.69
642.259	-1.31
642.293	9.69
642.327	7.69
642.361	-2.31
642.395	17.69
642.429	10.69
642.463	16.69
642.497	24.69
642.531	9.69
642.565	0.69
642.599	5.69
642.633	2.69
642.666	9.69
642.7	-4.31
642.734	18.69
642.768	-9.31
642.802	-11.31
642.836	7.69
642.87	1.69
642.904	6.69
642.938	4.69
642.972	-0.31
643.005	-4.31
643.039	11.69
643.073	-4.31
643.107	10.69
643.141	-1.31
643.175	0.69
643.209	-6.31
643.243	-5.31
643.276	12.69
643.31	-6.31
643.344	3.69
643.378	5.69
643.412	8.69
643.446	-3.31
643.48	-16.31
643.513	7.69
643.547	0.69
643.581	-14.31
643.615	-1.31
643.649	12.69
643.683	1.69
643.716	-11.31
643.75	7.69
643.784	-13.31
643.818	6.69
643.852	-11.31
643.886	4.69
643.919	5.69
643.953	6.69
643.987	-14.31
644.021	0.69
644.055	-20.31
644.088	-21.31
644.122	-18.31
644.156	3.69
644.19	1.69
644.224	2.69
644.257	11.69
644.291	4.69
644.325	3.69
644.359	-0.31
644.392	11.69
644.426	5.69
644.46	4.69
644.494	1.69
644.527	-5.31
644.561	16.69
644.595	11.69
644.629	7.69
644.662	-19.31
644.696	6.69
644.73	7.69
644.764	8.69
644.797	-5.31
644.831	9.69
644.865	21.69
644.899	13.69
644.932	13.69
644.966	5.69
645	-1.31
645.033	11.69
645.067	1.69
645.101	-3.31
645.135	3.69
645.168	-7.31
645.202	-20.31
645.236	-15.31
645.269	12.69
645.303	-1.31
645.337	1.69
645.37	-11.31
645.404	8.69
645.438	0.69
645.471	9.69
645.505	23.69
645.539	-7.31
645.572	-9.31
645.606	-9.31
645.64	-2.31
645.673	-5.31
645.707	24.69
645.741	-1.31
645.774	10.69
645.808	-3.31
645.842	-6.31
645.875	3.69
645.909	-13.31
645.943	-8.31
645.976	4.69
646.01	9.69
646.043	6.69
646.077	-1.31
646.111	-6.31
646.144	6.69
646.178	16.69
646.212	-15.31
646.245	-1.31
646.279	6.69
646.312	0.69
646.346	20.69
646.38	-11.31
646.413	-15.31
646.447	-1.31
646.48	-2.31
646.514	10.69
646.547	0.69
646.581	-1.31
646.615	0.69
646.648	1.69
646.682	-3.31
646.715	-14.31
646.749	14.69
646.782	6.69
646.816	-8.31
646.85	12.69
646.883	-1.31
646.917	-0.31
646.95	-3.31
646.984	11.69
647.017	-1.31
647.051	10.69
647.084	3.69
647.118	-11.31
647.151	9.69
647.185	7.69
647.218	-7.31
647.252	-2.31
647.285	-13.31
647.319	-4.31
647.353	14.69
647.386	20.69
647.42	-2.31
647.453	8.69
647.487	-8.31
647.52	-1.31
647.553	17.69
647.587	-0.31
647.62	-22.31
647.654	-5.31
647.687	0.69
647.721	4.69
647.754	-3.31
647.788	9.69
647.821	3.69
647.855	9.69
647.888	8.69
647.922	9.69
647.955	1.69
647.989	7.69
648.022	-8.31
648.055	3.69
648.089	3.69
648.122	14.69
648.156	1.69
648.189	-4.31
648.223	-6.31
648.256	12.69
648.29	0.69
648.323	10.69
648.356	16.69
648.39	15.69
648.423	4.69
648.457	18.69
648.49	-1.31
648.523	-6.31
648.557	-2.31
648.59	2.69
648.624	-0.31
648.657	-3.31
648.69	5.69
648.724	8.69
648.757	10.69
648.791	13.69
648.824	0.69
648.857	15.69
648.891	-6.31
648.924	-10.31
648.957	23.69
648.991	-9.31
649.024	8.69
649.057	-5.31
649.091	-8.31
649.124	8.69
649.158	-0.31
649.191	15.69
649.224	8.69
649.258	11.69
649.291	0.69
649.324	11.69
649.358	5.69
649.391	6.69
649.424	4.69
649.458	2.69
649.491	8.69
649.524	4.69
649.557	-15.31
649.591	-16.31
649.624	7.69
649.657	-15.31
649.691	8.69
649.724	-6.31
649.757	9.69
649.791	-0.31
649.824	28.69
649.857	22.69
649.89	12.69
649.924	-4.31
649.957	-2.31
649.99	-3.31
650.023	-0.31
650.057	-8.31
650.09	12.69
650.123	23.69
650.157	28.69
650.19	15.69
650.223	-5.31
650.256	5.69
650.29	-3.31
650.323	7.69
650.356	14.69
650.389	2.69
650.423	-2.31
650.456	-2.31
650.489	-1.31
650.522	-0.31
650.555	9.69
650.589	14.69
650.622	1.69
650.655	17.69
650.688	7.69
650.721	5.69
650.755	5.69
650.788	7.69
650.821	8.69
650.854	-3.31
650.887	3.69
650.921	-8.31
650.954	-6.31
650.987	4.69
651.02	-16.31
651.053	-31.31
651.087	-23.31
651.12	13.69
651.153	-8.31
651.186	-0.31
651.219	-5.31
651.252	8.69
651.286	8.69
651.319	-2.31
651.352	6.69
651.385	-7.31
651.418	-2.31
651.451	11.69
651.484	15.69
651.518	-7.31
651.551	6.69
651.584	-9.31
651.617	14.69
651.65	-1.31
651.683	3.69
651.716	-7.31
651.749	-6.31
651.783	6.69
651.816	-3.31
651.849	15.69
651.882	10.69
651.915	6.69
651.948	0.69
651.981	3.69
652.014	-1.31
652.047	-14.31
652.08	-7.31
652.114	9.69
652.147	-5.31
652.18	14.69
652.213	20.69
652.246	-1.31
652.279	-10.31
652.312	13.69
652.345	-5.31
652.378	-11.31
652.411	23.69
652.444	12.69
652.477	0.69
652.51	-6.31
652.543	4.69
652.576	4.69
652.609	-6.31
652.642	16.69
652.675	14.69
652.709	0.69
652.742	7.69
652.775	6.69
652.808	1.69
652.841	-6.31
652.874	11.69
652.907	9.69
652.94	2.69
652.973	-3.31
653.006	-10.31
653.039	-11.31
653.072	-0.31
653.105	4.69
653.138	-2.31
653.171	-6.31
653.204	-6.31
653.237	-6.31
653.27	-15.31
653.303	5.69
653.336	14.69
653.368	-3.31
653.401	3.69
653.434	-6.31
653.467	-7.31
653.5	6.69
653.533	-9.31
653.566	1.69
653.599	-4.31
653.632	3.69
653.665	2.69
653.698	-5.31
653.731	-11.31
653.764	-6.31
653.797	-0.31
653.83	-15.31
653.863	-11.31
653.896	-8.31
653.929	-9.31
653.961	18.69
653.994	-9.31
654.027	-4.31
654.06	-14.31
654.093	-3.31
654.126	-8.31
654.159	-10.31
654.192	6.69
654.225	-9.31
654.258	-1.31
654.29	8.69
654.323	8.69
654.356	8.69
654.389	7.69
654.422	15.69
654.455	4.69
654.488	16.69
654.521	-0.31
654.553	8.69
654.586	7.69
654.619	7.69
654.652	1.69
654.685	19.69
654.718	16.69
654.751	10.69
654.783	2.69
654.816	15.69
654.849	-3.31
654.882	-17.31
654.915	-29.31
654.948	0.69
654.98	6.69
655.013	-16.31
655.046	-7.31
655.079	-28.31
655.112	11.69
655.144	2.69
655.177	6.69
655.21	5.69
655.243	24.69
655.276	14.69
655.308	1.69
655.341	-6.31
655.374	-5.31
655.407	-3.31
655.44	-18.31
655.472	-2.31
655.505	-10.31
655.538	-0.31
655.571	5.69
655.603	-6.31
655.636	2.69
655.669	5.69
655.702	17.69
655.734	-5.31
655.767	-3.31
655.8	-0.31
655.833	8.69
655.865	17.69
655.898	10.69
655.931	9.69
655.964	14.69
655.996	23.69
656.029	37.69
656.062	25.69
656.095	45.69
656.127	88.69
656.16	191.69
656.193	621.69
656.225	960.69
656.258	546.69
656.291	209.69
656.324	163.69
656.356	341.69
656.389	745.69
656.422	680.69
656.454	226.69
656.487	67.69
656.52	38.69
656.552	-0.31
656.585	1.69
656.618	17.69
656.65	23.69
656.683	-8.31
656.716	-0.31
656.748	-7.31
656.781	1.69
656.814	-8.31
656.846	-3.31
656.879	-5.31
656.912	9.69
656.944	-24.31
656.977	-10.31
657.01	1.69
657.042	6.69
657.075	15.69
657.108	-6.31
657.14	-0.31
657.173	-7.31
657.205	21.69
657.238	11.69
657.271	1.69
657.303	-3.31
657.336	0.69
657.369	-0.31
657.401	2.69
657.434	7.69
657.466	-0.31
657.499	1.69
657.532	-5.31
657.564	-8.31
657.597	4.69
657.629	-10.31
657.662	-9.31
657.694	3.69
657.727	-20.31
657.76	5.69
657.792	-15.31
657.825	-6.31
657.857	-7.31
657.89	-2.31
657.922	9.69
657.955	-18.31
657.987	9.69
658.02	12.69
658.053	12.69
658.085	3.69
658.118	9.69
658.15	14.69
658.183	24.69
658.215	5.69
658.248	-14.31
658.28	-18.31
658.313	7.69
658.345	-6.31
658.378	7.69
658.41	-7.31
658.443	6.69
658.475	13.69
658.508	9.69
658.54	2.69
658.573	-1.31
658.605	6.69
658.638	-4.31
658.67	9.69
658.703	-5.31
658.735	-10.31
658.768	7.69
658.8	-20.31
658.833	1.69
658.865	-1.31
658.898	8.69
658.93	1.69
658.963	-16.31
658.995	-22.31
659.028	2.69
659.06	-1.31
659.092	-6.31
659.125	-12.31
659.157	19.69
659.19	2.69
659.222	-3.31
659.255	8.69
659.287	-3.31
659.32	5.69
659.352	3.69
659.384	6.69
659.417	-8.31
659.449	0.69
659.482	17.69
659.514	-3.31
659.546	-9.31
659.579	-17.31
659.611	0.69
659.644	-25.31
659.676	-22.31
659.708	-15.31
659.741	-3.31
659.773	9.69
659.806	2.69
659.838	1.69
659.87	0.69
659.903	-22.31
659.935	1.69
659.967	8.69
660	8.69
660.032	-14.31
660.065	4.69
660.097	8.69
660.129	7.69
660.162	-8.31
660.194	-3.31
660.226	12.69
660.259	-2.31
660.291	7.69
660.323	8.69
660.356	8.69
660.388	-9.31
660.42	-8.31
660.453	-2.31
660.485	18.69
660.517	1.69
660.55	17.69
660.582	6.69
660.614	11.69
660.647	-8.31
660.679	-30.31
660.711	-1.31
660.743	-18.31
660.776	-23.31
660.808	0.69
660.84	-7.31
660.873	4.69
660.905	-1.31
660.937	13.69
660.969	-7.31
661.002	-5.31
661.034	18.69
661.066	20.69
661.099	8.69
661.131	15.69
661.163	-9.31
661.195	1.69
661.228	6.69
661.26	-19.31
661.292	-4.31
661.324	9.69
661.357	12.69
661.389	8.69
661.421	20.69
661.453	4.69
661.485	7.69
661.518	9.69
661.55	-8.31
661.582	-22.31
661.614	-3.31
661.647	15.69
661.679	11.69
661.711	6.69
661.743	2.69
661.775	6.69
661.808	16.69
661.84	-11.31
661.872	10.69
661.904	-3.31
661.936	0.69
661.969	-17.31
662.001	-10.31
662.033	-4.31
662.065	-14.31
662.097	11.69
662.129	12.69
662.162	-12.31
662.194	6.69
662.226	15.69
662.258	-0.31
662.29	2.69
662.322	-14.31
662.355	-12.31
662.387	19.69
662.419	0.69
662.451	-0.31
662.483	10.69
662.515	14.69
662.547	-12.31
662.58	-16.31
662.612	-19.31
662.644	-20.31
662.676	-15.31
662.708	-6.31
662.74	16.69
662.772	16.69
662.804	1.69
662.836	15.69
662.869	2.69
662.901	0.69
662.933	2.69
662.965	9.69
662.997	2.69
663.029	-20.31
663.061	0.69
663.093	6.69
663.125	11.69
663.157	-1.31
663.189	-0.31
663.221	11.69
663.254	-2.31
663.286	1.69
663.318	0.69
663.35	12.69
663.382	1.69
663.414	10.69
663.446	9.69
663.478	-8.31
663.51	21.69
663.542	5.69
663.574	0.69
663.606	-2.31
663.638	2.69
663.67	-3.31
663.702	3.69
663.734	-0.31
663.766	-4.31
663.798	-9.31
663.83	7.69
663.862	9.69
663.894	20.69
663.926	3.69
663.958	25.69
663.99	-1.31
664.022	-5.31
664.054	17.69
664.086	-8.31
664.118	-17.31
664.15	1.69
664.182	-4.31
664.214	3.69
664.246	-3.31
664.278	3.69
664.31	21.69
664.342	7.69
664.374	-2.31
664.406	1.69
664.438	4.69
664.47	7.69
664.502	-4.31
664.534	-6.31
664.566	3.69
664.598	8.69
664.63	-26.31
664.662	10.69
664.693	-11.31
664.725	-14.31
664.757	6.69
664.789	-10.31
664.821	12.69
664.853	18.69
664.885	5.69
664.917	-5.31
664.949	16.69
664.981	23.69
665.013	14.69
665.045	6.69
665.076	-8.31
665.108	-1.31
665.14	-11.31
665.172	-1.31
665.204	3.69
665.236	-9.31
665.268	22.69
665.3	-4.31
665.331	-7.31
665.363	-10.31
665.395	-11.31
665.427	-2.31
665.459	6.69
665.491	2.69
665.523	15.69
665.555	-6.31
665.586	-6.31
665.618	1.69
665.65	-9.31
665.682	11.69
665.714	7.69
665.746	-6.31
665.777	1.69
665.809	2.69
665.841	16.69
665.873	-12.31
665.905	10.69
665.937	13.69
665.968	-4.31
666	-8.31
666.032	-19.31
666.064	4.69
666.096	0.69
666.127	3.69
666.159	14.69
666.191	16.69
666.223	-9.31
666.255	2.69
666.286	1.69
666.318	1.69
666.35	14.69
666.382	12.69
666.413	-6.31
666.445	-5.31
666.477	-21.31
666.509	-11.31
666.54	-11.31
666.572	-15.31
666.604	4.69
666.636	6.69
666.667	13.69
666.699	13.69
666.731	4.69
666.763	-9.31
666.794	-4.31
666.826	3.69
666.858	1.69
666.89	15.69
666.921	-15.31
666.953	9.69
666.985	22.69
667.017	10.69
667.048	-3.31
667.08	-2.31
667.112	3.69
667.143	-18.31
667.175	0.69
667.207	-3.31
667.238	9.69
667.27	-6.31
667.302	2.69
667.334	-12.31
667.365	11.69
667.397	9.69
667.429	-6.31
667.46	8.69
667.492	3.69
667.524	5.69
667.555	2.69
667.587	17.69
667.619	2.69
667.65	6.69
667.682	19.69
667.714	1.69
667.745	-7.31
667.777	-7.31
667.808	2.69
667.84	9.69
667.872	-17.31
667.903	32.69
667.935	1.69
667.967	-0.31
667.998	4.69
668.03	-15.31
668.061	0.69
668.093	-5.31
668.125	12.69
668.156	14.69
668.188	-10.31
668.22	-13.31
668.251	3.69
668.283	-3.31
668.314	8.69
668.346	-21.31
668.377	7.69
668.409	-19.31
668.441	1.69
668.472	-1.31
668.504	7.69
668.535	7.69
668.567	8.69
668.599	11.69
668.63	5.69
668.662	-11.31
668.693	17.69
668.725	6.69
668.756	-4.31
668.788	9.69
668.819	-0.31
668.851	11.69
668.882	0.69
668.914	-12.31
668.946	-1.31
668.977	-14.31
669.009	-16.31
669.04	-3.31
669.072	1.69
669.103	17.69
669.135	5.69
669.166	10.69
669.198	7.69
669.229	2.69
669.261	3.69
669.292	-21.31
669.324	-5.31
669.355	22.69
669.387	3.69
669.418	12.69
669.45	-23.31
669.481	3.69
669.513	18.69
669.544	-0.31
669.576	5.69
669.607	12.69
669.639	1.69
669.67	-8.31
669.701	8.69
669.733	-14.31
669.764	-9.31
669.796	-7.31
669.827	-21.31
669.859	-7.31
669.89	9.69
669.922	6.69
669.953	19.69
669.985	-3.31
670.016	10.69
670.047	7.69
670.079	-5.31
670.11	-1.31
670.142	9.69
670.173	-1.31
670.204	5.69
670.236	5.69
670.267	3.69
670.299	-4.31
670.33	4.69
670.362	15.69
670.393	-10.31
670.424	-1.31
670.456	-4.31
670.487	-19.31
670.518	-5.31
670.55	-5.31
670.581	5.69
670.613	7.69
670.644	-19.31
670.675	-6.31
670.707	0.69
670.738	6.69
670.769	-11.31
670.801	-18.31
670.832	3.69
670.864	-12.31
670.895	-5.31
670.926	-4.31
670.958	-9.31
670.989	4.69
671.02	-2.31
671.052	1.69
671.083	4.69
671.114	-2.31
671.146	7.69
671.177	2.69
671.208	-1.31
671.24	-9.31
671.271	-11.31
671.302	6.69
671.333	-8.31
671.365	-15.31
671.396	-5.31
671.427	6.69
671.459	0.69
671.49	-8.31
671.521	2.69
671.553	-2.31
671.584	-0.31
671.615	4.69
671.646	3.69
671.678	3.69
671.709	-7.31
671.74	-16.31
671.771	-15.31
671.803	2.69
671.834	2.69
671.865	-12.31
671.896	5.69
671.928	7.69
671.959	5.69
671.99	-10.31
672.021	-9.31
672.053	-6.31
672.084	12.69
672.115	-6.31
672.146	-17.31
672.178	-17.31
672.209	-6.31
672.24	-9.31
672.271	24.69
672.303	0.69
672.334	3.69
672.365	-10.31
672.396	1.69
672.427	1.69
672.459	-8.31
672.49	34.69
672.521	4.69
672.552	10.69
672.583	9.69
672.615	-0.31
672.646	14.69
672.677	-5.31
672.708	2.69
672.739	1.69
672.77	-3.31
672.802	-18.31
672.833	-8.31
672.864	1.69
672.895	-18.31
672.926	-9.31
672.957	-15.31
672.989	-0.31
673.02	13.69
673.051	-14.31
673.082	3.69
673.113	11.69
673.144	3.69
673.175	10.69
673.206	8.69
673.238	1.69
673.269	9.69
673.3	-22.31
673.331	9.69
673.362	-10.31
673.393	-8.31
673.424	15.69
673.455	30.69
673.487	11.69
673.518	7.69
673.549	8.69
673.58	1.69
673.611	4.69
673.642	-16.31
673.673	-25.31
673.704	1.69
673.735	2.69
673.766	1.69
673.797	8.69
673.828	6.69
673.86	1.69
673.891	9.69
673.922	-21.31
673.953	-3.31
673.984	-2.31
674.015	2.69
674.046	-4.31
674.077	-17.31
674.108	-9.31
674.139	5.69
674.17	17.69
674.201	0.69
674.232	-7.31
674.263	-4.31
674.294	-8.31
674.325	-10.31
674.356	17.69
674.387	2.69
674.418	11.69
674.449	0.69
674.48	-22.31
674.511	-1.31
674.542	19.69
674.573	-1.31
674.604	4.69
674.635	-12.31
674.666	8.69
674.697	-0.31
674.728	-1.31
674.759	17.69
674.79	1.69
674.821	-4.31
674.852	3.69
674.883	-2.31
674.914	6.69
674.945	6.69
674.976	-10.31
675.007	-12.31
675.038	-5.31
675.069	-2.31
675.1	-4.31
675.131	-1.31
675.162	-14.31
675.193	-17.31
675.224	-3.31
675.254	-5.31
675.285	-7.31
675.316	5.69
675.347	-18.31
675.378	-12.31
675.409	-3.31
675.44	8.69
675.471	-4.31
675.502	-22.31
675.533	5.69
675.564	-5.31
675.595	4.69
675.625	21.69
675.656	21.69
675.687	-4.31
675.718	-7.31
675.749	7.69
675.78	-10.31
675.811	4.69
675.842	4.69
675.873	0.69
675.903	0.69
675.934	-4.31
675.965	-0.31
675.996	-2.31
676.027	-0.31
676.058	8.69
676.089	0.69
676.119	13.69
676.15	3.69
676.181	-2.31
676.212	-9.31
676.243	14.69
676.274	5.69
676.304	27.69
676.335	-4.31
676.366	0.69
676.397	7.69
676.428	-14.31
676.459	4.69
676.489	19.69
676.52	6.69
676.551	-0.31
676.582	-4.31
676.613	-1.31
676.643	-11.31
676.674	13.69
676.705	4.69
676.736	6.69
676.767	22.69
676.797	5.69
676.828	-18.31
676.859	2.69
676.89	-0.31
676.92	11.69
676.951	4.69
676.982	7.69
677.013	-6.31
677.044	5.69
677.074	-4.31
677.105	-11.31
677.136	12.69
677.167	-0.31
677.197	4.69
677.228	1.69
677.259	-11.31
677.289	8.69
677.32	-16.31
677.351	-2.31
677.382	4.69
677.412	1.69
677.443	3.69
677.474	-4.31
677.505	-15.31
677.535	6.69
677.566	-1.31
677.597	-14.31
677.627	1.69
677.658	3.69
677.689	-4.31
677.72	3.69
677.75	-21.31
677.781	-2.31
677.812	1.69
677.842	3.69
677.873	-9.31
677.904	-5.31
677.934	-14.31
677.965	-12.31
677.996	-13.31
678.026	-6.31
678.057	5.69
678.088	-10.31
678.118	0.69
678.149	-14.31
678.18	-24.31
678.21	4.69
678.241	1.69
678.272	-4.31
678.302	-4.31
678.333	0.69
678.363	7.69
678.394	10.69
678.425	-8.31
678.455	3.69
678.486	10.69
678.517	3.69
678.547	-14.31
678.578	-6.31
678.608	-7.31
678.639	-3.31
678.67	-6.31
678.7	-14.31
678.731	1.69
678.761	0.69
678.792	-4.31
678.823	0.69
678.853	4.69
678.884	-6.31
678.914	1.69
678.945	3.69
678.975	3.69
679.006	-3.31
679.037	-11.31
679.067	13.69
679.098	-0.31
679.128	-11.31
679.159	-17.31
679.189	8.69
679.22	-3.31
679.25	2.69
679.281	14.69
679.312	7.69
679.342	-11.31
679.373	19.69
679.403	-2.31
679.434	2.69
679.464	-18.31
679.495	0.69
679.525	8.69
679.556	-11.31
679.586	6.69
679.617	18.69
679.647	5.69
679.678	12.69
679.708	-2.31
679.739	-1.31
679.769	3.69
679.8	-9.31
679.83	-9.31
679.861	14.69
679.891	-4.31
679.922	-10.31
679.952	12.69
679.983	6.69
680.013	-14.31
680.044	-0.31
680.074	-0.31
680.105	5.69
680.135	3.69
680.165	18.69
680.196	15.69
680.226	8.69
680.257	6.69
680.287	7.69
680.318	-2.31
680.348	-10.31
680.379	11.69
680.409	-2.31
680.439	-11.31
680.47	-18.31
680.5	0.69
680.531	5.69
680.561	19.69
680.592	2.69
680.622	-0.31
680.652	-0.31
680.683	20.69
680.713	3.69
680.744	6.69
680.774	-5.31
680.804	8.69
680.835	-17.31
680.865	-20.31
680.896	15.69
680.926	20.69
680.956	10.69
680.987	6.69
681.017	-10.31
681.047	-2.31
681.078	-14.31
681.108	-4.31
681.139	-3.31
681.169	-19.31
681.199	-3.31
681.23	16.69
681.26	-3.31
681.29	-10.31
681.321	-10.31
681.351	2.69
681.381	-0.31
681.412	8.69
681.442	-2.31
681.472	-3.31
681.503	6.69
681.533	2.69
681.563	3.69
681.594	1.69
681.624	1.69
681.654	-14.31
681.685	3.69
681.715	4.69
681.745	-2.31
681.775	12.69
681.806	-7.31
681.836	6.69
681.866	-6.31
681.897	-0.31
681.927	-5.31
681.957	-0.31
681.987	1.69
682.018	0.69
682.048	-16.31
682.078	6.69
682.109	16.69
682.139	15.69
682.169	1.69
682.199	7.69
682.23	-2.31
682.26	15.69
682.29	-15.31
682.32	-11.31
682.351	-0.31
682.381	12.69
682.411	-7.31
682.441	-7.31
682.472	2.69
682.502	10.69
682.532	8.69
682.562	7.69
682.592	7.69
682.623	23.69
682.653	9.69
682.683	-15.31
682.713	-4.31
682.743	5.69
682.774	0.69
682.804	-4.31
682.834	8.69
682.864	-19.31
682.894	-7.31
682.925	-2.31
682.955	-2.31
682.985	-9.31
683.015	10.69
683.045	21.69
683.076	-5.31
683.106	3.69
683.136	-17.31
683.166	4.69
683.196	-1.31
683.226	3.69
683.257	-9.31
683.287	-0.31
683.317	-14.31
683.347	8.69
683.377	-2.31
683.407	-10.31
683.437	7.69
683.468	20.69
683.498	-0.31
683.528	0.69
683.558	4.69
683.588	7.69
683.618	-12.31
683.648	0.69
683.678	6.69
683.708	14.69
683.739	-0.31
683.769	-0.31
683.799	8.69
683.829	15.69
683.859	12.69
683.889	9.69
683.919	4.69
683.949	-0.31
683.979	7.69
684.009	5.69
684.039	0.69
684.07	-2.31
684.1	15.69
684.13	-3.31
684.16	-16.31
684.19	-14.31
684.22	-6.31
684.25	6.69
684.28	-0.31
684.31	-0.31
684.34	4.69
684.37	6.69
684.4	2.69
684.43	12.69
684.46	5.69
684.49	6.69
684.52	5.69
684.55	16.69
684.58	0.69
684.61	-7.31
684.64	-20.31
684.67	14.69
684.7	3.69
684.73	10.69
684.76	-2.31
684.79	14.69
684.82	14.69
684.85	-9.31
684.88	-2.31
684.91	-8.31
684.94	-17.31
684.97	-16.31
685	5.69
685.03	-4.31
685.06	0.69
685.09	-0.31
685.12	10.69
685.15	-9.31
685.18	18.69
685.21	-6.31
685.24	-0.31
685.27	-9.31
685.3	-14.31
685.33	-2.31
685.36	-18.31
685.39	-11.31
685.42	-19.31
685.45	-2.31
685.48	2.69
685.51	10.69
685.54	29.69
685.569	10.69
685.599	-2.31
685.629	5.69
685.659	5.69
685.689	4.69
685.719	3.69
685.749	-1.31
685.779	13.69
685.809	-0.31
685.839	5.69
685.869	-3.31
685.898	8.69
685.928	1.69
685.958	-4.31
685.988	18.69
686.018	0.69
686.048	-9.31
686.078	7.69
686.108	22.69
686.137	-7.31
686.167	7.69
686.197	-25.31
686.227	0.69
686.257	30.69
686.287	18.69
686.317	0.69
686.346	-4.31
686.376	-10.31
686.406	-2.31
686.436	-3.31
686.466	1.69
686.496	5.69
686.525	3.69
686.555	20.69
686.585	8.69
686.615	20.69
686.645	4.69
686.675	-3.31
686.704	7.69
686.734	10.69
686.764	0.69
686.794	2.69
686.824	-10.31
686.853	10.69
686.883	18.69
686.913	6.69
686.943	-0.31
686.973	-10.31
687.002	2.69
687.032	-5.31
687.062	-0.31
687.092	14.69
687.121	8.69
687.151	-1.31
687.181	3.69
687.211	6.69
687.24	-6.31
687.27	-1.31
687.3	-9.31
687.33	-1.31
687.359	-4.31
687.389	-6.31
687.419	1.69
687.449	1.69
687.478	5.69
687.508	4.69
687.538	-0.31
687.568	6.69
687.597	-4.31
687.627	18.69
687.657	13.69
687.686	15.69
687.716	26.69
687.746	-14.31
687.776	-16.31
687.805	-3.31
687.835	0.69
687.865	28.69
687.894	4.69
687.924	-6.31
687.954	3.69
687.983	0.69
688.013	11.69
688.043	24.69
688.072	3.69
688.102	2.69
688.132	-5.31
688.161	-1.31
688.191	-11.31
688.221	28.69
688.25	-7.31
688.28	7.69
688.31	0.69
688.339	5.69
688.369	-8.31
688.399	0.69
688.428	4.69
688.458	14.69
688.488	4.69
688.517	4.69
688.547	-9.31
688.576	20.69
688.606	7.69
688.636	5.69
688.665	-2.31
688.695	0.69
688.725	15.69
688.754	-7.31
688.784	18.69
688.813	19.69
688.843	-14.31
688.873	-14.31
688.902	-6.31
688.932	-0.31
688.961	9.69
688.991	20.69
689.02	27.69
689.05	0.69
689.08	8.69
689.109	21.69
689.139	0.69
689.168	-8.31
689.198	-4.31
689.227	12.69
689.257	17.69
689.287	20.69
689.316	-7.31
689.346	-18.31
689.375	-17.31
689.405	0.69
689.434	5.69
689.464	3.69
689.493	-10.31
689.523	-9.31
689.552	-6.31
689.582	2.69
689.611	-3.31
689.641	13.69
689.67	9.69
689.7	5.69
689.73	13.69
689.759	3.69
689.789	11.69
689.818	2.69
689.848	5.69
689.877	6.69
689.906	-13.31
689.936	-11.31
689.965	11.69
689.995	-7.31
690.024	6.69
690.054	5.69
690.083	1.69
690.113	10.69
690.142	-3.31
690.172	6.69
690.201	15.69
690.231	-10.31
690.26	9.69
690.29	10.69
690.319	16.69
690.348	4.69
690.378	19.69
690.407	1.69
690.437	-4.31
690.466	8.69
690.496	0.69
690.525	8.69
690.555	-2.31
690.584	4.69
690.613	5.69
690.643	15.69
690.672	15.69
690.702	20.69
690.731	0.69
690.76	18.69
690.79	13.69
690.819	4.69
690.849	-0.31
690.878	-5.31
690.907	-4.31
690.937	7.69
690.966	17.69
690.996	-22.31
691.025	-1.31
691.054	-0.31
691.084	0.69
691.113	22.69
691.142	7.69
691.172	22.69
691.201	16.69
691.23	12.69
691.26	7.69
691.289	13.69
691.319	2.69
691.348	-0.31
691.377	15.69
691.407	14.69
691.436	13.69
691.465	-9.31
691.495	-16.31
691.524	-12.31
691.553	-14.31
691.583	-5.31
691.612	20.69
691.641	-0.31
691.67	-14.31
691.7	-13.31
691.729	-0.31
691.758	8.69
691.788	16.69
691.817	-2.31
691.846	-7.31
691.876	-8.31
691.905	-5.31
691.934	2.69
691.963	7.69
691.993	13.69
692.022	-12.31
692.051	0.69
692.081	-3.31
692.11	23.69
692.139	-3.31
692.168	14.69
692.198	15.69
692.227	9.69
692.256	5.69
692.285	2.69
692.315	-9.31
692.344	-0.31
692.373	1.69
692.402	-16.31
692.432	-0.31
692.461	4.69
692.49	17.69
692.519	3.69
692.548	23.69
692.578	18.69
692.607	1.69
692.636	-19.31
692.665	-2.31
692.694	7.69
692.724	-5.31
692.753	28.69
692.782	13.69
692.811	4.69
692.84	3.69
692.87	-0.31
692.899	-4.31
692.928	-7.31
692.957	15.69
692.986	2.69
693.016	-3.31
693.045	0.69
693.074	8.69
693.103	9.69
693.132	13.69
693.161	14.69
693.191	8.69
693.22	-4.31
693.249	-1.31
693.278	0.69
693.307	9.69
693.336	-12.31
693.365	-3.31
693.395	6.69
693.424	5.69
693.453	10.69
693.482	-1.31
693.511	23.69
693.54	4.69
693.569	5.69
693.598	-5.31
693.628	15.69
693.657	9.69
693.686	18.69
693.715	26.69
693.744	14.69
693.773	19.69
693.802	17.69
693.831	5.69
693.86	-2.31
693.889	1.69
693.919	-3.31
693.948	-0.31
693.977	8.69
694.006	3.69
694.035	10.69
694.064	-4.31
694.093	-0.31
694.122	-2.31
694.151	-7.31
694.18	3.69
694.209	11.69
694.238	10.69
694.267	19.69
694.296	15.69
694.325	8.69
694.354	17.69
694.383	8.69
694.412	10.69
694.441	-0.31
694.471	-3.31
694.5	-7.31
694.529	3.69
694.558	15.69
694.587	1.69
694.616	-4.31
694.645	5.69
694.674	25.69
694.703	10.69
694.732	12.69
694.761	16.69
694.79	16.69
694.819	-10.31
694.848	8.69
694.877	3.69
694.906	21.69
694.935	-3.31
694.963	4.69
694.992	-9.31
695.021	2.69
695.05	12.69
695.079	6.69
695.108	-5.31
695.137	16.69
695.166	20.69
695.195	-15.31
695.224	5.69
695.253	8.69
695.282	12.69
695.311	11.69
695.34	23.69
695.369	8.69
695.398	21.69
695.427	13.69
695.456	8.69
695.485	5.69
695.513	10.69
695.542	8.69
695.571	-3.31
695.6	1.69
695.629	3.69
695.658	5.69
695.687	4.69
695.716	8.69
695.745	9.69
695.774	-4.31
695.802	-22.31
695.831	-1.31
695.86	8.69
695.889	11.69
695.918	-3.31
695.947	5.69
695.976	1.69
696.005	12.69
696.033	6.69
696.062	15.69
696.091	9.69
696.12	12.69
696.149	8.69
696.178	6.69
696.207	-7.31
696.235	-4.31
696.264	1.69
696.293	1.69
696.322	8.69
696.351	18.69
696.38	1.69
696.408	-7.31
696.437	-5.31
696.466	5.69
696.495	24.69
696.524	9.69
696.553	-0.31
696.581	2.69
696.61	-4.31
696.639	-10.31
696.668	-0.31
696.697	-7.31
696.725	3.69
696.754	13.69
696.783	6.69
696.812	-15.31
696.84	15.69
696.869	6.69
696.898	-2.31
696.927	-8.31
696.956	9.69
696.984	3.69
697.013	3.69
697.042	6.69
697.071	7.69
697.099	29.69
697.128	10.69
697.157	7.69
697.186	-3.31
697.214	10.69
697.243	-6.31
697.272	10.69
697.301	4.69
697.329	11.69
697.358	7.69
697.387	23.69
697.415	22.69
697.444	10.69
697.473	0.69
697.502	-21.31
697.53	1.69
697.559	11.69
697.588	16.69
697.616	0.69
697.645	-7.31
697.674	21.69
697.703	7.69
697.731	-0.31
697.76	6.69
697.789	-4.31
697.817	16.69
697.846	14.69
697.875	7.69
697.903	4.69
697.932	15.69
697.961	-0.31
697.989	-2.31
698.018	7.69
698.047	9.69
698.075	21.69
698.104	-3.31
698.133	1.69
698.161	1.69
698.19	6.69
698.218	-17.31
698.247	-2.31
698.276	10.69
698.304	15.69
698.333	7.69
698.362	11.69
698.39	-1.31
698.419	20.69
698.447	6.69
698.476	-1.31
698.505	22.69
698.533	7.69
698.562	11.69
698.591	8.69
698.619	-1.31
698.648	9.69
698.676	12.69
698.705	10.69
698.733	-11.31
698.762	13.69
698.791	-6.31
698.819	0.69
698.848	-7.31
698.876	11.69
698.905	8.69
698.933	-0.31
698.962	2.69
698.991	-1.31
699.019	14.69
699.048	-1.31
699.076	17.69
699.105	-23.31
699.133	-10.31
699.162	3.69
699.19	13.69
699.219	4.69
699.248	-2.31
699.276	5.69
699.305	-18.31
699.333	18.69
699.362	-7.31
699.39	19.69
699.419	-14.31
699.447	7.69
699.476	16.69
699.504	-1.31
699.533	12.69
699.561	-5.31
699.59	11.69
699.618	-3.31
699.647	-11.31
699.675	4.69
699.704	15.69
699.732	4.69
699.761	13.69
699.789	-8.31
699.818	3.69
699.846	3.69
699.874	3.69
699.903	21.69
699.931	6.69
699.96	18.69
699.988	5.69
700.017	15.69
700.045	8.69
700.074	-11.31
700.102	1.69
700.13	2.69
700.159	4.69
700.187	15.69
700.216	10.69
700.244	-4.31
700.273	-10.31
700.301	4.69
700.329	13.69
700.358	4.69
700.386	10.69
700.415	-14.31
700.443	0.69
700.472	4.69
700.5	3.69
700.528	9.69
700.557	0.69
700.585	-6.31
700.614	3.69
700.642	13.69
700.67	24.69
700.699	13.69
700.727	13.69
700.755	-2.31
700.784	-4.31
700.812	3.69
700.841	15.69
700.869	-0.31
700.897	-14.31
700.926	-3.31
700.954	-4.31
700.982	0.69
701.011	1.69
701.039	-1.31
701.067	-11.31
701.096	1.69
701.124	-18.31
701.152	-0.31
701.181	7.69
701.209	-10.31
701.237	-8.31
701.266	-8.31
701.294	-10.31
701.322	11.69
701.351	9.69
701.379	9.69
701.407	-7.31
701.435	12.69
701.464	17.69
701.492	13.69
701.52	8.69
701.549	-9.31
701.577	-12.31
701.605	-1.31
701.634	9.69
701.662	9.69
701.69	-15.31
701.718	-2.31
701.747	22.69
701.775	-7.31
701.803	3.69
701.831	15.69
701.86	-6.31
701.888	-0.31
701.916	-10.31
701.944	-7.31
701.973	-2.31
702.001	-8.31
702.029	4.69
702.057	-12.31
702.086	-11.31
702.114	1.69
702.142	14.69
702.17	-3.31
702.199	8.69
702.227	6.69
702.255	3.69
702.283	-13.31
702.311	15.69
702.34	-1.31
702.368	-4.31
702.396	-1.31
702.424	-14.31
702.452	7.69
702.481	3.69
702.509	-2.31
702.537	3.69
702.565	-4.31
702.593	-7.31
702.621	4.69
702.65	21.69
702.678	7.69
702.706	19.69
702.734	-0.31
702.762	8.69
702.79	5.69
702.819	5.69
702.847	3.69
702.875	17.69
702.903	2.69
702.931	-8.31
702.959	3.69
702.988	-4.31
703.016	-11.31
703.044	-10.31
703.072	-7.31
703.1	-12.31
703.128	-3.31
703.156	9.69
703.184	-6.31
703.212	12.69
703.241	1.69
703.269	0.69
703.297	5.69
703.325	11.69
703.353	-2.31
703.381	-8.31
703.409	2.69
703.437	-3.31
703.465	-4.31
703.493	-1.31
703.522	12.69
703.55	4.69
703.578	-1.31
703.606	-13.31
703.634	10.69
703.662	-7.31
703.69	-12.31
703.718	-0.31
703.746	14.69
703.774	10.69
703.802	17.69
703.83	-2.31
703.858	-12.31
703.886	-21.31
703.914	-11.31
703.942	20.69
703.97	6.69
703.998	-0.31
704.027	23.69
704.055	7.69
704.083	0.69
704.111	-8.31
704.139	-9.31
704.167	-3.31
704.195	-20.31
704.223	-3.31
704.251	8.69
704.279	5.69
704.307	0.69
704.335	7.69
704.363	-10.31
704.391	-0.31
704.419	1.69
704.447	-2.31
704.475	-8.31
704.503	-5.31
704.531	11.69
704.558	1.69
704.586	12.69
704.614	-6.31
704.642	3.69
704.67	-7.31
704.698	7.69
704.726	13.69
704.754	-12.31
704.782	-7.31
704.81	5.69
704.838	13.69
704.866	0.69
704.894	-17.31
704.922	-3.31
704.95	3.69
704.978	27.69
705.006	15.69
705.034	23.69
705.061	1.69
705.089	-5.31
705.117	-17.31
705.145	-3.31
705.173	-2.31
705.201	2.69
705.229	9.69
705.257	13.69
705.285	4.69
705.313	-6.31
705.34	-7.31
705.368	-12.31
705.396	5.69
705.424	0.69
705.452	-1.31
705.48	-2.31
705.508	6.69
705.536	-9.31
705.563	-2.31
705.591	6.69
705.619	-1.31
705.647	-7.31
705.675	-2.31
705.703	-2.31
705.731	6.69
705.758	-2.31
705.786	-3.31
705.814	14.69
705.842	12.69
705.87	23.69
705.898	15.69
705.925	1.69
705.953	7.69
705.981	12.69
706.009	6.69
706.037	13.69
706.065	-3.31
706.092	-18.31
706.12	3.69
706.148	-19.31
706.176	-6.31
706.204	3.69
706.231	5.69
706.259	-7.31
706.287	-1.31
706.315	1.69
706.342	0.69
706.37	12.69
706.398	19.69
706.426	-2.31
706.454	1.69
706.481	13.69
706.509	4.69
706.537	4.69
706.565	-24.31
706.592	8.69
706.62	2.69
706.648	8.69
706.676	0.69
706.703	-3.31
706.731	0.69
706.759	-9.31
706.787	3.69
706.814	11.69
706.842	4.69
706.87	0.69
706.897	-2.31
706.925	-5.31
706.953	0.69
706.981	14.69
707.008	10.69
707.036	7.69
707.064	7.69
707.091	-3.31
707.119	0.69
707.147	-14.31
707.174	-15.31
707.202	-3.31
707.23	4.69
707.258	12.69
707.285	2.69
707.313	1.69
707.341	-22.31
707.368	-10.31
707.396	-0.31
707.424	23.69
707.451	13.69
707.479	0.69
707.507	-4.31
707.534	-3.31
707.562	-0.31
707.59	-2.31
707.617	1.69
707.645	8.69
707.672	0.69
707.7	6.69
707.728	-9.31
707.755	4.69
707.783	0.69
707.811	10.69
707.838	-17.31
707.866	12.69
707.893	-4.31
707.921	-10.31
707.949	-4.31
707.976	-0.31
708.004	7.69
708.031	2.69
708.059	-7.31
708.087	4.69
708.114	-0.31
708.142	-4.31
708.169	0.69
708.197	-3.31
708.225	-0.31
708.252	-6.31
708.28	9.69
708.307	-14.31
708.335	-4.31
708.362	-8.31
708.39	-7.31
708.418	1.69
708.445	-5.31
708.473	-6.31
708.5	1.69
708.528	-3.31
708.555	10.69
708.583	-1.31
708.61	4.69
708.638	-5.31
708.665	-11.31
708.693	-7.31
708.72	-2.31
708.748	-8.31
708.776	5.69
708.803	23.69
708.831	15.69
708.858	10.69
708.886	-11.31
708.913	0.69
708.941	-0.31
708.968	0.69
708.996	-8.31
709.023	34.69
709.051	2.69
709.078	-8.31
709.105	-10.31
709.133	-10.31
709.16	-3.31
709.188	4.69
709.215	-0.31
709.243	1.69
709.27	-6.31
709.298	6.69
709.325	-9.31
709.353	-3.31
709.38	12.69
709.408	12.69
709.435	8.69
709.462	-3.31
709.49	3.69
709.517	1.69
709.545	1.69
709.572	-3.31
709.6	3.69
709.627	4.69
709.655	-3.31
709.682	-1.31
709.709	-0.31
709.737	-1.31
709.764	3.69
709.792	8.69
709.819	1.69
709.846	8.69
709.874	19.69
709.901	8.69
709.929	8.69
709.956	21.69
709.983	3.69
710.011	15.69
710.038	-2.31
710.066	15.69
710.093	19.69
710.12	13.69
710.148	-7.31
710.175	-2.31
710.202	-4.31
710.23	2.69
710.257	0.69
710.284	11.69
710.312	1.69
710.339	-4.31
710.366	3.69
710.394	-6.31
710.421	12.69
710.448	-0.31
710.476	-6.31
710.503	-8.31
710.53	14.69
710.558	18.69
710.585	20.69
710.612	0.69
710.64	-11.31
710.667	0.69
710.694	3.69
710.722	0.69
710.749	3.69
710.776	5.69
710.804	8.69
710.831	1.69
710.858	4.69
710.885	11.69
710.913	1.69
710.94	15.69
710.967	7.69
710.995	10.69
711.022	-3.31
711.049	0.69
711.076	-6.31
711.104	-7.31
711.131	-17.31
711.158	0.69
711.185	8.69
711.213	-7.31
711.24	-11.31
711.267	1.69
711.294	-1.31
711.322	7.69
711.349	-20.31
711.376	0.69
711.403	3.69
711.431	-6.31
711.458	2.69
711.485	0.69
711.512	4.69
711.54	-0.31
711.567	-1.31
711.594	4.69
711.621	1.69
711.648	14.69
711.676	7.69
711.703	-2.31
711.73	-3.31
711.757	-2.31
711.784	-1.31
711.812	9.69
711.839	12.69
711.866	-8.31
711.893	-4.31
711.92	9.69
711.947	19.69
711.975	27.69
712.002	3.69
712.029	9.69
712.056	0.69
712.083	7.69
712.11	-10.31
712.138	3.69
712.165	-5.31
712.192	-9.31
712.219	-7.31
712.246	-3.31
712.273	-9.31
712.3	-11.31
712.328	2.69
712.355	10.69
712.382	-8.31
712.409	-0.31
712.436	-10.31
712.463	15.69
712.49	9.69
712.517	2.69
712.544	-1.31
712.572	4.69
712.599	9.69
712.626	9.69
712.653	0.69
712.68	-3.31
712.707	10.69
712.734	8.69
712.761	0.69
712.788	3.69
712.815	-9.31
712.842	7.69
712.87	0.69
712.897	-15.31
712.924	-9.31
712.951	18.69
712.978	15.69
713.005	10.69
713.032	11.69
713.059	-21.31
713.086	0.69
713.113	-4.31
713.14	-19.31
713.167	-6.31
713.194	7.69
713.221	6.69
713.248	14.69
713.275	-4.31
713.302	1.69
713.329	-2.31
713.356	9.69
713.383	-5.31
713.41	-2.31
713.437	-14.31
713.464	3.69
713.491	9.69
713.518	5.69
713.545	4.69
713.572	-4.31
713.599	32.69
713.626	11.69
713.653	7.69
713.68	-6.31
713.707	5.69
713.734	8.69
713.761	-2.31
713.788	-3.31
713.815	7.69
713.842	-11.31
713.869	-11.31
713.896	-4.31
713.923	4.69
713.95	-3.31
713.977	13.69
714.004	4.69
714.031	6.69
714.058	5.69
714.085	5.69
714.112	14.69
714.139	13.69
714.165	2.69
714.192	-6.31
714.219	6.69
714.246	4.69
714.273	5.69
714.3	1.69
714.327	-8.31
714.354	-3.31
714.381	3.69
714.408	11.69
714.435	-7.31
714.461	-12.31
714.488	-3.31
714.515	-6.31
714.542	-15.31
714.569	-12.31
714.596	-16.31
714.623	0.69
714.65	-4.31
714.677	-3.31
714.703	-6.31
714.73	5.69
714.757	13.69
714.784	-5.31
714.811	-18.31
714.838	-11.31
714.865	-5.31
714.891	-0.31
714.918	-10.31
714.945	-11.31
714.972	-5.31
714.999	11.69
715.026	0.69
715.052	17.69
715.079	-7.31
715.106	7.69
715.133	-6.31
715.16	-4.31
715.187	19.69
715.213	21.69
715.24	-0.31
715.267	-8.31
715.294	-8.31
715.321	-2.31
715.347	1.69
715.374	-11.31
715.401	-0.31
715.428	4.69
715.455	-6.31
715.481	-10.31
715.508	8.69
715.535	2.69
715.562	13.69
715.588	9.69
715.615	6.69
715.642	9.69
715.669	8.69
715.695	11.69
715.722	-5.31
715.749	-4.31
715.776	16.69
715.802	7.69
715.829	-1.31
715.856	-1.31
715.883	7.69
715.909	-7.31
715.936	3.69
715.963	-0.31
715.99	-2.31
716.016	6.69
716.043	8.69
716.07	-11.31
716.096	-9.31
716.123	-4.31
716.15	-0.31
716.177	12.69
716.203	22.69
716.23	10.69
716.257	-5.31
716.283	14.69
716.31	20.69
716.337	-2.31
716.363	15.69
716.39	-0.31
716.417	7.69
716.443	4.69
716.47	17.69
716.497	16.69
716.523	12.69
716.55	-0.31
716.577	6.69
716.603	1.69
716.63	0.69
716.657	5.69
716.683	-8.31
716.71	-12.31
716.737	-10.31
716.763	10.69
716.79	3.69
716.817	0.69
716.843	-12.31
716.87	4.69
716.897	12.69
716.923	23.69
716.95	-2.31
716.976	-18.31
717.003	-15.31
717.03	8.69
717.056	-3.31
717.083	-3.31
717.109	-1.31
717.136	16.69
717.163	-21.31
717.189	0.69
717.216	-0.31
717.242	2.69
717.269	2.69
717.296	11.69
717.322	5.69
717.349	16.69
717.375	24.69
717.402	5.69
717.428	-8.31
717.455	-7.31
717.481	12.69
717.508	10.69
717.535	-2.31
717.561	-0.31
717.588	-8.31
717.614	7.69
717.641	1.69
717.667	-0.31
717.694	4.69
717.72	12.69
717.747	-6.31
717.773	-21.31
717.8	5.69
717.826	2.69
717.853	-3.31
717.88	11.69
717.906	9.69
717.933	3.69
717.959	8.69
717.986	0.69
718.012	11.69
718.039	6.69
718.065	-1.31
718.092	-0.31
718.118	1.69
718.144	-9.31
718.171	1.69
718.197	14.69
718.224	-4.31
718.25	7.69
718.277	11.69
718.303	1.69
718.33	0.69
718.356	-10.31
718.383	11.69
718.409	12.69
718.436	0.69
718.462	-14.31
718.489	-6.31
718.515	6.69
718.541	5.69
718.568	-9.31
718.594	0.69
718.621	7.69
718.647	11.69
718.674	9.69
718.7	14.69
718.726	6.69
718.753	8.69
718.779	11.69
718.806	3.69
718.832	-8.31
718.858	-9.31
718.885	5.69
718.911	17.69
718.938	12.69
718.964	-6.31
718.99	3.69
719.017	-7.31
719.043	-7.31
719.07	20.69
719.096	-6.31
719.122	8.69
719.149	-0.31
719.175	4.69
719.201	0.69
719.228	6.69
719.254	11.69
719.281	-0.31
719.307	-1.31
719.333	-16.31
719.36	-0.31
719.386	-0.31
719.412	3.69
719.439	-5.31
719.465	-5.31
719.491	-12.31
719.518	16.69
719.544	5.69
719.57	16.69
719.597	1.69
719.623	3.69
719.649	11.69
719.675	5.69
719.702	-9.31
719.728	10.69
719.754	-9.31
719.781	-0.31
719.807	-9.31
719.833	-12.31
719.86	15.69
719.886	20.69
719.912	30.69
719.938	12.69
719.965	10.69
719.991	13.69
720.017	11.69
720.044	-11.31
720.07	-0.31
720.096	2.69
720.122	5.69
720.149	-3.31
720.175	12.69
720.201	8.69
720.227	4.69
720.254	-4.31
720.28	1.69
720.306	-12.31
720.332	0.69
720.359	-7.31
720.385	8.69
720.411	8.69
720.437	8.69
720.463	7.69
720.49	6.69
720.516	3.69
720.542	-15.31
720.568	3.69
720.595	0.69
720.621	0.69
720.647	-5.31
720.673	14.69
720.699	5.69
720.725	4.69
720.752	17.69
720.778	2.69
720.804	7.69
720.83	12.69
720.856	-10.31
720.883	-15.31
720.909	3.69
720.935	16.69
720.961	20.69
720.987	-2.31
721.013	8.69
721.04	-11.31
721.066	-11.31
721.092	7.69
721.118	5.69
721.144	6.69
721.17	-9.31
721.196	11.69
721.223	-7.31
721.249	-18.31
721.275	17.69
721.301	-0.31
721.327	9.69
721.353	-2.31
721.379	-10.31
721.405	-0.31
721.432	10.69
721.458	-11.31
721.484	7.69
721.51	-9.31
721.536	0.69
721.562	-2.31
721.588	6.69
721.614	-6.31
721.64	-8.31
721.666	-4.31
721.693	0.69
721.719	3.69
721.745	-13.31
721.771	-6.31
721.797	5.69
721.823	11.69
721.849	21.69
721.875	14.69
721.901	17.69
721.927	-6.31
721.953	3.69
721.979	16.69
722.005	5.69
722.031	-7.31
722.057	11.69
722.083	0.69
722.109	-2.31
722.135	18.69
722.161	21.69
722.187	8.69
722.214	5.69
722.24	-1.31
722.266	-4.31
722.292	14.69
722.318	-2.31
722.344	-0.31
722.37	13.69
722.396	4.69
722.422	3.69
722.448	12.69
722.474	-12.31
722.5	4.69
722.526	1.69
722.552	-3.31
722.578	0.69
722.603	12.69
722.629	-4.31
722.655	4.69
722.681	-19.31
722.707	1.69
722.733	-2.31
722.759	-2.31
722.785	7.69
722.811	6.69
722.837	17.69
722.863	4.69
722.889	11.69
722.915	11.69
722.941	-3.31
722.967	-7.31
722.993	-2.31
723.019	-8.31
723.045	11.69
723.071	0.69
723.097	11.69
723.122	4.69
723.148	3.69
723.174	8.69
723.2	0.69
723.226	16.69
723.252	12.69
723.278	-1.31
723.304	-5.31
723.33	16.69
723.356	4.69
723.381	-5.31
723.407	-14.31
723.433	10.69
723.459	-10.31
723.485	1.69
723.511	6.69
723.537	-4.31
723.563	1.69
723.588	2.69
723.614	13.69
723.64	13.69
723.666	3.69
723.692	11.69
723.718	1.69
723.744	-2.31
723.769	-1.31
723.795	-5.31
723.821	1.69
723.847	4.69
723.873	12.69
723.899	21.69
723.924	2.69
723.95	-0.31
723.976	-5.31
724.002	8.69
724.028	10.69
724.053	8.69
724.079	-0.31
724.105	9.69
724.131	6.69
724.157	13.69
724.182	13.69
724.208	3.69
724.234	3.69
724.26	-0.31
724.286	17.69
724.311	6.69
724.337	-7.31
724.363	-11.31
724.389	14.69
724.415	3.69
724.44	7.69
724.466	-6.31
724.492	-0.31
724.518	3.69
724.543	-5.31
724.569	3.69
724.595	8.69
724.621	-3.31
724.646	-12.31
724.672	-4.31
724.698	-6.31
724.723	-7.31
724.749	8.69
724.775	13.69
724.801	17.69
724.826	5.69
724.852	-12.31
724.878	-3.31
724.904	-22.31
724.929	-10.31
724.955	-0.31
724.981	-2.31
725.006	0.69
725.032	0.69
725.058	29.69
725.083	4.69
725.109	-2.31
725.135	5.69
725.161	5.69
725.186	-3.31
725.212	-2.31
725.238	13.69
725.263	1.69
725.289	-14.31
725.315	-14.31
725.34	-15.31
725.366	10.69
725.392	20.69
725.417	0.69
725.443	-8.31
725.468	-11.31
725.494	3.69
725.52	0.69
725.545	0.69
725.571	-8.31
725.597	-6.31
725.622	7.69
725.648	-1.31
725.674	1.69
725.699	2.69
725.725	3.69
725.75	9.69
725.776	-0.31
725.802	-0.31
725.827	-0.31
725.853	-1.31
725.878	9.69
725.904	-11.31
725.93	-8.31
725.955	-18.31
725.981	-4.31
726.006	-1.31
726.032	7.69
726.057	-9.31
726.083	11.69
726.109	15.69
726.134	11.69
726.16	0.69
726.185	-7.31
726.211	-12.31
726.236	7.69
726.262	13.69
726.288	12.69
726.313	22.69
726.339	4.69
726.364	9.69
726.39	15.69
726.415	2.69
726.441	-11.31
726.466	2.69
726.492	-8.31
726.517	3.69
726.543	5.69
726.568	-11.31
726.594	6.69
726.619	9.69
726.645	6.69
726.67	16.69
726.696	3.69
726.721	13.69
726.747	-3.31
726.772	-0.31
726.798	0.69
726.823	6.69
726.849	6.69
726.874	-3.31
726.9	10.69
726.925	6.69
726.951	-4.31
726.976	-1.31
727.002	-4.31
727.027	15.69
727.053	19.69
727.078	-3.31
727.104	8.69
727.129	-14.31
727.155	-18.31
727.18	19.69
727.205	9.69
727.231	-2.31
727.256	-1.31
727.282	2.69
727.307	-6.31
727.333	9.69
727.358	2.69
727.383	4.69
727.409	-17.31
727.434	-0.31
727.46	-4.31
727.485	11.69
727.511	18.69
727.536	-11.31
727.561	0.69
727.587	7.69
727.612	17.69
727.637	3.69
727.663	1.69
727.688	17.69
727.714	-12.31
727.739	1.69
727.764	0.69
727.79	5.69
727.815	8.69
727.841	7.69
727.866	0.69
727.891	-1.31
727.917	-8.31
727.942	-8.31
727.967	-19.31
727.993	-12.31
728.018	12.69
728.043	10.69
728.069	12.69
728.094	8.69
728.119	5.69
728.145	12.69
728.17	9.69
728.195	-9.31
728.221	-0.31
728.246	0.69
728.271	-6.31
728.297	0.69
728.322	16.69
728.347	12.69
728.373	0.69
728.398	3.69
728.423	-9.31
728.448	8.69
728.474	-0.31
728.499	12.69
728.524	-22.31
728.55	-2.31
728.575	-12.31
728.6	-0.31
728.625	-4.31
728.651	3.69
728.676	1.69
728.701	-1.31
728.727	3.69
728.752	0.69
728.777	-1.31
728.802	3.69
728.828	13.69
728.853	-12.31
728.878	-12.31
728.903	-11.31
728.929	-4.31
728.954	0.69
728.979	15.69
729.004	5.69
729.03	0.69
729.055	5.69
729.08	-16.31
729.105	-10.31
729.13	7.69
729.156	8.69
729.181	-2.31
729.206	-12.31
729.231	4.69
729.256	-2.31
729.282	-9.31
729.307	-4.31
729.332	-4.31
729.357	-12.31
729.382	-2.31
729.408	-15.31
729.433	-11.31
729.458	1.69
729.483	12.69
729.508	9.69
729.533	-11.31
729.559	2.69
729.584	-19.31
729.609	-0.31
729.634	3.69
729.659	0.69
729.684	-17.31
729.71	24.69
729.735	7.69
729.76	14.69
729.785	6.69
729.81	20.69
729.835	4.69
729.86	-0.31
729.886	-0.31
729.911	5.69
729.936	-13.31
729.961	3.69
729.986	-7.31
730.011	-0.31
730.036	-4.31
730.061	-0.31
730.086	7.69
730.112	8.69
730.137	11.69
730.162	7.69
730.187	-4.31
730.212	7.69
730.237	3.69
730.262	-8.31
730.287	-0.31
730.312	8.69
730.337	-11.31
730.362	18.69
730.387	9.69
730.413	1.69
730.438	-14.31
730.463	-10.31
730.488	-12.31
730.513	7.69
730.538	-12.31
730.563	-3.31
730.588	12.69
730.613	13.69
730.638	-6.31
730.663	-6.31
730.688	18.69
730.713	15.69
730.738	-0.31
730.763	-12.31
730.788	-1.31
730.813	11.69
730.838	0.69
730.863	7.69
730.888	-0.31
730.913	-16.31
730.938	-19.31
730.963	-0.31
730.988	1.69
731.013	17.69
731.038	13.69
731.063	11.69
731.088	-0.31
731.113	-6.31
731.138	16.69
731.163	-3.31
731.188	-2.31
731.213	12.69
731.238	12.69
731.263	3.69
731.288	-1.31
731.313	-2.31
731.338	-0.31
731.363	2.69
731.388	7.69
731.413	4.69
731.438	12.69
731.463	6.69
731.487	8.69
731.512	-19.31
731.537	-3.31
731.562	-8.31
731.587	-4.31
731.612	-0.31
731.637	7.69
731.662	2.69
731.687	-1.31
731.712	-22.31
731.737	-7.31
731.762	-6.31
731.786	16.69
731.811	2.69
731.836	-4.31
731.861	-14.31
731.886	-1.31
731.911	-2.31
731.936	8.69
731.961	-10.31
731.986	3.69
732.01	-2.31
732.035	4.69
732.06	17.69
732.085	-6.31
732.11	4.69
732.135	-8.31
732.16	8.69
732.184	16.69
732.209	12.69
732.234	17.69
732.259	-6.31
732.284	17.69
732.309	-6.31
732.334	1.69
732.358	-16.31
732.383	-18.31
732.408	5.69
732.433	4.69
732.458	-16.31
732.482	6.69
732.507	-2.31
732.532	3.69
732.557	7.69
732.582	7.69
732.607	-2.31
732.631	-12.31
732.656	-6.31
732.681	2.69
732.706	9.69
732.73	-5.31
732.755	-17.31
732.78	-8.31
732.805	7.69
732.83	0.69
732.854	-1.31
732.879	-1.31
732.904	7.69
732.929	16.69
732.953	5.69
732.978	4.69
733.003	1.69
733.028	4.69
733.052	14.69
733.077	-2.31
733.102	16.69
733.127	2.69
733.151	-11.31
733.176	5.69
733.201	-8.31
733.226	-10.31
733.25	1.69
733.275	-12.31
733.3	-2.31
733.324	20.69
733.349	0.69
733.374	5.69
733.399	2.69
733.423	-7.31
733.448	-8.31
733.473	0.69
733.497	-6.31
733.522	0.69
733.547	16.69
733.571	3.69
733.596	3.69
733.621	-8.31
733.646	-5.31
733.67	-4.31
733.695	-3.31
733.72	12.69
733.744	13.69
733.769	-2.31
733.794	12.69
733.818	-3.31
733.843	-14.31
733.867	-18.31
733.892	3.69
733.917	-3.31
733.941	-2.31
733.966	-15.31
733.991	-14.31
734.015	-5.31
734.04	4.69
734.065	2.69
734.089	7.69
734.114	-11.31
734.138	3.69
734.163	4.69
734.188	18.69
734.212	5.69
734.237	4.69
734.261	9.69
734.286	7.69
734.311	6.69
734.335	3.69
734.36	-5.31
734.384	-5.31
734.409	-6.31
734.434	-4.31
734.458	-0.31
734.483	-8.31
734.507	10.69
734.532	6.69
734.556	0.69
734.581	0.69
734.606	-18.31
734.63	0.69
734.655	-3.31
734.679	-1.31
734.704	-7.31
734.728	-7.31
734.753	-4.31
734.777	14.69
734.802	5.69
734.826	11.69
734.851	1.69
734.876	1.69
734.9	18.69
734.925	4.69
734.949	7.69
734.974	-5.31
734.998	0.69
735.023	-21.31
735.047	-15.31
735.072	14.69
735.096	5.69
735.121	16.69
735.145	3.69
735.17	21.69
735.194	13.69
735.219	3.69
735.243	0.69
735.268	7.69
735.292	3.69
735.317	-2.31
735.341	-4.31
735.365	-19.31
735.39	10.69
735.414	11.69
735.439	7.69
735.463	-0.31
735.488	13.69
735.512	-6.31
735.537	8.69
735.561	4.69
735.586	-9.31
735.61	3.69
735.634	-8.31
735.659	4.69
735.683	12.69
735.708	-4.31
735.732	-12.31
735.757	4.69
735.781	11.69
735.805	-2.31
735.83	-15.31
735.854	-0.31
735.879	7.69
735.903	7.69
735.927	3.69
735.952	11.69
735.976	-1.31
736.001	3.69
736.025	7.69
736.049	-2.31
736.074	-8.31
736.098	16.69
736.123	3.69
736.147	4.69
736.171	-12.31
736.196	0.69
736.22	-12.31
736.244	-1.31
736.269	-17.31
736.293	-13.31
736.317	0.69
736.342	-4.31
736.366	3.69
736.39	13.69
736.415	3.69
736.439	5.69
736.463	11.69
736.488	-0.31
736.512	1.69
736.536	16.69
736.561	16.69
736.585	2.69
736.609	8.69
736.634	-15.31
736.658	-7.31
736.682	-9.31
736.707	-4.31
736.731	-15.31
736.755	1.69
736.78	21.69
736.804	24.69
736.828	4.69
736.852	-3.31
736.877	3.69
736.901	11.69
736.925	1.69
736.949	-5.31
736.974	-7.31
736.998	-6.31
737.022	-8.31
737.047	-2.31
737.071	-10.31
737.095	22.69
737.119	27.69
737.144	8.69
737.168	-17.31
737.192	5.69
737.216	4.69
737.241	-3.31
737.265	20.69
737.289	13.69
737.313	13.69
737.337	32.69
737.362	15.69
737.386	-0.31
737.41	-4.31
737.434	7.69
737.459	6.69
737.483	21.69
737.507	13.69
737.531	-2.31
737.555	-0.31
737.58	17.69
737.604	3.69
737.628	-14.31
737.652	-10.31
737.676	0.69
737.701	5.69
737.725	-2.31
737.749	1.69
737.773	-6.31
737.797	-16.31
737.821	9.69
737.846	-0.31
737.87	20.69
737.894	4.69
737.918	-5.31
737.942	-0.31
737.966	25.69
737.99	10.69
738.015	-0.31
738.039	4.69
738.063	-7.31
738.087	14.69
738.111	0.69
738.135	-0.31
738.159	-7.31
738.184	0.69
738.208	3.69
738.232	13.69
738.256	12.69
738.28	6.69
738.304	24.69
738.328	-2.31
738.352	-0.31
738.376	-5.31
738.4	0.69
738.425	1.69
738.449	-1.31
738.473	12.69
738.497	20.69
738.521	7.69
738.545	-1.31
738.569	-4.31
738.593	12.69
738.617	-0.31
738.641	5.69
738.665	0.69
738.689	5.69
738.713	0.69
738.737	12.69
738.762	-2.31
738.786	8.69
738.81	-3.31
738.834	13.69
738.858	-9.31
738.882	-6.31
738.906	-3.31
738.93	5.69
738.954	1.69
738.978	-0.31
739.002	-4.31
739.026	13.69
739.05	10.69
739.074	-1.31
739.098	15.69
739.122	35.69
739.146	7.69
739.17	12.69
739.194	7.69
739.218	4.69
739.242	-4.31
739.266	-2.31
739.29	8.69
739.314	10.69
739.338	-1.31
739.362	-4.31
739.386	1.69
739.41	-7.31
739.434	-9.31
739.458	8.69
739.482	8.69
739.506	12.69
739.53	7.69
739.554	0.69
739.577	-5.31
739.601	16.69
739.625	9.69
739.649	12.69
739.673	-4.31
739.697	10.69
739.721	12.69
739.745	13.69
739.769	4.69
739.793	4.69
739.817	4.69
739.841	-7.31
739.865	-6.31
739.889	4.69
739.912	24.69
739.936	0.69
739.96	-4.31
739.984	8.69
740.008	8.69
740.032	1.69
740.056	6.69
740.08	-7.31
740.104	-2.31
740.127	1.69
740.151	15.69
740.175	16.69
740.199	15.69
740.223	44.69
740.247	-0.31
740.271	3.69
740.295	-10.31
740.318	-7.31
740.342	-0.31
740.366	-0.31
740.39	11.69
740.414	8.69
740.438	-0.31
740.461	23.69
740.485	17.69
740.509	-3.31
740.533	3.69
740.557	6.69
740.581	3.69
740.604	-4.31
740.628	-5.31
740.652	-2.31
740.676	-7.31
740.7	6.69
740.723	-3.31
740.747	0.69
740.771	-5.31
740.795	0.69
740.819	14.69
740.842	13.69
740.866	9.69
740.89	14.69
740.914	2.69
740.938	-10.31
740.961	15.69
740.985	-3.31
741.009	-5.31
741.033	-2.31
741.056	7.69
741.08	19.69
741.104	7.69
741.128	9.69
741.151	12.69
741.175	1.69
741.199	-3.31
741.223	7.69
741.246	-0.31
741.27	1.69
741.294	15.69
741.318	0.69
741.341	-18.31
741.365	3.69
741.389	9.69
741.413	0.69
741.436	12.69
741.46	7.69
741.484	21.69
741.507	9.69
741.531	27.69
741.555	12.69
741.579	14.69
741.602	-1.31
741.626	14.69
741.65	5.69
741.673	-5.31
741.697	5.69
741.721	-0.31
741.744	-17.31
741.768	0.69
741.792	9.69
741.815	3.69
741.839	20.69
741.863	10.69
741.886	10.69
741.91	18.69
741.934	-6.31
741.957	-9.31
741.981	3.69
742.005	6.69
742.028	-1.31
742.052	-0.31
742.075	1.69
742.099	4.69
742.123	-2.31
742.146	7.69
742.17	4.69
742.194	3.69
742.217	-12.31
742.241	-2.31
742.264	-7.31
742.288	19.69
742.312	-3.31
742.335	0.69
742.359	3.69
742.382	13.69
742.406	1.69
742.43	-1.31
742.453	4.69
742.477	4.69
742.5	1.69
742.524	-12.31
742.548	-4.31
742.571	0.69
742.595	2.69
742.618	-16.31
742.642	0.69
742.665	0.69
742.689	-12.31
742.712	8.69
742.736	-14.31
742.76	-5.31
742.783	2.69
742.807	17.69
742.83	15.69
742.854	-1.31
742.877	0.69
742.901	10.69
742.924	5.69
742.948	-11.31
742.971	5.69
742.995	0.69
743.018	-10.31
743.042	-1.31
743.065	-1.31
743.089	-4.31
743.112	7.69
743.136	-5.31
743.159	5.69
743.183	0.69
743.206	10.69
743.23	4.69
743.253	1.69
743.277	-0.31
743.3	8.69
743.324	11.69
743.347	-10.31
743.371	20.69
743.394	11.69
743.418	18.69
743.441	0.69
743.465	1.69
743.488	13.69
743.512	-2.31
743.535	-1.31
743.558	-10.31
743.582	3.69
743.605	-4.31
743.629	28.69
743.652	9.69
743.676	5.69
743.699	14.69
743.723	4.69
743.746	-6.31
743.769	-0.31
743.793	12.69
743.816	9.69
743.84	17.69
743.863	-3.31
743.886	-1.31
743.91	11.69
743.933	1.69
743.957	11.69
743.98	15.69
744.003	16.69
744.027	1.69
744.05	9.69
744.074	4.69
744.097	5.69
744.12	-0.31
744.144	-4.31
744.167	-2.31
744.19	0.69
744.214	4.69
744.237	-1.31
744.26	12.69
744.284	-8.31
744.307	-6.31
744.331	6.69
744.354	-11.31
744.377	-0.31
744.401	6.69
744.424	0.69
744.447	-3.31
744.471	1.69
