Data from HighRes_H2D2_15_04_11_07_2024_HR4C61891__20__15-05-36-443.txt Node

Date: Thu Nov 07 15:05:36 EST 2024
User: crc00042
Spectrometer: HR4C6189
Trigger mode: 4
Integration Time (sec): 1.000000E-1
Scans to average: 1
Electric dark correction enabled: true
Nonlinearity correction enabled: false
Boxcar width: 0
XAxis mode: Wavelengths
Number of Pixels in Spectrum: 3648
>>>>>Begin Spectral Data<<<<<
639.567	-73.31
639.602	-73.31
639.636	-73.31
639.67	-53.31
639.704	-6.31
639.738	9.69
639.773	8.69
639.807	-12.31
639.841	-0.31
639.875	14.69
639.909	-11.31
639.943	-23.31
639.978	-11.31
640.012	5.69
640.046	15.69
640.08	7.69
640.114	4.69
640.148	-8.31
640.182	-22.31
640.217	-23.31
640.251	4.69
640.285	4.69
640.319	-7.31
640.353	8.69
640.387	8.69
640.421	-8.31
640.455	1.69
640.49	9.69
640.524	0.69
640.558	10.69
640.592	-3.31
640.626	6.69
640.66	-1.31
640.694	-10.31
640.728	4.69
640.762	20.69
640.796	5.69
640.83	3.69
640.865	-11.31
640.899	-5.31
640.933	4.69
640.967	4.69
641.001	6.69
641.035	8.69
641.069	-3.31
641.103	-11.31
641.137	-8.31
641.171	-16.31
641.205	-6.31
641.239	-1.31
641.273	23.69
641.307	19.69
641.341	1.69
641.375	-0.31
641.409	1.69
641.443	-3.31
641.477	-2.31
641.511	2.69
641.545	0.69
641.579	-15.31
641.614	3.69
641.648	9.69
641.682	-11.31
641.716	-1.31
641.75	16.69
641.784	-3.31
641.818	2.69
641.852	8.69
641.886	-2.31
641.919	16.69
641.953	-16.31
641.987	-10.31
642.021	-2.31
642.055	10.69
642.089	4.69
642.123	-17.31
642.157	-14.31
642.191	-10.31
642.225	7.69
642.259	-1.31
642.293	-0.31
642.327	4.69
642.361	-15.31
642.395	3.69
642.429	16.69
642.463	13.69
642.497	27.69
642.531	0.69
642.565	-8.31
642.599	0.69
642.633	-9.31
642.666	0.69
642.7	5.69
642.734	-5.31
642.768	-31.31
642.802	-14.31
642.836	-0.31
642.87	2.69
642.904	-0.31
642.938	4.69
642.972	-1.31
643.005	-5.31
643.039	4.69
643.073	12.69
643.107	8.69
643.141	-13.31
643.175	0.69
643.209	12.69
643.243	-8.31
643.276	-6.31
643.31	2.69
643.344	-8.31
643.378	2.69
643.412	5.69
643.446	5.69
643.48	10.69
643.513	-4.31
643.547	-13.31
643.581	1.69
643.615	15.69
643.649	6.69
643.683	-5.31
643.716	4.69
643.75	8.69
643.784	-23.31
643.818	-15.31
643.852	-16.31
643.886	7.69
643.919	4.69
643.953	-13.31
643.987	0.69
644.021	10.69
644.055	9.69
644.088	-8.31
644.122	-1.31
644.156	-9.31
644.19	-5.31
644.224	-10.31
644.257	-16.31
644.291	9.69
644.325	-4.31
644.359	3.69
644.392	16.69
644.426	27.69
644.46	-0.31
644.494	3.69
644.527	-14.31
644.561	13.69
644.595	-1.31
644.629	-2.31
644.662	-4.31
644.696	17.69
644.73	6.69
644.764	-0.31
644.797	-10.31
644.831	-4.31
644.865	-6.31
644.899	-11.31
644.932	11.69
644.966	-6.31
645	9.69
645.033	4.69
645.067	-2.31
645.101	2.69
645.135	-8.31
645.168	-12.31
645.202	-28.31
645.236	-18.31
645.269	-0.31
645.303	5.69
645.337	-11.31
645.37	3.69
645.404	8.69
645.438	2.69
645.471	-8.31
645.505	-1.31
645.539	-3.31
645.572	-3.31
645.606	6.69
645.64	14.69
645.673	-1.31
645.707	28.69
645.741	1.69
645.774	-4.31
645.808	15.69
645.842	-3.31
645.875	2.69
645.909	-9.31
645.943	-15.31
645.976	4.69
646.01	12.69
646.043	11.69
646.077	13.69
646.111	15.69
646.144	-9.31
646.178	4.69
646.212	-16.31
646.245	-8.31
646.279	-9.31
646.312	9.69
646.346	22.69
646.38	-4.31
646.413	-3.31
646.447	4.69
646.48	4.69
646.514	6.69
646.547	3.69
646.581	-11.31
646.615	-3.31
646.648	-5.31
646.682	-4.31
646.715	-2.31
646.749	-3.31
646.782	1.69
646.816	-0.31
646.85	6.69
646.883	-6.31
646.917	14.69
646.95	-6.31
646.984	-0.31
647.017	-18.31
647.051	-3.31
647.084	2.69
647.118	-2.31
647.151	8.69
647.185	6.69
647.218	-9.31
647.252	-5.31
647.285	-5.31
647.319	-12.31
647.353	0.69
647.386	24.69
647.42	6.69
647.453	9.69
647.487	6.69
647.52	-0.31
647.553	-3.31
647.587	-0.31
647.62	3.69
647.654	6.69
647.687	-6.31
647.721	-0.31
647.754	-12.31
647.788	-0.31
647.821	14.69
647.855	19.69
647.888	7.69
647.922	10.69
647.955	17.69
647.989	-11.31
648.022	5.69
648.055	3.69
648.089	7.69
648.122	17.69
648.156	-6.31
648.189	9.69
648.223	4.69
648.256	12.69
648.29	7.69
648.323	1.69
648.356	19.69
648.39	23.69
648.423	1.69
648.457	-1.31
648.49	3.69
648.523	14.69
648.557	-2.31
648.59	-5.31
648.624	1.69
648.657	1.69
648.69	11.69
648.724	0.69
648.757	4.69
648.791	5.69
648.824	24.69
648.857	11.69
648.891	0.69
648.924	-10.31
648.957	4.69
648.991	-6.31
649.024	27.69
649.057	6.69
649.091	-3.31
649.124	12.69
649.158	14.69
649.191	10.69
649.224	5.69
649.258	11.69
649.291	8.69
649.324	-1.31
649.358	8.69
649.391	2.69
649.424	7.69
649.458	-11.31
649.491	-2.31
649.524	-23.31
649.557	-17.31
649.591	0.69
649.624	9.69
649.657	-11.31
649.691	-10.31
649.724	8.69
649.757	5.69
649.791	0.69
649.824	9.69
649.857	-0.31
649.89	12.69
649.924	-3.31
649.957	-2.31
649.99	-4.31
650.023	4.69
650.057	7.69
650.09	-15.31
650.123	-8.31
650.157	22.69
650.19	16.69
650.223	-2.31
650.256	14.69
650.29	2.69
650.323	8.69
650.356	12.69
650.389	17.69
650.423	3.69
650.456	13.69
650.489	13.69
650.522	23.69
650.555	16.69
650.589	25.69
650.622	-6.31
650.655	-5.31
650.688	6.69
650.721	-12.31
650.755	-6.31
650.788	-0.31
650.821	-0.31
650.854	3.69
650.887	10.69
650.921	-2.31
650.954	7.69
650.987	-13.31
651.02	-14.31
651.053	-2.31
651.087	-14.31
651.12	11.69
651.153	7.69
651.186	-3.31
651.219	-11.31
651.252	20.69
651.286	15.69
651.319	-5.31
651.352	-8.31
651.385	11.69
651.418	13.69
651.451	13.69
651.484	1.69
651.518	-9.31
651.551	14.69
651.584	-10.31
651.617	24.69
651.65	3.69
651.683	18.69
651.716	0.69
651.749	-1.31
651.783	-9.31
651.816	14.69
651.849	15.69
651.882	2.69
651.915	4.69
651.948	-0.31
651.981	-28.31
652.014	-16.31
652.047	-13.31
652.08	-6.31
652.114	-15.31
652.147	-2.31
652.18	10.69
652.213	13.69
652.246	-2.31
652.279	-0.31
652.312	9.69
652.345	-1.31
652.378	5.69
652.411	20.69
652.444	23.69
652.477	-0.31
652.51	3.69
652.543	7.69
652.576	-4.31
652.609	5.69
652.642	-11.31
652.675	6.69
652.709	0.69
652.742	10.69
652.775	7.69
652.808	6.69
652.841	-0.31
652.874	-4.31
652.907	-3.31
652.94	3.69
652.973	-18.31
653.006	7.69
653.039	-12.31
653.072	-7.31
653.105	12.69
653.138	-8.31
653.171	4.69
653.204	10.69
653.237	5.69
653.27	-11.31
653.303	-9.31
653.336	4.69
653.368	-0.31
653.401	-3.31
653.434	0.69
653.467	9.69
653.5	-4.31
653.533	7.69
653.566	-8.31
653.599	-22.31
653.632	-5.31
653.665	3.69
653.698	-15.31
653.731	-2.31
653.764	9.69
653.797	0.69
653.83	10.69
653.863	-6.31
653.896	-17.31
653.929	-9.31
653.961	19.69
653.994	-3.31
654.027	-12.31
654.06	-8.31
654.093	9.69
654.126	-3.31
654.159	8.69
654.192	3.69
654.225	2.69
654.258	-8.31
654.29	6.69
654.323	-5.31
654.356	-1.31
654.389	3.69
654.422	9.69
654.455	17.69
654.488	21.69
654.521	-0.31
654.553	-10.31
654.586	-2.31
654.619	5.69
654.652	-6.31
654.685	22.69
654.718	20.69
654.751	13.69
654.783	3.69
654.816	-4.31
654.849	-1.31
654.882	-10.31
654.915	-13.31
654.948	-6.31
654.98	-0.31
655.013	0.69
655.046	-9.31
655.079	-13.31
655.112	2.69
655.144	-21.31
655.177	-5.31
655.21	-4.31
655.243	6.69
655.276	5.69
655.308	14.69
655.341	-26.31
655.374	8.69
655.407	3.69
655.44	0.69
655.472	1.69
655.505	11.69
655.538	3.69
655.571	6.69
655.603	-10.31
655.636	18.69
655.669	3.69
655.702	12.69
655.734	-3.31
655.767	4.69
655.8	0.69
655.833	3.69
655.865	23.69
655.898	2.69
655.931	5.69
655.964	18.69
655.996	16.69
656.029	30.69
656.062	32.69
656.095	46.69
656.127	63.69
656.16	205.69
656.193	634.69
656.225	927.69
656.258	545.69
656.291	201.69
656.324	157.69
656.356	371.69
656.389	752.69
656.422	683.69
656.454	238.69
656.487	72.69
656.52	44.69
656.552	8.69
656.585	7.69
656.618	5.69
656.65	9.69
656.683	9.69
656.716	-2.31
656.748	-0.31
656.781	3.69
656.814	-1.31
656.846	11.69
656.879	-8.31
656.912	-2.31
656.944	-19.31
656.977	-14.31
657.01	-1.31
657.042	10.69
657.075	14.69
657.108	7.69
657.14	-8.31
657.173	12.69
657.205	16.69
657.238	4.69
657.271	6.69
657.303	-3.31
657.336	21.69
657.369	4.69
657.401	4.69
657.434	4.69
657.466	5.69
657.499	-9.31
657.532	-12.31
657.564	14.69
657.597	6.69
657.629	10.69
657.662	10.69
657.694	-7.31
657.727	-32.31
657.76	4.69
657.792	-2.31
657.825	-4.31
657.857	-20.31
657.89	-7.31
657.922	19.69
657.955	12.69
657.987	8.69
658.02	8.69
658.053	12.69
658.085	10.69
658.118	7.69
658.15	14.69
658.183	12.69
658.215	-8.31
658.248	-5.31
658.28	10.69
658.313	8.69
658.345	20.69
658.378	3.69
658.41	-3.31
658.443	-1.31
658.475	4.69
658.508	3.69
658.54	-6.31
658.573	-8.31
658.605	-2.31
658.638	-11.31
658.67	-1.31
658.703	5.69
658.735	-23.31
658.768	3.69
658.8	-0.31
658.833	18.69
658.865	-5.31
658.898	-9.31
658.93	-5.31
658.963	-2.31
658.995	-24.31
659.028	6.69
659.06	2.69
659.092	-8.31
659.125	2.69
659.157	17.69
659.19	-6.31
659.222	-1.31
659.255	-2.31
659.287	-2.31
659.32	3.69
659.352	-9.31
659.384	-2.31
659.417	-24.31
659.449	6.69
659.482	8.69
659.514	-4.31
659.546	5.69
659.579	-3.31
659.611	6.69
659.644	-11.31
659.676	-4.31
659.708	-5.31
659.741	-13.31
659.773	0.69
659.806	-15.31
659.838	-4.31
659.87	-2.31
659.903	-21.31
659.935	-1.31
659.967	11.69
660	-0.31
660.032	-28.31
660.065	9.69
660.097	1.69
660.129	-2.31
660.162	-8.31
660.194	13.69
660.226	-2.31
660.259	10.69
660.291	-5.31
660.323	0.69
660.356	-7.31
660.388	-3.31
660.42	-6.31
660.453	7.69
660.485	7.69
660.517	-6.31
660.55	2.69
660.582	-5.31
660.614	2.69
660.647	-16.31
660.679	-33.31
660.711	0.69
660.743	-6.31
660.776	-18.31
660.808	-4.31
660.84	-4.31
660.873	5.69
660.905	9.69
660.937	5.69
660.969	-4.31
661.002	16.69
661.034	8.69
661.066	-13.31
661.099	8.69
661.131	9.69
661.163	8.69
661.195	-14.31
661.228	1.69
661.26	-1.31
661.292	-10.31
661.324	-5.31
661.357	4.69
661.389	10.69
661.421	-4.31
661.453	-4.31
661.485	-4.31
661.518	-3.31
661.55	-15.31
661.582	-2.31
661.614	-4.31
661.647	11.69
661.679	4.69
661.711	4.69
661.743	-2.31
661.775	4.69
661.808	14.69
661.84	-11.31
661.872	-4.31
661.904	-9.31
661.936	-3.31
661.969	-10.31
662.001	-14.31
662.033	-7.31
662.065	-5.31
662.097	6.69
662.129	8.69
662.162	-4.31
662.194	15.69
662.226	-6.31
662.258	-6.31
662.29	2.69
662.322	-18.31
662.355	-8.31
662.387	0.69
662.419	20.69
662.451	-0.31
662.483	13.69
662.515	11.69
662.547	5.69
662.58	-1.31
662.612	0.69
662.644	-23.31
662.676	-4.31
662.708	16.69
662.74	4.69
662.772	-4.31
662.804	-1.31
662.836	22.69
662.869	-4.31
662.901	1.69
662.933	4.69
662.965	20.69
662.997	14.69
663.029	-4.31
663.061	1.69
663.093	4.69
663.125	4.69
663.157	-12.31
663.189	-11.31
663.221	-3.31
663.254	-15.31
663.286	7.69
663.318	-15.31
663.35	-10.31
663.382	-23.31
663.414	6.69
663.446	-9.31
663.478	-11.31
663.51	21.69
663.542	-7.31
663.574	-9.31
663.606	5.69
663.638	-13.31
663.67	-2.31
663.702	-12.31
663.734	-5.31
663.766	7.69
663.798	7.69
663.83	9.69
663.862	11.69
663.894	-4.31
663.926	5.69
663.958	-3.31
663.99	1.69
664.022	-5.31
664.054	4.69
664.086	-5.31
664.118	-12.31
664.15	2.69
664.182	-9.31
664.214	-15.31
664.246	9.69
664.278	6.69
664.31	16.69
664.342	-4.31
664.374	-18.31
664.406	-18.31
664.438	-13.31
664.47	13.69
664.502	-0.31
664.534	-4.31
664.566	-16.31
664.598	4.69
664.63	-14.31
664.662	-7.31
664.693	-0.31
664.725	-19.31
664.757	-4.31
664.789	-12.31
664.821	11.69
664.853	23.69
664.885	6.69
664.917	5.69
664.949	15.69
664.981	7.69
665.013	-2.31
665.045	-9.31
665.076	-4.31
665.108	15.69
665.14	-2.31
665.172	-1.31
665.204	9.69
665.236	5.69
665.268	6.69
665.3	0.69
665.331	-11.31
665.363	-3.31
665.395	-3.31
665.427	-4.31
665.459	-4.31
665.491	3.69
665.523	-13.31
665.555	-0.31
665.586	-9.31
665.618	-9.31
665.65	-27.31
665.682	-8.31
665.714	-8.31
665.746	-4.31
665.777	-5.31
665.809	-1.31
665.841	8.69
665.873	-18.31
665.905	5.69
665.937	16.69
665.968	4.69
666	12.69
666.032	-1.31
666.064	-13.31
666.096	-9.31
666.127	10.69
666.159	6.69
666.191	11.69
666.223	10.69
666.255	12.69
666.286	-0.31
666.318	-3.31
666.35	2.69
666.382	3.69
666.413	4.69
666.445	-9.31
666.477	-8.31
666.509	-3.31
666.54	9.69
666.572	-8.31
666.604	3.69
666.636	9.69
666.667	13.69
666.699	9.69
666.731	4.69
666.763	-7.31
666.794	12.69
666.826	-5.31
666.858	-5.31
666.89	1.69
666.921	-1.31
666.953	2.69
666.985	11.69
667.017	10.69
667.048	15.69
667.08	-8.31
667.112	-13.31
667.143	-10.31
667.175	3.69
667.207	8.69
667.238	10.69
667.27	4.69
667.302	3.69
667.334	-0.31
667.365	9.69
667.397	-9.31
667.429	-19.31
667.46	15.69
667.492	3.69
667.524	2.69
667.555	-2.31
667.587	2.69
667.619	1.69
667.65	-5.31
667.682	10.69
667.714	14.69
667.745	0.69
667.777	2.69
667.808	-7.31
667.84	-0.31
667.872	2.69
667.903	7.69
667.935	-3.31
667.967	-8.31
667.998	2.69
668.03	-2.31
668.061	3.69
668.093	-6.31
668.125	-1.31
668.156	-0.31
668.188	-7.31
668.22	-3.31
668.251	4.69
668.283	-5.31
668.314	23.69
668.346	-1.31
668.377	-4.31
668.409	-2.31
668.441	17.69
668.472	2.69
668.504	21.69
668.535	8.69
668.567	12.69
668.599	-19.31
668.63	-10.31
668.662	-4.31
668.693	11.69
668.725	-3.31
668.756	23.69
668.788	11.69
668.819	1.69
668.851	2.69
668.882	10.69
668.914	-0.31
668.946	3.69
668.977	-6.31
669.009	-3.31
669.04	-15.31
669.072	-4.31
669.103	7.69
669.135	2.69
669.166	-2.31
669.198	-1.31
669.229	6.69
669.261	-6.31
669.292	0.69
669.324	-2.31
669.355	-0.31
669.387	1.69
669.418	-6.31
669.45	-4.31
669.481	-0.31
669.513	11.69
669.544	5.69
669.576	7.69
669.607	14.69
669.639	13.69
669.67	-8.31
669.701	2.69
669.733	-19.31
669.764	-3.31
669.796	-6.31
669.827	-14.31
669.859	2.69
669.89	1.69
669.922	8.69
669.953	-4.31
669.985	3.69
670.016	8.69
670.047	5.69
670.079	3.69
670.11	14.69
670.142	4.69
670.173	3.69
670.204	9.69
670.236	5.69
670.267	-0.31
670.299	8.69
670.33	9.69
670.362	14.69
670.393	-3.31
670.424	19.69
670.456	-13.31
670.487	3.69
670.518	-1.31
670.55	7.69
670.581	12.69
670.613	10.69
670.644	2.69
670.675	-9.31
670.707	5.69
670.738	0.69
670.769	-21.31
670.801	-16.31
670.832	10.69
670.864	-6.31
670.895	1.69
670.926	3.69
670.958	3.69
670.989	-0.31
671.02	-11.31
671.052	-7.31
671.083	6.69
671.114	7.69
671.146	17.69
671.177	4.69
671.208	-8.31
671.24	-21.31
671.271	-4.31
671.302	5.69
671.333	-4.31
671.365	-5.31
671.396	-2.31
671.427	7.69
671.459	-5.31
671.49	-2.31
671.521	9.69
671.553	16.69
671.584	15.69
671.615	-3.31
671.646	6.69
671.678	0.69
671.709	-6.31
671.74	-17.31
671.771	-8.31
671.803	-2.31
671.834	10.69
671.865	-5.31
671.896	-10.31
671.928	9.69
671.959	-13.31
671.99	-8.31
672.021	-14.31
672.053	-6.31
672.084	22.69
672.115	3.69
672.146	-8.31
672.178	-25.31
672.209	-24.31
672.24	-2.31
672.271	27.69
672.303	6.69
672.334	-3.31
672.365	-2.31
672.396	1.69
672.427	-1.31
672.459	15.69
672.49	28.69
672.521	17.69
672.552	11.69
672.583	20.69
672.615	8.69
672.646	6.69
672.677	-11.31
672.708	-3.31
672.739	5.69
672.77	8.69
672.802	1.69
672.833	-12.31
672.864	-2.31
672.895	2.69
672.926	-0.31
672.957	-11.31
672.989	-7.31
673.02	10.69
673.051	-2.31
673.082	7.69
673.113	0.69
673.144	10.69
673.175	-8.31
673.206	-13.31
673.238	-14.31
673.269	3.69
673.3	6.69
673.331	-0.31
673.362	9.69
673.393	6.69
673.424	12.69
673.455	13.69
673.487	-6.31
673.518	4.69
673.549	-5.31
673.58	2.69
673.611	-5.31
673.642	1.69
673.673	-20.31
673.704	-2.31
673.735	-4.31
673.766	-10.31
673.797	-2.31
673.828	13.69
673.86	-29.31
673.891	-9.31
673.922	2.69
673.953	6.69
673.984	11.69
674.015	5.69
674.046	-0.31
674.077	-2.31
674.108	-2.31
674.139	0.69
674.17	2.69
674.201	-2.31
674.232	3.69
674.263	4.69
674.294	-1.31
674.325	-7.31
674.356	-2.31
674.387	25.69
674.418	13.69
674.449	9.69
674.48	2.69
674.511	-10.31
674.542	3.69
674.573	-16.31
674.604	10.69
674.635	-16.31
674.666	4.69
674.697	-0.31
674.728	9.69
674.759	-17.31
674.79	-7.31
674.821	-6.31
674.852	-7.31
674.883	-18.31
674.914	-13.31
674.945	4.69
674.976	2.69
675.007	-7.31
675.038	-21.31
675.069	-16.31
675.1	-1.31
675.131	5.69
675.162	-9.31
675.193	-4.31
675.224	3.69
675.254	6.69
675.285	2.69
675.316	9.69
675.347	7.69
675.378	-3.31
675.409	2.69
675.44	8.69
675.471	-5.31
675.502	-12.31
675.533	13.69
675.564	7.69
675.595	3.69
675.625	17.69
675.656	27.69
675.687	-4.31
675.718	-20.31
675.749	2.69
675.78	-0.31
675.811	-8.31
675.842	-5.31
675.873	-6.31
675.903	-0.31
675.934	4.69
675.965	-0.31
675.996	12.69
676.027	10.69
676.058	-5.31
676.089	-4.31
676.119	6.69
676.15	-4.31
676.181	-2.31
676.212	-1.31
676.243	-0.31
676.274	-3.31
676.304	10.69
676.335	-5.31
676.366	4.69
676.397	0.69
676.428	5.69
676.459	9.69
676.489	12.69
676.52	10.69
676.551	-4.31
676.582	-14.31
676.613	12.69
676.643	-0.31
676.674	2.69
676.705	-10.31
676.736	5.69
676.767	6.69
676.797	8.69
676.828	4.69
676.859	7.69
676.89	3.69
676.92	11.69
676.951	-3.31
676.982	-18.31
677.013	-2.31
677.044	4.69
677.074	0.69
677.105	-6.31
677.136	8.69
677.167	12.69
677.197	8.69
677.228	-11.31
677.259	-11.31
677.289	2.69
677.32	-7.31
677.351	0.69
677.382	-9.31
677.412	-12.31
677.443	10.69
677.474	-1.31
677.505	-11.31
677.535	3.69
677.566	0.69
677.597	-9.31
677.627	-15.31
677.658	-2.31
677.689	-7.31
677.72	-1.31
677.75	-7.31
677.781	2.69
677.812	-4.31
677.842	13.69
677.873	7.69
677.904	5.69
677.934	5.69
677.965	-1.31
677.996	-21.31
678.026	4.69
678.057	11.69
678.088	8.69
678.118	2.69
678.149	-6.31
678.18	1.69
678.21	9.69
678.241	8.69
678.272	9.69
678.302	4.69
678.333	8.69
678.363	-10.31
678.394	1.69
678.425	-7.31
678.455	-2.31
678.486	8.69
678.517	10.69
678.547	-1.31
678.578	-3.31
678.608	-18.31
678.639	-12.31
678.67	8.69
678.7	-17.31
678.731	-3.31
678.761	4.69
678.792	7.69
678.823	-6.31
678.853	2.69
678.884	-12.31
678.914	-12.31
678.945	5.69
678.975	-7.31
679.006	4.69
679.037	-10.31
679.067	1.69
679.098	-4.31
679.128	-12.31
679.159	-8.31
679.189	-2.31
679.22	-8.31
679.25	12.69
679.281	-7.31
679.312	1.69
679.342	-0.31
679.373	10.69
679.403	3.69
679.434	9.69
679.464	4.69
679.495	3.69
679.525	10.69
679.556	0.69
679.586	12.69
679.617	4.69
679.647	15.69
679.678	5.69
679.708	-2.31
679.739	-1.31
679.769	2.69
679.8	-2.31
679.83	4.69
679.861	13.69
679.891	-4.31
679.922	-16.31
679.952	-7.31
679.983	10.69
680.013	13.69
680.044	-8.31
680.074	18.69
680.105	9.69
680.135	2.69
680.165	10.69
680.196	2.69
680.226	-3.31
680.257	4.69
680.287	7.69
680.318	7.69
680.348	2.69
680.379	0.69
680.409	2.69
680.439	8.69
680.47	-1.31
680.5	5.69
680.531	-4.31
680.561	-5.31
680.592	0.69
680.622	12.69
680.652	-0.31
680.683	19.69
680.713	0.69
680.744	-12.31
680.774	-5.31
680.804	7.69
680.835	-0.31
680.865	-3.31
680.896	14.69
680.926	3.69
680.956	-3.31
680.987	-11.31
681.017	1.69
681.047	-0.31
681.078	-2.31
681.108	14.69
681.139	-2.31
681.169	7.69
681.199	6.69
681.23	4.69
681.26	0.69
681.29	15.69
681.321	-13.31
681.351	16.69
681.381	0.69
681.412	-0.31
681.442	3.69
681.472	24.69
681.503	7.69
681.533	7.69
681.563	1.69
681.594	-11.31
681.624	8.69
681.654	1.69
681.685	-8.31
681.715	-6.31
681.745	1.69
681.775	-9.31
681.806	-4.31
681.836	1.69
681.866	-17.31
681.897	3.69
681.927	-3.31
681.957	-6.31
681.987	9.69
682.018	0.69
682.048	-9.31
682.078	3.69
682.109	29.69
682.139	10.69
682.169	2.69
682.199	3.69
682.23	-3.31
682.26	7.69
682.29	-11.31
682.32	3.69
682.351	-0.31
682.381	-3.31
682.411	7.69
682.441	1.69
682.472	1.69
682.502	-8.31
682.532	7.69
682.562	8.69
682.592	6.69
682.623	-6.31
682.653	0.69
682.683	-14.31
682.713	3.69
682.743	6.69
682.774	-4.31
682.804	-4.31
682.834	15.69
682.864	-8.31
682.894	-1.31
682.925	3.69
682.955	-8.31
682.985	-19.31
683.015	13.69
683.045	8.69
683.076	-14.31
683.106	-6.31
683.136	-13.31
683.166	-23.31
683.196	-9.31
683.226	-1.31
683.257	2.69
683.287	-4.31
683.317	-5.31
683.347	-11.31
683.377	-9.31
683.407	13.69
683.437	7.69
683.468	8.69
683.498	-8.31
683.528	11.69
683.558	-0.31
683.588	2.69
683.618	-5.31
683.648	-2.31
683.678	-7.31
683.708	17.69
683.739	8.69
683.769	-5.31
683.799	0.69
683.829	6.69
683.859	0.69
683.889	9.69
683.919	-4.31
683.949	0.69
683.979	2.69
684.009	-2.31
684.039	0.69
684.07	-8.31
684.1	6.69
684.13	-5.31
684.16	10.69
684.19	2.69
684.22	-2.31
684.25	8.69
684.28	-4.31
684.31	24.69
684.34	20.69
684.37	3.69
684.4	-8.31
684.43	1.69
684.46	4.69
684.49	-0.31
684.52	4.69
684.55	21.69
684.58	-8.31
684.61	15.69
684.64	17.69
684.67	7.69
684.7	0.69
684.73	-2.31
684.76	-25.31
684.79	7.69
684.82	-4.31
684.85	-16.31
684.88	27.69
684.91	4.69
684.94	3.69
684.97	-8.31
685	13.69
685.03	-0.31
685.06	-7.31
685.09	6.69
685.12	16.69
685.15	-3.31
685.18	3.69
685.21	-2.31
685.24	5.69
685.27	18.69
685.3	7.69
685.33	20.69
685.36	9.69
685.39	-1.31
685.42	-21.31
685.45	4.69
685.48	1.69
685.51	-10.31
685.54	1.69
685.569	-0.31
685.599	4.69
685.629	9.69
685.659	2.69
685.689	-0.31
685.719	3.69
685.749	-6.31
685.779	5.69
685.809	8.69
685.839	11.69
685.869	-1.31
685.898	12.69
685.928	-12.31
685.958	-5.31
685.988	4.69
686.018	2.69
686.048	8.69
686.078	13.69
686.108	20.69
686.137	-0.31
686.167	10.69
686.197	5.69
686.227	2.69
686.257	28.69
686.287	11.69
686.317	6.69
686.346	3.69
686.376	-20.31
686.406	-1.31
686.436	12.69
686.466	-10.31
686.496	8.69
686.525	13.69
686.555	-7.31
686.585	12.69
686.615	25.69
686.645	13.69
686.675	12.69
686.704	3.69
686.734	19.69
686.764	-3.31
686.794	3.69
686.824	2.69
686.853	3.69
686.883	-0.31
686.913	8.69
686.943	-3.31
686.973	-8.31
687.002	-0.31
687.032	4.69
687.062	-2.31
687.092	7.69
687.121	-3.31
687.151	9.69
687.181	12.69
687.211	5.69
687.24	-1.31
687.27	9.69
687.3	-16.31
687.33	-6.31
687.359	-17.31
687.389	10.69
687.419	8.69
687.449	3.69
687.478	10.69
687.508	-3.31
687.538	11.69
687.568	2.69
687.597	-9.31
687.627	3.69
687.657	-0.31
687.686	4.69
687.716	21.69
687.746	-9.31
687.776	-7.31
687.805	-4.31
687.835	13.69
687.865	19.69
687.894	-5.31
687.924	-13.31
687.954	2.69
687.983	-12.31
688.013	-1.31
688.043	22.69
688.072	6.69
688.102	-7.31
688.132	0.69
688.161	-3.31
688.191	4.69
688.221	6.69
688.25	-9.31
688.28	22.69
688.31	-8.31
688.339	-4.31
688.369	-7.31
688.399	0.69
688.428	6.69
688.458	-2.31
688.488	-4.31
688.517	-4.31
688.547	-15.31
688.576	43.69
688.606	9.69
688.636	-23.31
688.665	3.69
688.695	2.69
688.725	22.69
688.754	5.69
688.784	-3.31
688.813	10.69
688.843	-0.31
688.873	-3.31
688.902	-10.31
688.932	-1.31
688.961	-6.31
688.991	9.69
689.02	-5.31
689.05	1.69
689.08	22.69
689.109	13.69
689.139	5.69
689.168	13.69
689.198	1.69
689.227	7.69
689.257	0.69
689.287	8.69
689.316	7.69
689.346	-8.31
689.375	-3.31
689.405	17.69
689.434	-1.31
689.464	11.69
689.493	8.69
689.523	2.69
689.552	-8.31
689.582	-5.31
689.611	-4.31
689.641	4.69
689.67	9.69
689.7	2.69
689.73	11.69
689.759	-4.31
689.789	5.69
689.818	4.69
689.848	0.69
689.877	2.69
689.906	-11.31
689.936	-7.31
689.965	5.69
689.995	11.69
690.024	21.69
690.054	-2.31
690.083	14.69
690.113	4.69
690.142	-6.31
690.172	0.69
690.201	1.69
690.231	-0.31
690.26	20.69
690.29	-4.31
690.319	16.69
690.348	8.69
690.378	-6.31
690.407	2.69
690.437	9.69
690.466	-4.31
690.496	3.69
690.525	10.69
690.555	-3.31
690.584	2.69
690.613	2.69
690.643	15.69
690.672	11.69
690.702	8.69
690.731	0.69
690.76	12.69
690.79	6.69
690.819	-9.31
690.849	-2.31
690.878	-10.31
690.907	4.69
690.937	6.69
690.966	3.69
690.996	-9.31
691.025	-6.31
691.054	14.69
691.084	9.69
691.113	-3.31
691.142	7.69
691.172	6.69
691.201	1.69
691.23	3.69
691.26	10.69
691.289	2.69
691.319	4.69
691.348	12.69
691.377	15.69
691.407	-1.31
691.436	-0.31
691.465	6.69
691.495	0.69
691.524	-11.31
691.553	-6.31
691.583	-6.31
691.612	10.69
691.641	-4.31
691.67	-8.31
691.7	9.69
691.729	5.69
691.758	9.69
691.788	2.69
691.817	-9.31
691.846	-2.31
691.876	3.69
691.905	8.69
691.934	-5.31
691.963	9.69
691.993	-0.31
692.022	-16.31
692.051	-14.31
692.081	8.69
692.11	8.69
692.139	11.69
692.168	-7.31
692.198	-0.31
692.227	10.69
692.256	-0.31
692.285	-3.31
692.315	2.69
692.344	1.69
692.373	0.69
692.402	-18.31
692.432	10.69
692.461	-0.31
692.49	-9.31
692.519	-0.31
692.548	10.69
692.578	-2.31
692.607	-20.31
692.636	-8.31
692.665	5.69
692.694	-2.31
692.724	-7.31
692.753	-5.31
692.782	-3.31
692.811	-0.31
692.84	-11.31
692.87	3.69
692.899	-2.31
692.928	-10.31
692.957	11.69
692.986	25.69
693.016	3.69
693.045	-5.31
693.074	19.69
693.103	-4.31
693.132	3.69
693.161	15.69
693.191	-4.31
693.22	-16.31
693.249	-10.31
693.278	9.69
693.307	16.69
693.336	1.69
693.365	-11.31
693.395	2.69
693.424	-1.31
693.453	7.69
693.482	-0.31
693.511	7.69
693.54	10.69
693.569	3.69
693.598	18.69
693.628	14.69
693.657	13.69
693.686	21.69
693.715	7.69
693.744	8.69
693.773	13.69
693.802	14.69
693.831	-4.31
693.86	12.69
693.889	-7.31
693.919	4.69
693.948	4.69
693.977	2.69
694.006	-1.31
694.035	-12.31
694.064	-7.31
694.093	1.69
694.122	-13.31
694.151	-12.31
694.18	-2.31
694.209	21.69
694.238	2.69
694.267	8.69
694.296	4.69
694.325	5.69
694.354	17.69
694.383	18.69
694.412	-2.31
694.441	4.69
694.471	-0.31
694.5	-1.31
694.529	7.69
694.558	12.69
694.587	-3.31
694.616	3.69
694.645	-2.31
694.674	16.69
694.703	5.69
694.732	-0.31
694.761	10.69
694.79	5.69
694.819	-10.31
694.848	-0.31
694.877	15.69
694.906	22.69
694.935	11.69
694.963	18.69
694.992	12.69
695.021	2.69
695.05	-2.31
695.079	3.69
695.108	-3.31
695.137	2.69
695.166	-4.31
695.195	8.69
695.224	10.69
695.253	9.69
695.282	10.69
695.311	11.69
695.34	5.69
695.369	17.69
695.398	4.69
695.427	-1.31
695.456	3.69
695.485	5.69
695.513	-1.31
695.542	3.69
695.571	7.69
695.6	12.69
695.629	0.69
695.658	9.69
695.687	-5.31
695.716	9.69
695.745	15.69
695.774	-3.31
695.802	-4.31
695.831	11.69
695.86	14.69
695.889	22.69
695.918	12.69
695.947	-4.31
695.976	6.69
696.005	4.69
696.033	9.69
696.062	-1.31
696.091	-13.31
696.12	5.69
696.149	9.69
696.178	-0.31
696.207	-13.31
696.235	-10.31
696.264	7.69
696.293	5.69
696.322	13.69
696.351	10.69
696.38	1.69
696.408	8.69
696.437	-4.31
696.466	15.69
696.495	11.69
696.524	9.69
696.553	5.69
696.581	6.69
696.61	-15.31
696.639	-2.31
696.668	-3.31
696.697	-1.31
696.725	5.69
696.754	-10.31
696.783	-20.31
696.812	-12.31
696.84	-0.31
696.869	7.69
696.898	5.69
696.927	14.69
696.956	5.69
696.984	3.69
697.013	6.69
697.042	-13.31
697.071	-4.31
697.099	11.69
697.128	1.69
697.157	4.69
697.186	-3.31
697.214	-2.31
697.243	-7.31
697.272	0.69
697.301	17.69
697.329	24.69
697.358	13.69
697.387	24.69
697.415	17.69
697.444	3.69
697.473	-3.31
697.502	1.69
697.53	15.69
697.559	-12.31
697.588	-2.31
697.616	3.69
697.645	-11.31
697.674	9.69
697.703	-3.31
697.731	5.69
697.76	22.69
697.789	-7.31
697.817	4.69
697.846	13.69
697.875	9.69
697.903	20.69
697.932	-1.31
697.961	-0.31
697.989	2.69
698.018	5.69
698.047	23.69
698.075	4.69
698.104	-8.31
698.133	-5.31
698.161	-0.31
698.19	-0.31
698.218	-5.31
698.247	5.69
698.276	-12.31
698.304	17.69
698.333	-5.31
698.362	-4.31
698.39	2.69
698.419	18.69
698.447	-8.31
698.476	12.69
698.505	22.69
698.533	1.69
698.562	-0.31
698.591	-1.31
698.619	-6.31
698.648	-4.31
698.676	8.69
698.705	8.69
698.733	0.69
698.762	-5.31
698.791	-15.31
698.819	-1.31
698.848	-2.31
698.876	4.69
698.905	1.69
698.933	8.69
698.962	-7.31
698.991	-1.31
699.019	8.69
699.048	8.69
699.076	14.69
699.105	-8.31
699.133	-4.31
699.162	13.69
699.19	19.69
699.219	5.69
699.248	10.69
699.276	0.69
699.305	-1.31
699.333	17.69
699.362	10.69
699.39	5.69
699.419	0.69
699.447	2.69
699.476	-4.31
699.504	-1.31
699.533	-5.31
699.561	-13.31
699.59	-0.31
699.618	10.69
699.647	-11.31
699.675	3.69
699.704	13.69
699.732	-1.31
699.761	4.69
699.789	5.69
699.818	10.69
699.846	6.69
699.874	4.69
699.903	3.69
699.931	-5.31
699.96	22.69
699.988	2.69
700.017	2.69
700.045	-2.31
700.074	1.69
700.102	-5.31
700.13	4.69
700.159	3.69
700.187	11.69
700.216	6.69
700.244	-9.31
700.273	-14.31
700.301	-6.31
700.329	17.69
700.358	5.69
700.386	2.69
700.415	3.69
700.443	16.69
700.472	-4.31
700.5	2.69
700.528	2.69
700.557	5.69
700.585	-11.31
700.614	6.69
700.642	-4.31
700.67	19.69
700.699	3.69
700.727	10.69
700.755	7.69
700.784	4.69
700.812	2.69
700.841	14.69
700.869	3.69
700.897	-1.31
700.926	-1.31
700.954	4.69
700.982	5.69
701.011	3.69
701.039	6.69
701.067	1.69
701.096	5.69
701.124	-2.31
701.152	4.69
701.181	12.69
701.209	-3.31
701.237	2.69
701.266	-0.31
701.294	-12.31
701.322	1.69
701.351	7.69
701.379	-7.31
701.407	-21.31
701.435	-8.31
701.464	20.69
701.492	16.69
701.52	-3.31
701.549	-5.31
701.577	-9.31
701.605	-9.31
701.634	6.69
701.662	9.69
701.69	-12.31
701.718	-0.31
701.747	3.69
701.775	6.69
701.803	-6.31
701.831	10.69
701.86	-1.31
701.888	-0.31
701.916	-7.31
701.944	-6.31
701.973	-9.31
702.001	-12.31
702.029	-4.31
702.057	0.69
702.086	-18.31
702.114	-15.31
702.142	0.69
702.17	-11.31
702.199	-11.31
702.227	-14.31
702.255	-12.31
702.283	-5.31
702.311	12.69
702.34	-2.31
702.368	-7.31
702.396	-0.31
702.424	3.69
702.452	-13.31
702.481	14.69
702.509	-13.31
702.537	7.69
702.565	11.69
702.593	-16.31
702.621	6.69
702.65	0.69
702.678	8.69
702.706	8.69
702.734	-14.31
702.762	2.69
702.79	9.69
702.819	12.69
702.847	6.69
702.875	12.69
702.903	15.69
702.931	-10.31
702.959	-4.31
702.988	0.69
703.016	4.69
703.044	2.69
703.072	-9.31
703.1	-5.31
703.128	-7.31
703.156	10.69
703.184	-0.31
703.212	11.69
703.241	25.69
703.269	13.69
703.297	7.69
703.325	0.69
703.353	-3.31
703.381	-6.31
703.409	-8.31
703.437	-14.31
703.465	-13.31
703.493	-18.31
703.522	-15.31
703.55	6.69
703.578	1.69
703.606	6.69
703.634	-9.31
703.662	-4.31
703.69	1.69
703.718	5.69
703.746	38.69
703.774	7.69
703.802	27.69
703.83	-0.31
703.858	10.69
703.886	-2.31
703.914	-11.31
703.942	14.69
703.97	-5.31
703.998	-16.31
704.027	12.69
704.055	9.69
704.083	-2.31
704.111	8.69
704.139	-9.31
704.167	-1.31
704.195	9.69
704.223	-3.31
704.251	1.69
704.279	-0.31
704.307	8.69
704.335	-7.31
704.363	12.69
704.391	-7.31
704.419	-11.31
704.447	-6.31
704.475	10.69
704.503	-2.31
704.531	17.69
704.558	-1.31
704.586	2.69
704.614	-16.31
704.642	-0.31
704.67	-20.31
704.698	-12.31
704.726	-4.31
704.754	-1.31
704.782	-7.31
704.81	-16.31
704.838	19.69
704.866	6.69
704.894	-18.31
704.922	-8.31
704.95	10.69
704.978	7.69
705.006	7.69
705.034	9.69
705.061	0.69
705.089	-5.31
705.117	2.69
705.145	3.69
705.173	-6.31
705.201	7.69
705.229	7.69
705.257	15.69
705.285	10.69
705.313	20.69
705.34	-8.31
705.368	-12.31
705.396	6.69
705.424	-7.31
705.452	-9.31
705.48	4.69
705.508	4.69
705.536	-4.31
705.563	-11.31
705.591	14.69
705.619	16.69
705.647	-19.31
705.675	-2.31
705.703	2.69
705.731	3.69
705.758	8.69
705.786	21.69
705.814	19.69
705.842	0.69
705.87	5.69
705.898	10.69
705.925	-4.31
705.953	8.69
705.981	-17.31
706.009	-5.31
706.037	-4.31
706.065	20.69
706.092	8.69
706.12	3.69
706.148	-6.31
706.176	-11.31
706.204	-5.31
706.231	-6.31
706.259	-9.31
706.287	5.69
706.315	11.69
706.342	-7.31
706.37	2.69
706.398	8.69
706.426	-4.31
706.454	9.69
706.481	13.69
706.509	-5.31
706.537	-5.31
706.565	0.69
706.592	4.69
706.62	4.69
706.648	4.69
706.676	-3.31
706.703	-4.31
706.731	4.69
706.759	-16.31
706.787	8.69
706.814	5.69
706.842	-5.31
706.87	-4.31
706.897	-3.31
706.925	2.69
706.953	-2.31
706.981	12.69
707.008	6.69
707.036	2.69
707.064	1.69
707.091	-10.31
707.119	3.69
707.147	-1.31
707.174	-15.31
707.202	17.69
707.23	-3.31
707.258	11.69
707.285	-8.31
707.313	-27.31
707.341	-5.31
707.368	-3.31
707.396	16.69
707.424	14.69
707.451	5.69
707.479	4.69
707.507	-7.31
707.534	0.69
707.562	6.69
707.59	-11.31
707.617	-11.31
707.645	5.69
707.672	4.69
707.7	-4.31
707.728	15.69
707.755	0.69
707.783	-11.31
707.811	3.69
707.838	2.69
707.866	-7.31
707.893	7.69
707.921	-9.31
707.949	-7.31
707.976	0.69
708.004	-0.31
708.031	2.69
708.059	0.69
708.087	4.69
708.114	-2.31
708.142	-1.31
708.169	-7.31
708.197	-10.31
708.225	1.69
708.252	-6.31
708.28	2.69
708.307	-15.31
708.335	-8.31
708.362	-7.31
708.39	-12.31
708.418	-1.31
708.445	-0.31
708.473	-8.31
708.5	0.69
708.528	5.69
708.555	11.69
708.583	4.69
708.61	-14.31
708.638	-8.31
708.665	-9.31
708.693	1.69
708.72	-8.31
708.748	-25.31
708.776	-13.31
708.803	3.69
708.831	-0.31
708.858	7.69
708.886	2.69
708.913	-4.31
708.941	-6.31
708.968	20.69
708.996	-1.31
709.023	8.69
709.051	8.69
709.078	-8.31
709.105	-3.31
709.133	-12.31
709.16	-3.31
709.188	3.69
709.215	-11.31
709.243	-14.31
709.27	-9.31
709.298	-12.31
709.325	-5.31
709.353	6.69
709.38	5.69
709.408	3.69
709.435	5.69
709.462	-9.31
709.49	-7.31
709.517	2.69
709.545	-0.31
709.572	5.69
709.6	0.69
709.627	7.69
709.655	-10.31
709.682	-12.31
709.709	2.69
709.737	-13.31
709.764	10.69
709.792	14.69
709.819	3.69
709.846	-2.31
709.874	7.69
709.901	3.69
709.929	20.69
709.956	16.69
709.983	0.69
710.011	4.69
710.038	-9.31
710.066	3.69
710.093	25.69
710.12	3.69
710.148	-3.31
710.175	-12.31
710.202	-23.31
710.23	13.69
710.257	3.69
710.284	13.69
710.312	7.69
710.339	3.69
710.366	11.69
710.394	7.69
710.421	10.69
710.448	-3.31
710.476	-3.31
710.503	14.69
710.53	19.69
710.558	10.69
710.585	17.69
710.612	2.69
710.64	0.69
710.667	11.69
710.694	1.69
710.722	-0.31
710.749	8.69
710.776	-0.31
710.804	23.69
710.831	-0.31
710.858	-2.31
710.885	14.69
710.913	-1.31
710.94	22.69
710.967	6.69
710.995	0.69
711.022	4.69
711.049	8.69
711.076	-0.31
711.104	9.69
711.131	-12.31
711.158	-0.31
711.185	2.69
711.213	-13.31
711.24	-10.31
711.267	-1.31
711.294	1.69
711.322	14.69
711.349	-11.31
711.376	-25.31
711.403	11.69
711.431	-0.31
711.458	-3.31
711.485	-9.31
711.512	10.69
711.54	-3.31
711.567	7.69
711.594	5.69
711.621	-2.31
711.648	7.69
711.676	14.69
711.703	20.69
711.73	-4.31
711.757	-7.31
711.784	4.69
711.812	6.69
711.839	-0.31
711.866	-2.31
711.893	2.69
711.92	7.69
711.947	-5.31
711.975	8.69
712.002	-4.31
712.029	2.69
712.056	3.69
712.083	16.69
712.11	-9.31
712.138	14.69
712.165	-1.31
712.192	-9.31
712.219	5.69
712.246	-0.31
712.273	-0.31
712.3	-7.31
712.328	-7.31
712.355	-1.31
712.382	-12.31
712.409	26.69
712.436	2.69
712.463	2.69
712.49	18.69
712.517	14.69
712.544	9.69
712.572	4.69
712.599	-0.31
712.626	16.69
712.653	-0.31
712.68	-2.31
712.707	23.69
712.734	6.69
712.761	2.69
712.788	-11.31
712.815	-4.31
712.842	-3.31
712.87	-0.31
712.897	0.69
712.924	-16.31
712.951	-2.31
712.978	0.69
713.005	10.69
713.032	28.69
713.059	-12.31
713.086	-12.31
713.113	-19.31
713.14	-7.31
713.167	-2.31
713.194	-1.31
713.221	2.69
713.248	13.69
713.275	-13.31
713.302	-4.31
713.329	5.69
713.356	10.69
713.383	3.69
713.41	-0.31
713.437	-10.31
713.464	-2.31
713.491	5.69
713.518	-5.31
713.545	-3.31
713.572	-11.31
713.599	11.69
713.626	-9.31
713.653	-0.31
713.68	-1.31
713.707	-8.31
713.734	5.69
713.761	-3.31
713.788	-2.31
713.815	11.69
713.842	5.69
713.869	2.69
713.896	3.69
713.923	-1.31
713.95	2.69
713.977	-1.31
714.004	-0.31
714.031	0.69
714.058	7.69
714.085	0.69
714.112	23.69
714.139	-8.31
714.165	-17.31
714.192	-2.31
714.219	7.69
714.246	11.69
714.273	9.69
714.3	2.69
714.327	18.69
714.354	20.69
714.381	2.69
714.408	-2.31
714.435	-5.31
714.461	-9.31
714.488	2.69
714.515	4.69
714.542	-4.31
714.569	-8.31
714.596	-8.31
714.623	-6.31
714.65	-4.31
714.677	8.69
714.703	6.69
714.73	-18.31
714.757	-11.31
714.784	-7.31
714.811	-9.31
714.838	-17.31
714.865	-1.31
714.891	16.69
714.918	7.69
714.945	3.69
714.972	-2.31
714.999	6.69
715.026	-2.31
715.052	6.69
715.079	-7.31
715.106	1.69
715.133	-0.31
715.16	-6.31
715.187	-5.31
715.213	2.69
715.24	5.69
715.267	2.69
715.294	-7.31
715.321	-4.31
715.347	6.69
715.374	17.69
715.401	3.69
715.428	2.69
715.455	-5.31
715.481	-21.31
715.508	14.69
715.535	0.69
715.562	19.69
715.588	16.69
715.615	-3.31
715.642	-0.31
715.669	8.69
715.695	-11.31
715.722	-1.31
715.749	8.69
715.776	26.69
715.802	14.69
715.829	10.69
715.856	10.69
715.883	16.69
715.909	2.69
715.936	-2.31
715.963	4.69
715.99	-4.31
716.016	15.69
716.043	6.69
716.07	-2.31
716.096	0.69
716.123	4.69
716.15	-4.31
716.177	2.69
716.203	12.69
716.23	14.69
716.257	7.69
716.283	19.69
716.31	11.69
716.337	8.69
716.363	-6.31
716.39	-12.31
716.417	21.69
716.443	2.69
716.47	12.69
716.497	14.69
716.523	-0.31
716.55	17.69
716.577	0.69
716.603	-16.31
716.63	-16.31
716.657	10.69
716.683	-0.31
716.71	-8.31
716.737	-2.31
716.763	0.69
716.79	-0.31
716.817	4.69
716.843	-14.31
716.87	-8.31
716.897	-0.31
716.923	12.69
716.95	-6.31
716.976	-8.31
717.003	2.69
717.03	-1.31
717.056	3.69
717.083	-0.31
717.109	-5.31
717.136	1.69
717.163	-14.31
717.189	19.69
717.216	-2.31
717.242	1.69
717.269	-0.31
717.296	-9.31
717.322	6.69
717.349	5.69
717.375	1.69
717.402	-1.31
717.428	11.69
717.455	1.69
717.481	-6.31
717.508	6.69
717.535	-1.31
717.561	-10.31
717.588	-16.31
717.614	10.69
717.641	1.69
717.667	-0.31
717.694	-4.31
717.72	9.69
717.747	3.69
717.773	2.69
717.8	9.69
717.826	-3.31
717.853	-7.31
717.88	7.69
717.906	10.69
717.933	8.69
717.959	9.69
717.986	3.69
718.012	0.69
718.039	0.69
718.065	8.69
718.092	-3.31
718.118	-9.31
718.144	3.69
718.171	15.69
718.197	17.69
718.224	1.69
718.25	-5.31
718.277	-3.31
718.303	7.69
718.33	1.69
718.356	0.69
718.383	-20.31
718.409	-4.31
718.436	-1.31
718.462	0.69
718.489	-20.31
718.515	11.69
718.541	21.69
718.568	10.69
718.594	3.69
718.621	3.69
718.647	14.69
718.674	1.69
718.7	-1.31
718.726	9.69
718.753	-4.31
718.779	2.69
718.806	-12.31
718.832	-5.31
718.858	0.69
718.885	1.69
718.911	3.69
718.938	10.69
718.964	2.69
718.99	-8.31
719.017	2.69
719.043	2.69
719.07	6.69
719.096	-5.31
719.122	11.69
719.149	-2.31
719.175	7.69
719.201	7.69
719.228	3.69
719.254	-5.31
719.281	3.69
719.307	-1.31
719.333	-3.31
719.36	13.69
719.386	19.69
719.412	7.69
719.439	-5.31
719.465	9.69
719.491	-5.31
719.518	0.69
719.544	-7.31
719.57	1.69
719.597	11.69
719.623	-3.31
719.649	-0.31
719.675	-9.31
719.702	11.69
719.728	14.69
719.754	-10.31
719.781	-7.31
719.807	12.69
719.833	-5.31
719.86	4.69
719.886	-10.31
719.912	-2.31
719.938	-23.31
719.965	1.69
719.991	6.69
720.017	-22.31
720.044	2.69
720.07	-3.31
720.096	14.69
720.122	-0.31
720.149	16.69
720.175	16.69
720.201	5.69
720.227	3.69
720.254	-0.31
720.28	14.69
720.306	-9.31
720.332	1.69
720.359	3.69
720.385	3.69
720.411	1.69
720.437	-5.31
720.463	-10.31
720.49	5.69
720.516	-7.31
720.542	-13.31
720.568	-0.31
720.595	15.69
720.621	14.69
720.647	-0.31
720.673	-0.31
720.699	-6.31
720.725	2.69
720.752	3.69
720.778	8.69
720.804	13.69
720.83	3.69
720.856	-12.31
720.883	-12.31
720.909	7.69
720.935	-0.31
720.961	12.69
720.987	1.69
721.013	12.69
721.04	-9.31
721.066	-11.31
721.092	-8.31
721.118	0.69
721.144	0.69
721.17	-0.31
721.196	2.69
721.223	1.69
721.249	16.69
721.275	18.69
721.301	-7.31
721.327	11.69
721.353	-5.31
721.379	-2.31
721.405	3.69
721.432	15.69
721.458	2.69
721.484	16.69
721.51	-19.31
721.536	-4.31
721.562	0.69
721.588	2.69
721.614	7.69
721.64	13.69
721.666	8.69
721.693	-13.31
721.719	-15.31
721.745	-1.31
721.771	-2.31
721.797	8.69
721.823	-0.31
721.849	2.69
721.875	2.69
721.901	-0.31
721.927	-5.31
721.953	-7.31
721.979	12.69
722.005	4.69
722.031	-12.31
722.057	2.69
722.083	16.69
722.109	-1.31
722.135	14.69
722.161	11.69
722.187	4.69
722.214	-14.31
722.24	-3.31
722.266	8.69
722.292	6.69
722.318	8.69
722.344	4.69
722.37	5.69
722.396	12.69
722.422	6.69
722.448	5.69
722.474	-15.31
722.5	14.69
722.526	-0.31
722.552	4.69
722.578	12.69
722.603	12.69
722.629	-4.31
722.655	-4.31
722.681	-1.31
722.707	3.69
722.733	3.69
722.759	-23.31
722.785	-8.31
722.811	-1.31
722.837	5.69
722.863	2.69
722.889	6.69
722.915	11.69
722.941	11.69
722.967	-0.31
722.993	20.69
723.019	-0.31
723.045	-5.31
723.071	4.69
723.097	17.69
723.122	6.69
723.148	8.69
723.174	-1.31
723.2	2.69
723.226	-3.31
723.252	-3.31
723.278	-5.31
723.304	11.69
723.33	17.69
723.356	-6.31
723.381	-12.31
723.407	1.69
723.433	4.69
723.459	-4.31
723.485	-4.31
723.511	3.69
723.537	-1.31
723.563	-8.31
723.588	-2.31
723.614	1.69
723.64	10.69
723.666	-2.31
723.692	4.69
723.718	10.69
723.744	8.69
723.769	-0.31
723.795	-19.31
723.821	1.69
723.847	-13.31
723.873	10.69
723.899	3.69
723.924	-0.31
723.95	-3.31
723.976	-6.31
724.002	22.69
724.028	22.69
724.053	1.69
724.079	11.69
724.105	1.69
724.131	2.69
724.157	-6.31
724.182	0.69
724.208	2.69
724.234	7.69
724.26	7.69
724.286	16.69
724.311	-4.31
724.337	-9.31
724.363	4.69
724.389	-6.31
724.415	-7.31
724.44	13.69
724.466	1.69
724.492	-1.31
724.518	2.69
724.543	-1.31
724.569	5.69
724.595	12.69
724.621	0.69
724.646	8.69
724.672	-0.31
724.698	-16.31
724.723	4.69
724.749	7.69
724.775	11.69
724.801	4.69
724.826	-0.31
724.852	7.69
724.878	2.69
724.904	-5.31
724.929	2.69
724.955	-4.31
724.981	8.69
725.006	-2.31
725.032	7.69
725.058	2.69
725.083	-0.31
725.109	-0.31
725.135	0.69
725.161	0.69
725.186	11.69
725.212	-8.31
725.238	-7.31
725.263	-15.31
725.289	-0.31
725.315	-16.31
725.34	-11.31
725.366	-6.31
725.392	-0.31
725.417	7.69
725.443	0.69
725.468	0.69
725.494	5.69
725.52	14.69
725.545	14.69
725.571	15.69
725.597	-6.31
725.622	-1.31
725.648	-2.31
725.674	34.69
725.699	6.69
725.725	10.69
725.75	25.69
725.776	-0.31
725.802	5.69
725.827	7.69
725.853	-3.31
725.878	3.69
725.904	0.69
725.93	-8.31
725.955	-4.31
725.981	-16.31
726.006	12.69
726.032	5.69
726.057	-7.31
726.083	-8.31
726.109	-8.31
726.134	13.69
726.16	5.69
726.185	6.69
726.211	-1.31
726.236	-0.31
726.262	8.69
726.288	10.69
726.313	24.69
726.339	11.69
726.364	-1.31
726.39	12.69
726.415	6.69
726.441	-13.31
726.466	-1.31
726.492	5.69
726.517	5.69
726.543	-7.31
726.568	-9.31
726.594	-6.31
726.619	3.69
726.645	5.69
726.67	2.69
726.696	22.69
726.721	12.69
726.747	-3.31
726.772	-8.31
726.798	0.69
726.823	5.69
726.849	4.69
726.874	15.69
726.9	12.69
726.925	3.69
726.951	-0.31
726.976	17.69
727.002	-3.31
727.027	-0.31
727.053	-1.31
727.078	-2.31
727.104	7.69
727.129	-18.31
727.155	-9.31
727.18	8.69
727.205	3.69
727.231	-13.31
727.256	0.69
727.282	-1.31
727.307	7.69
727.333	-5.31
727.358	-17.31
727.383	-3.31
727.409	-0.31
727.434	5.69
727.46	-2.31
727.485	-2.31
727.511	10.69
727.536	-15.31
727.561	-4.31
727.587	-5.31
727.612	0.69
727.637	-0.31
727.663	-11.31
727.688	28.69
727.714	-0.31
727.739	-9.31
727.764	-7.31
727.79	3.69
727.815	6.69
727.841	0.69
727.866	2.69
727.891	7.69
727.917	-5.31
727.942	-6.31
727.967	-5.31
727.993	-8.31
728.018	-5.31
728.043	-1.31
728.069	16.69
728.094	15.69
728.119	-0.31
728.145	23.69
728.17	16.69
728.195	5.69
728.221	4.69
728.246	8.69
728.271	-5.31
728.297	-1.31
728.322	-17.31
728.347	-3.31
728.373	0.69
728.398	5.69
728.423	-16.31
728.448	-10.31
728.474	10.69
728.499	10.69
728.524	-5.31
728.55	-19.31
728.575	5.69
728.6	-1.31
728.625	5.69
728.651	10.69
728.676	0.69
728.701	9.69
728.727	-2.31
728.752	-17.31
728.777	4.69
728.802	5.69
728.828	6.69
728.853	16.69
728.878	-1.31
728.903	-9.31
728.929	-13.31
728.954	-7.31
728.979	19.69
729.004	6.69
729.03	2.69
729.055	11.69
729.08	-12.31
729.105	-1.31
729.13	8.69
729.156	16.69
729.181	-3.31
729.206	-12.31
729.231	-5.31
729.256	11.69
729.282	9.69
729.307	-12.31
729.332	-5.31
729.357	-0.31
729.382	-4.31
729.408	1.69
729.433	8.69
729.458	12.69
729.483	10.69
729.508	10.69
729.533	4.69
729.559	-6.31
729.584	-9.31
729.609	8.69
729.634	14.69
729.659	-1.31
729.684	-9.31
729.71	10.69
729.735	8.69
729.76	8.69
729.785	-0.31
729.81	2.69
729.835	-0.31
729.86	-9.31
729.886	-1.31
729.911	0.69
729.936	10.69
729.961	4.69
729.986	-15.31
730.011	-8.31
730.036	-1.31
730.061	11.69
730.086	0.69
730.112	8.69
730.137	16.69
730.162	7.69
730.187	-11.31
730.212	2.69
730.237	0.69
730.262	-7.31
730.287	-2.31
730.312	3.69
730.337	0.69
730.362	7.69
730.387	-1.31
730.413	-13.31
730.438	-13.31
730.463	2.69
730.488	-3.31
730.513	-9.31
730.538	-2.31
730.563	19.69
730.588	10.69
730.613	9.69
730.638	-5.31
730.663	-2.31
730.688	8.69
730.713	13.69
730.738	11.69
730.763	14.69
730.788	2.69
730.813	-1.31
730.838	-9.31
730.863	-1.31
730.888	2.69
730.913	-8.31
730.938	-7.31
730.963	-2.31
730.988	5.69
731.013	12.69
731.038	6.69
731.063	-0.31
731.088	4.69
731.113	-2.31
731.138	1.69
731.163	6.69
731.188	-5.31
731.213	-2.31
731.238	14.69
731.263	1.69
731.288	2.69
731.313	2.69
731.338	-3.31
731.363	5.69
731.388	9.69
731.413	17.69
731.438	5.69
731.463	22.69
731.487	2.69
731.512	7.69
731.537	0.69
731.562	3.69
731.587	4.69
731.612	-1.31
731.637	-6.31
731.662	0.69
731.687	2.69
731.712	-18.31
731.737	10.69
731.762	-4.31
731.786	9.69
731.811	15.69
731.836	-4.31
731.861	-1.31
731.886	-4.31
731.911	13.69
731.936	17.69
731.961	13.69
731.986	-13.31
732.01	5.69
732.035	1.69
732.06	15.69
732.085	5.69
732.11	11.69
732.135	-0.31
732.16	-9.31
732.184	-4.31
732.209	-0.31
732.234	-7.31
732.259	7.69
732.284	10.69
732.309	-4.31
732.334	-12.31
732.358	-10.31
732.383	-9.31
732.408	6.69
732.433	5.69
732.458	-13.31
732.482	10.69
732.507	3.69
732.532	-5.31
732.557	-1.31
732.582	16.69
732.607	-11.31
732.631	-5.31
732.656	-6.31
732.681	7.69
732.706	4.69
732.73	7.69
732.755	-1.31
732.78	3.69
732.805	4.69
732.83	3.69
732.854	0.69
732.879	7.69
732.904	-5.31
732.929	-5.31
732.953	-1.31
732.978	-0.31
733.003	0.69
733.028	3.69
733.052	2.69
733.077	-11.31
733.102	-4.31
733.127	-2.31
733.151	-8.31
733.176	-9.31
733.201	-2.31
733.226	-4.31
733.25	3.69
733.275	0.69
733.3	-4.31
733.324	7.69
733.349	8.69
733.374	-1.31
733.399	-3.31
733.423	0.69
733.448	6.69
733.473	-3.31
733.497	-12.31
733.522	-4.31
733.547	4.69
733.571	11.69
733.596	3.69
733.621	5.69
733.646	-2.31
733.67	10.69
733.695	-0.31
733.72	-3.31
733.744	-1.31
733.769	6.69
733.794	30.69
733.818	6.69
733.843	-2.31
733.867	-3.31
733.892	-4.31
733.917	6.69
733.941	5.69
733.966	-6.31
733.991	3.69
734.015	6.69
734.04	6.69
734.065	6.69
734.089	2.69
734.114	-1.31
734.138	2.69
734.163	-10.31
734.188	10.69
734.212	12.69
734.237	18.69
734.261	-3.31
734.286	-0.31
734.311	-12.31
734.335	4.69
734.36	14.69
734.384	3.69
734.409	3.69
734.434	-0.31
734.458	-2.31
734.483	16.69
734.507	4.69
734.532	-9.31
734.556	-0.31
734.581	6.69
734.606	0.69
734.63	-4.31
734.655	1.69
734.679	-8.31
734.704	-8.31
734.728	3.69
734.753	-0.31
734.777	-10.31
734.802	-0.31
734.826	4.69
734.851	15.69
734.876	11.69
734.9	11.69
734.925	14.69
734.949	14.69
734.974	6.69
734.998	12.69
735.023	2.69
735.047	-10.31
735.072	30.69
735.096	6.69
735.121	4.69
735.145	5.69
735.17	-6.31
735.194	9.69
735.219	22.69
735.243	-1.31
735.268	9.69
735.292	-6.31
735.317	-7.31
735.341	2.69
735.365	14.69
735.39	13.69
735.414	7.69
735.439	-9.31
735.463	10.69
735.488	5.69
735.512	8.69
735.537	3.69
735.561	-11.31
735.586	7.69
735.61	-0.31
735.634	-20.31
735.659	-11.31
735.683	14.69
735.708	-6.31
735.732	4.69
735.757	-13.31
735.781	18.69
735.805	-0.31
735.83	1.69
735.854	2.69
735.879	-4.31
735.903	17.69
735.927	7.69
735.952	4.69
735.976	-1.31
736.001	4.69
736.025	2.69
736.049	-2.31
736.074	7.69
736.098	0.69
736.123	-13.31
736.147	-0.31
736.171	5.69
736.196	10.69
736.22	4.69
736.244	6.69
736.269	-3.31
736.293	-0.31
736.317	3.69
736.342	5.69
736.366	-0.31
736.39	16.69
736.415	8.69
736.439	2.69
736.463	3.69
736.488	4.69
736.512	8.69
736.536	-9.31
736.561	19.69
736.585	-8.31
736.609	18.69
736.634	-1.31
736.658	8.69
736.682	-17.31
736.707	-17.31
736.731	-19.31
736.755	-10.31
736.78	11.69
736.804	16.69
736.828	18.69
736.852	-11.31
736.877	1.69
736.901	4.69
736.925	0.69
736.949	3.69
736.974	-13.31
736.998	-11.31
737.022	2.69
737.047	-4.31
737.071	-4.31
737.095	6.69
737.119	27.69
737.144	6.69
737.168	-8.31
737.192	-12.31
737.216	13.69
737.241	0.69
737.265	8.69
737.289	-3.31
737.313	-8.31
737.337	5.69
737.362	6.69
737.386	4.69
737.41	0.69
737.434	-9.31
737.459	1.69
737.483	11.69
737.507	15.69
737.531	31.69
737.555	15.69
737.58	5.69
737.604	6.69
737.628	-10.31
737.652	-12.31
737.676	-2.31
737.701	-13.31
737.725	-2.31
737.749	5.69
737.773	10.69
737.797	-6.31
737.821	10.69
737.846	-12.31
737.87	0.69
737.894	-5.31
737.918	-7.31
737.942	5.69
737.966	6.69
737.99	22.69
738.015	8.69
738.039	3.69
738.063	-9.31
738.087	4.69
738.111	-7.31
738.135	18.69
738.159	-4.31
738.184	2.69
738.208	16.69
738.232	13.69
738.256	15.69
738.28	2.69
738.304	27.69
738.328	-1.31
738.352	14.69
738.376	-4.31
738.4	5.69
738.425	8.69
738.449	-5.31
738.473	14.69
738.497	-0.31
738.521	-0.31
738.545	10.69
738.569	11.69
738.593	13.69
738.617	5.69
738.641	-5.31
738.665	-0.31
738.689	-1.31
738.713	-7.31
738.737	20.69
738.762	0.69
738.786	2.69
738.81	-7.31
738.834	13.69
738.858	2.69
738.882	-1.31
738.906	-17.31
738.93	6.69
738.954	6.69
738.978	-2.31
739.002	2.69
739.026	14.69
739.05	5.69
739.074	10.69
739.098	21.69
739.122	23.69
739.146	-0.31
739.17	9.69
739.194	7.69
739.218	2.69
739.242	-5.31
739.266	1.69
739.29	-9.31
739.314	-0.31
739.338	-11.31
739.362	-3.31
739.386	9.69
739.41	-6.31
739.434	-7.31
739.458	10.69
739.482	2.69
739.506	14.69
739.53	8.69
739.554	16.69
739.577	3.69
739.601	25.69
739.625	-4.31
739.649	-19.31
739.673	-19.31
739.697	11.69
739.721	7.69
739.745	-0.31
739.769	12.69
739.793	21.69
739.817	11.69
739.841	-5.31
739.865	-1.31
739.889	-5.31
739.912	6.69
739.936	-11.31
739.96	5.69
739.984	9.69
740.008	-8.31
740.032	3.69
740.056	-0.31
740.08	-2.31
740.104	-13.31
740.127	9.69
740.151	0.69
740.175	8.69
740.199	5.69
740.223	52.69
740.247	8.69
740.271	-3.31
740.295	-5.31
740.318	-11.31
740.342	-9.31
740.366	-7.31
740.39	8.69
740.414	-10.31
740.438	-11.31
740.461	14.69
740.485	6.69
740.509	-3.31
740.533	3.69
740.557	-0.31
740.581	-1.31
740.604	-14.31
740.628	-10.31
740.652	5.69
740.676	-1.31
740.7	-0.31
740.723	-8.31
740.747	-9.31
740.771	6.69
740.795	2.69
740.819	12.69
740.842	9.69
740.866	8.69
740.89	2.69
740.914	8.69
740.938	-4.31
740.961	17.69
740.985	-11.31
741.009	-7.31
741.033	1.69
741.056	-2.31
741.08	-1.31
741.104	3.69
741.128	6.69
741.151	8.69
741.175	-1.31
741.199	1.69
741.223	7.69
741.246	-2.31
741.27	-2.31
741.294	11.69
741.318	-2.31
741.341	-3.31
741.365	-2.31
741.389	6.69
741.413	10.69
741.436	6.69
741.46	12.69
741.484	37.69
741.507	7.69
741.531	21.69
741.555	24.69
741.579	-10.31
741.602	5.69
741.626	3.69
741.65	-2.31
741.673	9.69
741.697	5.69
741.721	-7.31
741.744	-15.31
741.768	-11.31
741.792	3.69
741.815	7.69
741.839	20.69
741.863	14.69
741.886	23.69
741.91	8.69
741.934	2.69
741.957	-3.31
741.981	12.69
742.005	15.69
742.028	-11.31
742.052	-2.31
742.075	4.69
742.099	23.69
742.123	10.69
742.146	-4.31
742.17	4.69
742.194	-6.31
742.217	-3.31
742.241	-7.31
742.264	-8.31
742.288	6.69
742.312	1.69
742.335	-0.31
742.359	-0.31
742.382	11.69
742.406	15.69
742.43	2.69
742.453	-4.31
742.477	1.69
742.5	-1.31
742.524	-6.31
742.548	-12.31
742.571	3.69
742.595	8.69
742.618	9.69
742.642	2.69
742.665	26.69
742.689	7.69
742.712	-2.31
742.736	13.69
742.76	5.69
742.783	-0.31
742.807	-1.31
742.83	3.69
742.854	-17.31
742.877	3.69
742.901	6.69
742.924	0.69
742.948	17.69
742.971	12.69
742.995	4.69
743.018	-11.31
743.042	-15.31
743.065	-0.31
743.089	0.69
743.112	-5.31
743.136	-10.31
743.159	-3.31
743.183	-2.31
743.206	5.69
743.23	4.69
743.253	0.69
743.277	6.69
743.3	-4.31
743.324	-5.31
743.347	-0.31
743.371	6.69
743.394	7.69
743.418	20.69
743.441	7.69
743.465	-0.31
743.488	-1.31
743.512	-5.31
743.535	-5.31
743.558	-13.31
743.582	-5.31
743.605	-3.31
743.629	14.69
743.652	15.69
743.676	4.69
743.699	6.69
743.723	3.69
743.746	3.69
743.769	3.69
743.793	4.69
743.816	-0.31
743.84	3.69
743.863	-5.31
743.886	1.69
743.91	14.69
743.933	3.69
743.957	12.69
743.98	7.69
744.003	-8.31
744.027	-3.31
744.05	-1.31
744.074	-9.31
744.097	-4.31
744.12	-6.31
744.144	-4.31
744.167	8.69
744.19	8.69
744.214	0.69
744.237	-18.31
744.26	11.69
744.284	2.69
744.307	-5.31
744.331	4.69
744.354	-11.31
744.377	-0.31
744.401	1.69
744.424	-0.31
744.447	-13.31
744.471	-10.31
