Data from HighRes_H2D2_15_04_11_07_2024_HR4C61891__37__15-05-38-143.txt Node

Date: Thu Nov 07 15:05:38 EST 2024
User: crc00042
Spectrometer: HR4C6189
Trigger mode: 4
Integration Time (sec): 1.000000E-1
Scans to average: 1
Electric dark correction enabled: true
Nonlinearity correction enabled: false
Boxcar width: 0
XAxis mode: Wavelengths
Number of Pixels in Spectrum: 3648
>>>>>Begin Spectral Data<<<<<
639.567	-70.92
639.602	-70.92
639.636	-70.92
639.67	-45.92
639.704	-5.92
639.738	-12.92
639.773	14.08
639.807	-11.92
639.841	1.08
639.875	-9.92
639.909	-8.92
639.943	-1.92
639.978	-8.92
640.012	5.08
640.046	10.08
640.08	14.08
640.114	11.08
640.148	-0.92
640.182	-16.92
640.217	-9.92
640.251	16.08
640.285	23.08
640.319	-5.92
640.353	-1.92
640.387	-5.92
640.421	11.08
640.455	0.08
640.49	14.08
640.524	-1.92
640.558	13.08
640.592	0.08
640.626	-3.92
640.66	8.08
640.694	-23.92
640.728	8.08
640.762	4.08
640.796	20.08
640.83	15.08
640.865	-1.92
640.899	13.08
640.933	12.08
640.967	3.08
641.001	2.08
641.035	19.08
641.069	0.08
641.103	0.08
641.137	10.08
641.171	3.08
641.205	9.08
641.239	-5.92
641.273	16.08
641.307	16.08
641.341	8.08
641.375	-6.92
641.409	4.08
641.443	11.08
641.477	7.08
641.511	19.08
641.545	-9.92
641.579	11.08
641.614	16.08
641.648	10.08
641.682	2.08
641.716	14.08
641.75	14.08
641.784	2.08
641.818	1.08
641.852	-13.92
641.886	-3.92
641.919	30.08
641.953	11.08
641.987	-9.92
642.021	7.08
642.055	17.08
642.089	15.08
642.123	1.08
642.157	-1.92
642.191	4.08
642.225	11.08
642.259	1.08
642.293	14.08
642.327	0.08
642.361	6.08
642.395	13.08
642.429	14.08
642.463	11.08
642.497	10.08
642.531	0.08
642.565	15.08
642.599	3.08
642.633	-24.92
642.666	-1.92
642.7	30.08
642.734	12.08
642.768	-3.92
642.802	1.08
642.836	2.08
642.87	-4.92
642.904	-3.92
642.938	19.08
642.972	7.08
643.005	1.08
643.039	10.08
643.073	-8.92
643.107	11.08
643.141	10.08
643.175	7.08
643.209	10.08
643.243	19.08
643.276	8.08
643.31	-8.92
643.344	-8.92
643.378	8.08
643.412	10.08
643.446	14.08
643.48	3.08
643.513	8.08
643.547	15.08
643.581	7.08
643.615	14.08
643.649	-3.92
643.683	6.08
643.716	2.08
643.75	24.08
643.784	5.08
643.818	5.08
643.852	3.08
643.886	11.08
643.919	15.08
643.953	9.08
643.987	0.08
644.021	12.08
644.055	28.08
644.088	0.08
644.122	-10.92
644.156	-0.92
644.19	9.08
644.224	13.08
644.257	9.08
644.291	11.08
644.325	-9.92
644.359	-4.92
644.392	10.08
644.426	14.08
644.46	4.08
644.494	5.08
644.527	-15.92
644.561	7.08
644.595	1.08
644.629	-9.92
644.662	-6.92
644.696	25.08
644.73	-2.92
644.764	-1.92
644.797	12.08
644.831	4.08
644.865	14.08
644.899	1.08
644.932	17.08
644.966	2.08
645	17.08
645.033	35.08
645.067	-1.92
645.101	3.08
645.135	7.08
645.168	1.08
645.202	2.08
645.236	1.08
645.269	4.08
645.303	5.08
645.337	-21.92
645.37	-10.92
645.404	6.08
645.438	-10.92
645.471	-3.92
645.505	1.08
645.539	3.08
645.572	-0.92
645.606	-5.92
645.64	9.08
645.673	6.08
645.707	5.08
645.741	22.08
645.774	8.08
645.808	2.08
645.842	15.08
645.875	27.08
645.909	-2.92
645.943	1.08
645.976	13.08
646.01	13.08
646.043	8.08
646.077	10.08
646.111	11.08
646.144	10.08
646.178	11.08
646.212	-1.92
646.245	-3.92
646.279	-10.92
646.312	-10.92
646.346	15.08
646.38	1.08
646.413	16.08
646.447	0.08
646.48	-5.92
646.514	20.08
646.547	6.08
646.581	-4.92
646.615	1.08
646.648	4.08
646.682	15.08
646.715	-14.92
646.749	-3.92
646.782	-7.92
646.816	3.08
646.85	19.08
646.883	3.08
646.917	18.08
646.95	14.08
646.984	13.08
647.017	8.08
647.051	-3.92
647.084	-15.92
647.118	1.08
647.151	2.08
647.185	1.08
647.218	-4.92
647.252	16.08
647.285	0.08
647.319	0.08
647.353	4.08
647.386	19.08
647.42	8.08
647.453	5.08
647.487	0.08
647.52	3.08
647.553	8.08
647.587	-6.92
647.62	-1.92
647.654	9.08
647.687	23.08
647.721	11.08
647.754	14.08
647.788	14.08
647.821	-0.92
647.855	-5.92
647.888	11.08
647.922	20.08
647.955	23.08
647.989	-4.92
648.022	14.08
648.055	7.08
648.089	1.08
648.122	22.08
648.156	20.08
648.189	4.08
648.223	6.08
648.256	8.08
648.29	20.08
648.323	-3.92
648.356	15.08
648.39	8.08
648.423	3.08
648.457	2.08
648.49	18.08
648.523	25.08
648.557	-4.92
648.59	-5.92
648.624	14.08
648.657	1.08
648.69	20.08
648.724	5.08
648.757	24.08
648.791	11.08
648.824	7.08
648.857	30.08
648.891	14.08
648.924	2.08
648.957	10.08
648.991	-8.92
649.024	20.08
649.057	8.08
649.091	-4.92
649.124	0.08
649.158	16.08
649.191	24.08
649.224	15.08
649.258	16.08
649.291	8.08
649.324	-0.92
649.358	10.08
649.391	17.08
649.424	17.08
649.458	8.08
649.491	3.08
649.524	5.08
649.557	8.08
649.591	-5.92
649.624	9.08
649.657	-10.92
649.691	4.08
649.724	2.08
649.757	19.08
649.791	-7.92
649.824	21.08
649.857	14.08
649.89	8.08
649.924	-15.92
649.957	-1.92
649.99	-9.92
650.023	0.08
650.057	0.08
650.09	3.08
650.123	-6.92
650.157	19.08
650.19	20.08
650.223	11.08
650.256	-11.92
650.29	2.08
650.323	1.08
650.356	7.08
650.389	-2.92
650.423	-0.92
650.456	7.08
650.489	-0.92
650.522	12.08
650.555	35.08
650.589	34.08
650.622	18.08
650.655	7.08
650.688	17.08
650.721	-0.92
650.755	-1.92
650.788	12.08
650.821	12.08
650.854	1.08
650.887	10.08
650.921	-1.92
650.954	-0.92
650.987	-6.92
651.02	-0.92
651.053	-2.92
651.087	-2.92
651.12	13.08
651.153	3.08
651.186	6.08
651.219	9.08
651.252	2.08
651.286	12.08
651.319	6.08
651.352	7.08
651.385	8.08
651.418	10.08
651.451	7.08
651.484	4.08
651.518	-13.92
651.551	22.08
651.584	9.08
651.617	23.08
651.65	6.08
651.683	13.08
651.716	12.08
651.749	-10.92
651.783	16.08
651.816	7.08
651.849	0.08
651.882	6.08
651.915	11.08
651.948	-0.92
651.981	6.08
652.014	-3.92
652.047	8.08
652.08	-14.92
652.114	8.08
652.147	-8.92
652.18	12.08
652.213	33.08
652.246	7.08
652.279	6.08
652.312	18.08
652.345	19.08
652.378	11.08
652.411	27.08
652.444	18.08
652.477	-0.92
652.51	7.08
652.543	5.08
652.576	23.08
652.609	3.08
652.642	12.08
652.675	21.08
652.709	18.08
652.742	14.08
652.775	13.08
652.808	18.08
652.841	-2.92
652.874	14.08
652.907	7.08
652.94	-1.92
652.973	-3.92
653.006	-8.92
653.039	1.08
653.072	7.08
653.105	0.08
653.138	1.08
653.171	12.08
653.204	7.08
653.237	16.08
653.27	10.08
653.303	14.08
653.336	11.08
653.368	-1.92
653.401	15.08
653.434	6.08
653.467	10.08
653.5	5.08
653.533	-0.92
653.566	18.08
653.599	1.08
653.632	10.08
653.665	21.08
653.698	-8.92
653.731	10.08
653.764	12.08
653.797	-1.92
653.83	14.08
653.863	4.08
653.896	2.08
653.929	3.08
653.961	24.08
653.994	15.08
654.027	13.08
654.06	8.08
654.093	14.08
654.126	19.08
654.159	0.08
654.192	4.08
654.225	4.08
654.258	6.08
654.29	4.08
654.323	13.08
654.356	9.08
654.389	7.08
654.422	-0.92
654.455	10.08
654.488	0.08
654.521	-2.92
654.553	7.08
654.586	14.08
654.619	13.08
654.652	0.08
654.685	15.08
654.718	8.08
654.751	16.08
654.783	4.08
654.816	30.08
654.849	10.08
654.882	-6.92
654.915	-0.92
654.948	5.08
654.98	-1.92
655.013	12.08
655.046	6.08
655.079	13.08
655.112	9.08
655.144	5.08
655.177	17.08
655.21	35.08
655.243	24.08
655.276	18.08
655.308	14.08
655.341	-1.92
655.374	23.08
655.407	12.08
655.44	-1.92
655.472	20.08
655.505	15.08
655.538	9.08
655.571	-2.92
655.603	6.08
655.636	-3.92
655.669	4.08
655.702	2.08
655.734	-10.92
655.767	-5.92
655.8	17.08
655.833	5.08
655.865	19.08
655.898	11.08
655.931	20.08
655.964	15.08
655.996	17.08
656.029	35.08
656.062	37.08
656.095	46.08
656.127	89.08
656.16	215.08
656.193	617.08
656.225	955.08
656.258	561.08
656.291	209.08
656.324	183.08
656.356	358.08
656.389	757.08
656.422	690.08
656.454	243.08
656.487	75.08
656.52	39.08
656.552	17.08
656.585	7.08
656.618	20.08
656.65	5.08
656.683	19.08
656.716	2.08
656.748	6.08
656.781	9.08
656.814	-6.92
656.846	13.08
656.879	25.08
656.912	14.08
656.944	-3.92
656.977	1.08
657.01	-1.92
657.042	8.08
657.075	1.08
657.108	5.08
657.14	3.08
657.173	23.08
657.205	34.08
657.238	10.08
657.271	12.08
657.303	-7.92
657.336	-0.92
657.369	14.08
657.401	27.08
657.434	14.08
657.466	11.08
657.499	5.08
657.532	14.08
657.564	31.08
657.597	0.08
657.629	4.08
657.662	22.08
657.694	8.08
657.727	2.08
657.76	14.08
657.792	-2.92
657.825	9.08
657.857	-0.92
657.89	12.08
657.922	15.08
657.955	-9.92
657.987	9.08
658.02	21.08
658.053	17.08
658.085	10.08
658.118	3.08
658.15	21.08
658.183	29.08
658.215	17.08
658.248	-8.92
658.28	4.08
658.313	24.08
658.345	15.08
658.378	4.08
658.41	-1.92
658.443	15.08
658.475	2.08
658.508	8.08
658.54	9.08
658.573	3.08
658.605	16.08
658.638	7.08
658.67	1.08
658.703	11.08
658.735	-17.92
658.768	8.08
658.8	5.08
658.833	21.08
658.865	12.08
658.898	8.08
658.93	-4.92
658.963	1.08
658.995	-9.92
659.028	4.08
659.06	-4.92
659.092	3.08
659.125	-6.92
659.157	11.08
659.19	-7.92
659.222	-14.92
659.255	14.08
659.287	27.08
659.32	16.08
659.352	7.08
659.384	7.08
659.417	-9.92
659.449	17.08
659.482	7.08
659.514	12.08
659.546	-9.92
659.579	-3.92
659.611	17.08
659.644	7.08
659.676	-5.92
659.708	12.08
659.741	-1.92
659.773	12.08
659.806	17.08
659.838	18.08
659.87	14.08
659.903	3.08
659.935	28.08
659.967	28.08
660	-1.92
660.032	-24.92
660.065	20.08
660.097	16.08
660.129	9.08
660.162	-10.92
660.194	3.08
660.226	4.08
660.259	17.08
660.291	9.08
660.323	5.08
660.356	13.08
660.388	5.08
660.42	10.08
660.453	23.08
660.485	16.08
660.517	15.08
660.55	17.08
660.582	13.08
660.614	27.08
660.647	13.08
660.679	-11.92
660.711	16.08
660.743	-13.92
660.776	-4.92
660.808	3.08
660.84	-6.92
660.873	5.08
660.905	15.08
660.937	13.08
660.969	-4.92
661.002	18.08
661.034	28.08
661.066	17.08
661.099	12.08
661.131	30.08
661.163	14.08
661.195	14.08
661.228	26.08
661.26	6.08
661.292	19.08
661.324	18.08
661.357	16.08
661.389	4.08
661.421	14.08
661.453	17.08
661.485	8.08
661.518	1.08
661.55	-14.92
661.582	-10.92
661.614	6.08
661.647	3.08
661.679	13.08
661.711	6.08
661.743	-4.92
661.775	3.08
661.808	20.08
661.84	-2.92
661.872	18.08
661.904	4.08
661.936	-6.92
661.969	-13.92
662.001	-3.92
662.033	4.08
662.065	14.08
662.097	28.08
662.129	16.08
662.162	2.08
662.194	13.08
662.226	10.08
662.258	18.08
662.29	16.08
662.322	-5.92
662.355	3.08
662.387	17.08
662.419	8.08
662.451	17.08
662.483	9.08
662.515	7.08
662.547	12.08
662.58	15.08
662.612	1.08
662.644	-19.92
662.676	-3.92
662.708	13.08
662.74	-11.92
662.772	6.08
662.804	14.08
662.836	18.08
662.869	10.08
662.901	19.08
662.933	3.08
662.965	15.08
662.997	4.08
663.029	-9.92
663.061	-15.92
663.093	3.08
663.125	4.08
663.157	14.08
663.189	10.08
663.221	20.08
663.254	8.08
663.286	11.08
663.318	-2.92
663.35	-20.92
663.382	-1.92
663.414	-5.92
663.446	-0.92
663.478	-4.92
663.51	20.08
663.542	5.08
663.574	3.08
663.606	10.08
663.638	-11.92
663.67	-2.92
663.702	-18.92
663.734	-5.92
663.766	12.08
663.798	-4.92
663.83	8.08
663.862	14.08
663.894	23.08
663.926	8.08
663.958	17.08
663.99	11.08
664.022	1.08
664.054	10.08
664.086	-9.92
664.118	-18.92
664.15	-23.92
664.182	4.08
664.214	-7.92
664.246	16.08
664.278	4.08
664.31	8.08
664.342	3.08
664.374	5.08
664.406	0.08
664.438	6.08
664.47	15.08
664.502	20.08
664.534	1.08
664.566	3.08
664.598	17.08
664.63	-14.92
664.662	2.08
664.693	-4.92
664.725	-10.92
664.757	-8.92
664.789	0.08
664.821	-9.92
664.853	-2.92
664.885	-13.92
664.917	2.08
664.949	6.08
664.981	26.08
665.013	6.08
665.045	-2.92
665.076	3.08
665.108	10.08
665.14	11.08
665.172	11.08
665.204	11.08
665.236	3.08
665.268	15.08
665.3	9.08
665.331	8.08
665.363	5.08
665.395	-12.92
665.427	-0.92
665.459	-0.92
665.491	3.08
665.523	15.08
665.555	0.08
665.586	13.08
665.618	3.08
665.65	-0.92
665.682	17.08
665.714	10.08
665.746	3.08
665.777	5.08
665.809	-2.92
665.841	3.08
665.873	7.08
665.905	3.08
665.937	4.08
665.968	16.08
666	-0.92
666.032	16.08
666.064	3.08
666.096	12.08
666.127	25.08
666.159	36.08
666.191	22.08
666.223	10.08
666.255	11.08
666.286	3.08
666.318	-2.92
666.35	12.08
666.382	3.08
666.413	5.08
666.445	-6.92
666.477	-5.92
666.509	2.08
666.54	6.08
666.572	-4.92
666.604	-3.92
666.636	6.08
666.667	13.08
666.699	27.08
666.731	7.08
666.763	-8.92
666.794	4.08
666.826	9.08
666.858	-19.92
666.89	10.08
666.921	6.08
666.953	23.08
666.985	15.08
667.017	20.08
667.048	9.08
667.08	12.08
667.112	3.08
667.143	-13.92
667.175	16.08
667.207	3.08
667.238	18.08
667.27	15.08
667.302	12.08
667.334	-2.92
667.365	20.08
667.397	14.08
667.429	7.08
667.46	17.08
667.492	14.08
667.524	11.08
667.555	6.08
667.587	-2.92
667.619	11.08
667.65	6.08
667.682	15.08
667.714	18.08
667.745	6.08
667.777	6.08
667.808	8.08
667.84	18.08
667.872	6.08
667.903	19.08
667.935	7.08
667.967	6.08
667.998	11.08
668.03	19.08
668.061	19.08
668.093	19.08
668.125	17.08
668.156	12.08
668.188	1.08
668.22	-2.92
668.251	11.08
668.283	16.08
668.314	23.08
668.346	5.08
668.377	10.08
668.409	-13.92
668.441	22.08
668.472	24.08
668.504	12.08
668.535	16.08
668.567	17.08
668.599	19.08
668.63	7.08
668.662	5.08
668.693	18.08
668.725	13.08
668.756	-1.92
668.788	7.08
668.819	-2.92
668.851	8.08
668.882	16.08
668.914	12.08
668.946	0.08
668.977	5.08
669.009	1.08
669.04	-8.92
669.072	-0.92
669.103	7.08
669.135	1.08
669.166	7.08
669.198	5.08
669.229	21.08
669.261	22.08
669.292	10.08
669.324	11.08
669.355	-6.92
669.387	-8.92
669.418	6.08
669.45	8.08
669.481	14.08
669.513	12.08
669.544	17.08
669.576	9.08
669.607	36.08
669.639	19.08
669.67	3.08
669.701	24.08
669.733	-2.92
669.764	4.08
669.796	4.08
669.827	1.08
669.859	3.08
669.89	20.08
669.922	24.08
669.953	3.08
669.985	4.08
670.016	14.08
670.047	-0.92
670.079	2.08
670.11	4.08
670.142	21.08
670.173	9.08
670.204	10.08
670.236	12.08
670.267	12.08
670.299	10.08
670.33	9.08
670.362	15.08
670.393	-0.92
670.424	10.08
670.456	-5.92
670.487	-7.92
670.518	-4.92
670.55	18.08
670.581	14.08
670.613	24.08
670.644	-2.92
670.675	12.08
670.707	-10.92
670.738	-1.92
670.769	-4.92
670.801	-17.92
670.832	3.08
670.864	-11.92
670.895	-7.92
670.926	12.08
670.958	2.08
670.989	12.08
671.02	5.08
671.052	1.08
671.083	2.08
671.114	0.08
671.146	20.08
671.177	14.08
671.208	-5.92
671.24	7.08
671.271	2.08
671.302	12.08
671.333	17.08
671.365	-5.92
671.396	5.08
671.427	10.08
671.459	10.08
671.49	5.08
671.521	20.08
671.553	4.08
671.584	20.08
671.615	-1.92
671.646	6.08
671.678	13.08
671.709	-13.92
671.74	-1.92
671.771	2.08
671.803	5.08
671.834	15.08
671.865	5.08
671.896	22.08
671.928	9.08
671.959	-17.92
671.99	8.08
672.021	9.08
672.053	2.08
672.084	24.08
672.115	8.08
672.146	1.08
672.178	-15.92
672.209	-12.92
672.24	10.08
672.271	26.08
672.303	11.08
672.334	-1.92
672.365	-4.92
672.396	1.08
672.427	14.08
672.459	19.08
672.49	7.08
672.521	13.08
672.552	19.08
672.583	10.08
672.615	14.08
672.646	15.08
672.677	-7.92
672.708	-3.92
672.739	12.08
672.77	13.08
672.802	14.08
672.833	-12.92
672.864	5.08
672.895	0.08
672.926	0.08
672.957	-3.92
672.989	11.08
673.02	3.08
673.051	1.08
673.082	7.08
673.113	-7.92
673.144	-1.92
673.175	4.08
673.206	5.08
673.238	18.08
673.269	5.08
673.3	-9.92
673.331	9.08
673.362	19.08
673.393	8.08
673.424	2.08
673.455	4.08
673.487	-9.92
673.518	18.08
673.549	18.08
673.58	3.08
673.611	5.08
673.642	6.08
673.673	-15.92
673.704	-10.92
673.735	8.08
673.766	0.08
673.797	2.08
673.828	-1.92
673.86	9.08
673.891	4.08
673.922	-3.92
673.953	-16.92
673.984	5.08
674.015	27.08
674.046	0.08
674.077	8.08
674.108	-15.92
674.139	12.08
674.17	-1.92
674.201	-8.92
674.232	9.08
674.263	-11.92
674.294	-20.92
674.325	-9.92
674.356	11.08
674.387	12.08
674.418	0.08
674.449	-3.92
674.48	1.08
674.511	7.08
674.542	14.08
674.573	2.08
674.604	12.08
674.635	15.08
674.666	15.08
674.697	16.08
674.728	13.08
674.759	-0.92
674.79	-2.92
674.821	7.08
674.852	-5.92
674.883	-14.92
674.914	1.08
674.945	10.08
674.976	10.08
675.007	1.08
675.038	5.08
675.069	12.08
675.1	2.08
675.131	6.08
675.162	-11.92
675.193	0.08
675.224	-4.92
675.254	6.08
675.285	11.08
675.316	22.08
675.347	14.08
675.378	-9.92
675.409	-4.92
675.44	5.08
675.471	-4.92
675.502	-1.92
675.533	18.08
675.564	3.08
675.595	-1.92
675.625	34.08
675.656	26.08
675.687	4.08
675.718	1.08
675.749	19.08
675.78	6.08
675.811	12.08
675.842	1.08
675.873	-1.92
675.903	4.08
675.934	23.08
675.965	14.08
675.996	2.08
676.027	6.08
676.058	4.08
676.089	-7.92
676.119	4.08
676.15	-4.92
676.181	5.08
676.212	-1.92
676.243	16.08
676.274	-1.92
676.304	17.08
676.335	-2.92
676.366	0.08
676.397	4.08
676.428	13.08
676.459	15.08
676.489	33.08
676.52	10.08
676.551	10.08
676.582	-9.92
676.613	23.08
676.643	10.08
676.674	4.08
676.705	3.08
676.736	-0.92
676.767	19.08
676.797	9.08
676.828	27.08
676.859	12.08
676.89	12.08
676.92	0.08
676.951	-8.92
676.982	-6.92
677.013	11.08
677.044	20.08
677.074	7.08
677.105	-3.92
677.136	13.08
677.167	14.08
677.197	19.08
677.228	13.08
677.259	12.08
677.289	7.08
677.32	5.08
677.351	1.08
677.382	15.08
677.412	-1.92
677.443	17.08
677.474	11.08
677.505	10.08
677.535	1.08
677.566	0.08
677.597	2.08
677.627	-12.92
677.658	1.08
677.689	1.08
677.72	6.08
677.75	1.08
677.781	8.08
677.812	4.08
677.842	5.08
677.873	11.08
677.904	10.08
677.934	17.08
677.965	3.08
677.996	-13.92
678.026	5.08
678.057	11.08
678.088	-4.92
678.118	7.08
678.149	-5.92
678.18	10.08
678.21	8.08
678.241	16.08
678.272	-4.92
678.302	9.08
678.333	15.08
678.363	21.08
678.394	2.08
678.425	0.08
678.455	7.08
678.486	8.08
678.517	20.08
678.547	5.08
678.578	-3.92
678.608	-13.92
678.639	1.08
678.67	0.08
678.7	-13.92
678.731	3.08
678.761	5.08
678.792	-1.92
678.823	10.08
678.853	17.08
678.884	5.08
678.914	16.08
678.945	1.08
678.975	-10.92
679.006	2.08
679.037	-0.92
679.067	17.08
679.098	3.08
679.128	-6.92
679.159	-10.92
679.189	9.08
679.22	-3.92
679.25	25.08
679.281	-4.92
679.312	13.08
679.342	1.08
679.373	19.08
679.403	6.08
679.434	7.08
679.464	-2.92
679.495	-4.92
679.525	10.08
679.556	10.08
679.586	14.08
679.617	16.08
679.647	11.08
679.678	2.08
679.708	-1.92
679.739	17.08
679.769	17.08
679.8	10.08
679.83	-2.92
679.861	9.08
679.891	5.08
679.922	6.08
679.952	0.08
679.983	12.08
680.013	12.08
680.044	1.08
680.074	13.08
680.105	27.08
680.135	5.08
680.165	11.08
680.196	20.08
680.226	21.08
680.257	29.08
680.287	14.08
680.318	11.08
680.348	5.08
680.379	20.08
680.409	5.08
680.439	4.08
680.47	8.08
680.5	10.08
680.531	18.08
680.561	14.08
680.592	4.08
680.622	15.08
680.652	5.08
680.683	25.08
680.713	10.08
680.744	2.08
680.774	-0.92
680.804	23.08
680.835	11.08
680.865	4.08
680.896	8.08
680.926	9.08
680.956	14.08
680.987	6.08
681.017	1.08
681.047	11.08
681.078	-2.92
681.108	12.08
681.139	7.08
681.169	4.08
681.199	-0.92
681.23	6.08
681.26	16.08
681.29	15.08
681.321	-3.92
681.351	1.08
681.381	-9.92
681.412	17.08
681.442	3.08
681.472	21.08
681.503	12.08
681.533	6.08
681.563	0.08
681.594	16.08
681.624	24.08
681.654	-0.92
681.685	4.08
681.715	19.08
681.745	14.08
681.775	9.08
681.806	20.08
681.836	19.08
681.866	1.08
681.897	11.08
681.927	6.08
681.957	-0.92
681.987	6.08
682.018	8.08
682.048	19.08
682.078	15.08
682.109	20.08
682.139	10.08
682.169	8.08
682.199	14.08
682.23	7.08
682.26	14.08
682.29	7.08
682.32	6.08
682.351	2.08
682.381	5.08
682.411	11.08
682.441	4.08
682.472	-0.92
682.502	-1.92
682.532	3.08
682.562	-0.92
682.592	11.08
682.623	7.08
682.653	2.08
682.683	8.08
682.713	21.08
682.743	11.08
682.774	8.08
682.804	6.08
682.834	12.08
682.864	2.08
682.894	-4.92
682.925	-4.92
682.955	-0.92
682.985	-3.92
683.015	-0.92
683.045	15.08
683.076	-12.92
683.106	4.08
683.136	-5.92
683.166	19.08
683.196	10.08
683.226	8.08
683.257	-4.92
683.287	-5.92
683.317	-4.92
683.347	7.08
683.377	18.08
683.407	8.08
683.437	19.08
683.468	22.08
683.498	2.08
683.528	0.08
683.558	9.08
683.588	2.08
683.618	10.08
683.648	2.08
683.678	3.08
683.708	10.08
683.739	9.08
683.769	11.08
683.799	17.08
683.829	9.08
683.859	8.08
683.889	22.08
683.919	5.08
683.949	-4.92
683.979	0.08
684.009	-6.92
684.039	-0.92
684.07	-10.92
684.1	17.08
684.13	5.08
684.16	19.08
684.19	13.08
684.22	-4.92
684.25	2.08
684.28	4.08
684.31	24.08
684.34	18.08
684.37	3.08
684.4	11.08
684.43	5.08
684.46	19.08
684.49	6.08
684.52	0.08
684.55	18.08
684.58	-1.92
684.61	-24.92
684.64	17.08
684.67	20.08
684.7	1.08
684.73	10.08
684.76	8.08
684.79	18.08
684.82	12.08
684.85	-5.92
684.88	15.08
684.91	8.08
684.94	7.08
684.97	2.08
685	11.08
685.03	7.08
685.06	0.08
685.09	9.08
685.12	32.08
685.15	11.08
685.18	20.08
685.21	-3.92
685.24	20.08
685.27	14.08
685.3	1.08
685.33	17.08
685.36	10.08
685.39	-1.92
685.42	2.08
685.45	-18.92
685.48	0.08
685.51	8.08
685.54	40.08
685.569	14.08
685.599	5.08
685.629	10.08
685.659	9.08
685.689	20.08
685.719	23.08
685.749	9.08
685.779	26.08
685.809	16.08
685.839	15.08
685.869	3.08
685.898	-0.92
685.928	16.08
685.958	7.08
685.988	35.08
686.018	19.08
686.048	6.08
686.078	10.08
686.108	13.08
686.137	3.08
686.167	20.08
686.197	-8.92
686.227	-2.92
686.257	24.08
686.287	15.08
686.317	9.08
686.346	0.08
686.376	-14.92
686.406	-6.92
686.436	7.08
686.466	10.08
686.496	11.08
686.525	7.08
686.555	11.08
686.585	20.08
686.615	32.08
686.645	14.08
686.675	8.08
686.704	19.08
686.734	8.08
686.764	5.08
686.794	6.08
686.824	-8.92
686.853	22.08
686.883	20.08
686.913	14.08
686.943	12.08
686.973	3.08
687.002	10.08
687.032	13.08
687.062	1.08
687.092	27.08
687.121	-1.92
687.151	7.08
687.181	12.08
687.211	18.08
687.24	11.08
687.27	8.08
687.3	14.08
687.33	10.08
687.359	-10.92
687.389	-5.92
687.419	-2.92
687.449	12.08
687.478	-5.92
687.508	5.08
687.538	12.08
687.568	12.08
687.597	-2.92
687.627	4.08
687.657	-0.92
687.686	5.08
687.716	34.08
687.746	13.08
687.776	7.08
687.805	20.08
687.835	17.08
687.865	17.08
687.894	14.08
687.924	-2.92
687.954	16.08
687.983	0.08
688.013	3.08
688.043	19.08
688.072	10.08
688.102	21.08
688.132	2.08
688.161	8.08
688.191	0.08
688.221	27.08
688.25	-0.92
688.28	4.08
688.31	20.08
688.339	21.08
688.369	1.08
688.399	4.08
688.428	3.08
688.458	13.08
688.488	11.08
688.517	22.08
688.547	8.08
688.576	29.08
688.606	17.08
688.636	-8.92
688.665	14.08
688.695	-0.92
688.725	24.08
688.754	12.08
688.784	2.08
688.813	-4.92
688.843	13.08
688.873	11.08
688.902	2.08
688.932	1.08
688.961	17.08
688.991	30.08
689.02	10.08
689.05	6.08
689.08	14.08
689.109	23.08
689.139	1.08
689.168	1.08
689.198	18.08
689.227	-3.92
689.257	14.08
689.287	10.08
689.316	4.08
689.346	-5.92
689.375	-4.92
689.405	17.08
689.434	-0.92
689.464	12.08
689.493	1.08
689.523	0.08
689.552	8.08
689.582	-5.92
689.611	5.08
689.641	7.08
689.67	15.08
689.7	8.08
689.73	21.08
689.759	14.08
689.789	5.08
689.818	7.08
689.848	12.08
689.877	19.08
689.906	2.08
689.936	-4.92
689.965	18.08
689.995	5.08
690.024	14.08
690.054	11.08
690.083	11.08
690.113	6.08
690.142	-5.92
690.172	-2.92
690.201	1.08
690.231	11.08
690.26	5.08
690.29	9.08
690.319	26.08
690.348	10.08
690.378	6.08
690.407	32.08
690.437	-1.92
690.466	-8.92
690.496	13.08
690.525	22.08
690.555	-2.92
690.584	16.08
690.613	2.08
690.643	0.08
690.672	27.08
690.702	16.08
690.731	9.08
690.76	18.08
690.79	10.08
690.819	-4.92
690.849	13.08
690.878	10.08
690.907	13.08
690.937	20.08
690.966	15.08
690.996	15.08
691.025	15.08
691.054	14.08
691.084	3.08
691.113	25.08
691.142	21.08
691.172	14.08
691.201	16.08
691.23	17.08
691.26	27.08
691.289	17.08
691.319	-10.92
691.348	12.08
691.377	14.08
691.407	10.08
691.436	27.08
691.465	13.08
691.495	1.08
691.524	5.08
691.553	-2.92
691.583	-3.92
691.612	27.08
691.641	9.08
691.67	9.08
691.7	4.08
691.729	-5.92
691.758	4.08
691.788	0.08
691.817	5.08
691.846	22.08
691.876	-1.92
691.905	22.08
691.934	7.08
691.963	18.08
691.993	15.08
692.022	10.08
692.051	-10.92
692.081	12.08
692.11	12.08
692.139	14.08
692.168	11.08
692.198	21.08
692.227	15.08
692.256	27.08
692.285	17.08
692.315	14.08
692.344	16.08
692.373	7.08
692.402	-1.92
692.432	-13.92
692.461	8.08
692.49	18.08
692.519	-2.92
692.548	15.08
692.578	30.08
692.607	2.08
692.636	15.08
692.665	33.08
692.694	10.08
692.724	6.08
692.753	9.08
692.782	15.08
692.811	-11.92
692.84	12.08
692.87	12.08
692.899	6.08
692.928	-9.92
692.957	1.08
692.986	28.08
693.016	13.08
693.045	22.08
693.074	3.08
693.103	8.08
693.132	-3.92
693.161	28.08
693.191	-18.92
693.22	-13.92
693.249	8.08
693.278	4.08
693.307	7.08
693.336	-10.92
693.365	-9.92
693.395	10.08
693.424	7.08
693.453	3.08
693.482	15.08
693.511	23.08
693.54	25.08
693.569	1.08
693.598	12.08
693.628	11.08
693.657	21.08
693.686	28.08
693.715	19.08
693.744	7.08
693.773	22.08
693.802	9.08
693.831	10.08
693.86	17.08
693.889	16.08
693.919	15.08
693.948	-4.92
693.977	2.08
694.006	-4.92
694.035	0.08
694.064	3.08
694.093	20.08
694.122	14.08
694.151	10.08
694.18	10.08
694.209	15.08
694.238	18.08
694.267	19.08
694.296	20.08
694.325	15.08
694.354	18.08
694.383	5.08
694.412	9.08
694.441	4.08
694.471	5.08
694.5	-10.92
694.529	10.08
694.558	14.08
694.587	26.08
694.616	12.08
694.645	10.08
694.674	17.08
694.703	10.08
694.732	20.08
694.761	18.08
694.79	27.08
694.819	-10.92
694.848	26.08
694.877	17.08
694.906	27.08
694.935	19.08
694.963	18.08
694.992	2.08
695.021	19.08
695.05	16.08
695.079	10.08
695.108	13.08
695.137	30.08
695.166	16.08
695.195	14.08
695.224	6.08
695.253	7.08
695.282	12.08
695.311	13.08
695.34	1.08
695.369	20.08
695.398	4.08
695.427	26.08
695.456	7.08
695.485	11.08
695.513	6.08
695.542	23.08
695.571	14.08
695.6	9.08
695.629	9.08
695.658	19.08
695.687	29.08
695.716	21.08
695.745	43.08
695.774	-5.92
695.802	4.08
695.831	17.08
695.86	11.08
695.889	18.08
695.918	8.08
695.947	9.08
695.976	23.08
696.005	41.08
696.033	3.08
696.062	9.08
696.091	6.08
696.12	9.08
696.149	20.08
696.178	5.08
696.207	12.08
696.235	1.08
696.264	16.08
696.293	3.08
696.322	2.08
696.351	-1.92
696.38	0.08
696.408	3.08
696.437	-4.92
696.466	5.08
696.495	34.08
696.524	14.08
696.553	13.08
696.581	14.08
696.61	5.08
696.639	10.08
696.668	19.08
696.697	10.08
696.725	18.08
696.754	14.08
696.783	17.08
696.812	3.08
696.84	2.08
696.869	20.08
696.898	4.08
696.927	-5.92
696.956	36.08
696.984	1.08
697.013	1.08
697.042	17.08
697.071	19.08
697.099	22.08
697.128	13.08
697.157	14.08
697.186	19.08
697.214	1.08
697.243	-5.92
697.272	-0.92
697.301	29.08
697.329	15.08
697.358	14.08
697.387	23.08
697.415	4.08
697.444	22.08
697.473	15.08
697.502	14.08
697.53	4.08
697.559	-9.92
697.588	11.08
697.616	-5.92
697.645	9.08
697.674	9.08
697.703	19.08
697.731	20.08
697.76	14.08
697.789	-0.92
697.817	12.08
697.846	21.08
697.875	10.08
697.903	42.08
697.932	22.08
697.961	0.08
697.989	22.08
698.018	20.08
698.047	7.08
698.075	5.08
698.104	-1.92
698.133	11.08
698.161	-7.92
698.19	2.08
698.218	16.08
698.247	5.08
698.276	-8.92
698.304	19.08
698.333	15.08
698.362	16.08
698.39	13.08
698.419	26.08
698.447	10.08
698.476	0.08
698.505	35.08
698.533	11.08
698.562	30.08
698.591	3.08
698.619	4.08
698.648	12.08
698.676	23.08
698.705	6.08
698.733	-9.92
698.762	14.08
698.791	9.08
698.819	14.08
698.848	14.08
698.876	2.08
698.905	22.08
698.933	19.08
698.962	16.08
698.991	16.08
699.019	22.08
699.048	5.08
699.076	10.08
699.105	12.08
699.133	17.08
699.162	10.08
699.19	28.08
699.219	32.08
699.248	18.08
699.276	6.08
699.305	-1.92
699.333	17.08
699.362	12.08
699.39	2.08
699.419	9.08
699.447	13.08
699.476	28.08
699.504	2.08
699.533	8.08
699.561	8.08
699.59	16.08
699.618	16.08
699.647	21.08
699.675	9.08
699.704	22.08
699.732	7.08
699.761	24.08
699.789	17.08
699.818	12.08
699.846	2.08
699.874	-14.92
699.903	0.08
699.931	18.08
699.96	28.08
699.988	-1.92
700.017	-4.92
700.045	4.08
700.074	-0.92
700.102	16.08
700.13	-2.92
700.159	15.08
700.187	12.08
700.216	-20.92
700.244	-15.92
700.273	3.08
700.301	12.08
700.329	24.08
700.358	6.08
700.386	-1.92
700.415	26.08
700.443	10.08
700.472	17.08
700.5	9.08
700.528	10.08
700.557	4.08
700.585	-1.92
700.614	6.08
700.642	26.08
700.67	19.08
700.699	15.08
700.727	4.08
700.755	14.08
700.784	13.08
700.812	5.08
700.841	13.08
700.869	7.08
700.897	-3.92
700.926	10.08
700.954	12.08
700.982	16.08
701.011	22.08
701.039	19.08
701.067	19.08
701.096	15.08
701.124	9.08
701.152	8.08
701.181	3.08
701.209	5.08
701.237	11.08
701.266	-4.92
701.294	-2.92
701.322	6.08
701.351	20.08
701.379	0.08
701.407	16.08
701.435	23.08
701.464	27.08
701.492	14.08
701.52	-0.92
701.549	3.08
701.577	7.08
701.605	7.08
701.634	4.08
701.662	19.08
701.69	3.08
701.718	1.08
701.747	24.08
701.775	15.08
701.803	6.08
701.831	18.08
701.86	7.08
701.888	19.08
701.916	-8.92
701.944	4.08
701.973	-0.92
702.001	4.08
702.029	-3.92
702.057	-3.92
702.086	-0.92
702.114	-7.92
702.142	11.08
702.17	10.08
702.199	18.08
702.227	23.08
702.255	11.08
702.283	-6.92
702.311	15.08
702.34	30.08
702.368	10.08
702.396	-1.92
702.424	-3.92
702.452	4.08
702.481	5.08
702.509	9.08
702.537	21.08
702.565	20.08
702.593	0.08
702.621	10.08
702.65	19.08
702.678	18.08
702.706	15.08
702.734	4.08
702.762	22.08
702.79	16.08
702.819	1.08
702.847	11.08
702.875	15.08
702.903	21.08
702.931	6.08
702.959	6.08
702.988	12.08
703.016	-12.92
703.044	-0.92
703.072	9.08
703.1	3.08
703.128	6.08
703.156	5.08
703.184	2.08
703.212	22.08
703.241	9.08
703.269	5.08
703.297	8.08
703.325	4.08
703.353	10.08
703.381	-6.92
703.409	9.08
703.437	1.08
703.465	-5.92
703.493	0.08
703.522	17.08
703.55	10.08
703.578	18.08
703.606	-1.92
703.634	16.08
703.662	2.08
703.69	3.08
703.718	13.08
703.746	20.08
703.774	2.08
703.802	24.08
703.83	4.08
703.858	5.08
703.886	-9.92
703.914	0.08
703.942	25.08
703.97	6.08
703.998	-3.92
704.027	23.08
704.055	13.08
704.083	5.08
704.111	2.08
704.139	-0.92
704.167	1.08
704.195	4.08
704.223	9.08
704.251	10.08
704.279	9.08
704.307	27.08
704.335	0.08
704.363	11.08
704.391	0.08
704.419	5.08
704.447	-2.92
704.475	-7.92
704.503	-20.92
704.531	10.08
704.558	15.08
704.586	-1.92
704.614	3.08
704.642	-7.92
704.67	-5.92
704.698	4.08
704.726	20.08
704.754	7.08
704.782	6.08
704.81	0.08
704.838	27.08
704.866	8.08
704.894	13.08
704.922	13.08
704.95	12.08
704.978	7.08
705.006	9.08
705.034	25.08
705.061	-8.92
705.089	4.08
705.117	-6.92
705.145	-5.92
705.173	7.08
705.201	14.08
705.229	11.08
705.257	10.08
705.285	11.08
705.313	12.08
705.34	13.08
705.368	1.08
705.396	13.08
705.424	24.08
705.452	4.08
705.48	16.08
705.508	4.08
705.536	5.08
705.563	4.08
705.591	-6.92
705.619	-0.92
705.647	5.08
705.675	18.08
705.703	9.08
705.731	1.08
705.758	19.08
705.786	15.08
705.814	18.08
705.842	14.08
705.87	28.08
705.898	30.08
705.925	9.08
705.953	11.08
705.981	-16.92
706.009	5.08
706.037	6.08
706.065	11.08
706.092	11.08
706.12	10.08
706.148	10.08
706.176	5.08
706.204	4.08
706.231	15.08
706.259	-5.92
706.287	5.08
706.315	7.08
706.342	-20.92
706.37	17.08
706.398	12.08
706.426	11.08
706.454	-4.92
706.481	3.08
706.509	15.08
706.537	8.08
706.565	-2.92
706.592	19.08
706.62	14.08
706.648	13.08
706.676	-4.92
706.703	6.08
706.731	19.08
706.759	1.08
706.787	2.08
706.814	1.08
706.842	10.08
706.87	14.08
706.897	19.08
706.925	16.08
706.953	25.08
706.981	24.08
707.008	14.08
707.036	13.08
707.064	8.08
707.091	-1.92
707.119	19.08
707.147	7.08
707.174	15.08
707.202	3.08
707.23	-3.92
707.258	15.08
707.285	-6.92
707.313	17.08
707.341	9.08
707.368	-9.92
707.396	4.08
707.424	27.08
707.451	19.08
707.479	11.08
707.507	17.08
707.534	-3.92
707.562	10.08
707.59	-4.92
707.617	-3.92
707.645	6.08
707.672	8.08
707.7	7.08
707.728	12.08
707.755	14.08
707.783	-5.92
707.811	3.08
707.838	1.08
707.866	13.08
707.893	9.08
707.921	-1.92
707.949	13.08
707.976	12.08
708.004	8.08
708.031	10.08
708.059	-4.92
708.087	9.08
708.114	5.08
708.142	3.08
708.169	8.08
708.197	0.08
708.225	6.08
708.252	-1.92
708.28	3.08
708.307	-5.92
708.335	2.08
708.362	2.08
708.39	-3.92
708.418	7.08
708.445	-3.92
708.473	6.08
708.5	6.08
708.528	20.08
708.555	7.08
708.583	6.08
708.61	-6.92
708.638	13.08
708.665	-11.92
708.693	9.08
708.72	9.08
708.748	2.08
708.776	0.08
708.803	10.08
708.831	11.08
708.858	5.08
708.886	-6.92
708.913	28.08
708.941	8.08
708.968	21.08
708.996	5.08
709.023	12.08
709.051	5.08
709.078	9.08
709.105	2.08
709.133	1.08
709.16	2.08
709.188	2.08
709.215	9.08
709.243	9.08
709.27	-14.92
709.298	-1.92
709.325	-3.92
709.353	2.08
709.38	19.08
709.408	30.08
709.435	18.08
709.462	6.08
709.49	6.08
709.517	8.08
709.545	9.08
709.572	1.08
709.6	-1.92
709.627	1.08
709.655	-1.92
709.682	4.08
709.709	6.08
709.737	-11.92
709.764	3.08
709.792	18.08
709.819	-4.92
709.846	7.08
709.874	9.08
709.901	18.08
709.929	35.08
709.956	15.08
709.983	9.08
710.011	4.08
710.038	-0.92
710.066	7.08
710.093	18.08
710.12	0.08
710.148	2.08
710.175	-2.92
710.202	-11.92
710.23	15.08
710.257	16.08
710.284	25.08
710.312	5.08
710.339	-10.92
710.366	0.08
710.394	9.08
710.421	2.08
710.448	-4.92
710.476	-14.92
710.503	13.08
710.53	17.08
710.558	23.08
710.585	12.08
710.612	-8.92
710.64	4.08
710.667	9.08
710.694	6.08
710.722	14.08
710.749	19.08
710.776	15.08
710.804	22.08
710.831	4.08
710.858	10.08
710.885	7.08
710.913	7.08
710.94	17.08
710.967	7.08
710.995	2.08
711.022	2.08
711.049	5.08
711.076	5.08
711.104	10.08
711.131	-4.92
711.158	20.08
711.185	26.08
711.213	5.08
711.24	9.08
711.267	0.08
711.294	8.08
711.322	15.08
711.349	-2.92
711.376	3.08
711.403	-5.92
711.431	13.08
711.458	10.08
711.485	-1.92
711.512	10.08
711.54	13.08
711.567	2.08
711.594	-1.92
711.621	0.08
711.648	5.08
711.676	9.08
711.703	-3.92
711.73	-2.92
711.757	5.08
711.784	16.08
711.812	11.08
711.839	5.08
711.866	3.08
711.893	-10.92
711.92	24.08
711.947	10.08
711.975	22.08
712.002	9.08
712.029	2.08
712.056	20.08
712.083	19.08
712.11	-0.92
712.138	18.08
712.165	6.08
712.192	16.08
712.219	7.08
712.246	7.08
712.273	8.08
712.3	10.08
712.328	8.08
712.355	15.08
712.382	1.08
712.409	15.08
712.436	6.08
712.463	5.08
712.49	14.08
712.517	8.08
712.544	11.08
712.572	16.08
712.599	-6.92
712.626	14.08
712.653	-4.92
712.68	-15.92
712.707	12.08
712.734	10.08
712.761	2.08
712.788	19.08
712.815	3.08
712.842	15.08
712.87	13.08
712.897	-6.92
712.924	3.08
712.951	24.08
712.978	7.08
713.005	9.08
713.032	11.08
713.059	22.08
713.086	5.08
713.113	-3.92
713.14	-9.92
713.167	-0.92
713.194	22.08
713.221	6.08
713.248	7.08
713.275	1.08
713.302	-6.92
713.329	6.08
713.356	2.08
713.383	18.08
713.41	14.08
713.437	-11.92
713.464	5.08
713.491	-1.92
713.518	23.08
713.545	14.08
713.572	10.08
713.599	26.08
713.626	4.08
713.653	23.08
713.68	-11.92
713.707	6.08
713.734	7.08
713.761	8.08
713.788	-0.92
713.815	20.08
713.842	8.08
713.869	11.08
713.896	18.08
713.923	11.08
713.95	-0.92
713.977	-3.92
714.004	6.08
714.031	-10.92
714.058	7.08
714.085	0.08
714.112	20.08
714.139	14.08
714.165	20.08
714.192	7.08
714.219	15.08
714.246	12.08
714.273	14.08
714.3	2.08
714.327	15.08
714.354	15.08
714.381	7.08
714.408	7.08
714.435	10.08
714.461	4.08
714.488	20.08
714.515	1.08
714.542	7.08
714.569	8.08
714.596	-5.92
714.623	-4.92
714.65	-6.92
714.677	5.08
714.703	11.08
714.73	23.08
714.757	0.08
714.784	5.08
714.811	-9.92
714.838	6.08
714.865	1.08
714.891	22.08
714.918	11.08
714.945	1.08
714.972	13.08
714.999	12.08
715.026	-1.92
715.052	18.08
715.079	0.08
715.106	6.08
715.133	14.08
715.16	9.08
715.187	11.08
715.213	16.08
715.24	0.08
715.267	5.08
715.294	-7.92
715.321	-2.92
715.347	5.08
715.374	2.08
715.401	3.08
715.428	11.08
715.455	9.08
715.481	-3.92
715.508	14.08
715.535	-4.92
715.562	22.08
715.588	18.08
715.615	2.08
715.642	8.08
715.669	18.08
715.695	-0.92
715.722	-3.92
715.749	0.08
715.776	9.08
715.802	6.08
715.829	20.08
715.856	10.08
715.883	26.08
715.909	8.08
715.936	3.08
715.963	15.08
715.99	-5.92
716.016	15.08
716.043	8.08
716.07	3.08
716.096	9.08
716.123	13.08
716.15	7.08
716.177	19.08
716.203	13.08
716.23	5.08
716.257	17.08
716.283	17.08
716.31	3.08
716.337	1.08
716.363	11.08
716.39	10.08
716.417	23.08
716.443	21.08
716.47	11.08
716.497	18.08
716.523	26.08
716.55	18.08
716.577	12.08
716.603	6.08
716.63	12.08
716.657	29.08
716.683	-5.92
716.71	15.08
716.737	9.08
716.763	6.08
716.79	-5.92
716.817	7.08
716.843	10.08
716.87	-0.92
716.897	4.08
716.923	11.08
716.95	9.08
716.976	-2.92
717.003	-3.92
717.03	14.08
717.056	7.08
717.083	12.08
717.109	21.08
717.136	22.08
717.163	5.08
717.189	2.08
717.216	18.08
717.242	6.08
717.269	6.08
717.296	-3.92
717.322	13.08
717.349	5.08
717.375	9.08
717.402	-8.92
717.428	11.08
717.455	12.08
717.481	3.08
717.508	19.08
717.535	8.08
717.561	12.08
717.588	-2.92
717.614	15.08
717.641	8.08
717.667	11.08
717.694	4.08
717.72	1.08
717.747	11.08
717.773	4.08
717.8	10.08
717.826	22.08
717.853	13.08
717.88	9.08
717.906	1.08
717.933	15.08
717.959	12.08
717.986	26.08
718.012	4.08
718.039	11.08
718.065	14.08
718.092	5.08
718.118	0.08
718.144	9.08
718.171	32.08
718.197	26.08
718.224	10.08
718.25	9.08
718.277	12.08
718.303	11.08
718.33	14.08
718.356	1.08
718.383	-4.92
718.409	18.08
718.436	21.08
718.462	10.08
718.489	16.08
718.515	33.08
718.541	41.08
718.568	13.08
718.594	28.08
718.621	20.08
718.647	7.08
718.674	21.08
718.7	19.08
718.726	17.08
718.753	13.08
718.779	20.08
718.806	-11.92
718.832	1.08
718.858	3.08
718.885	15.08
718.911	6.08
718.938	31.08
718.964	6.08
718.99	20.08
719.017	15.08
719.043	17.08
719.07	10.08
719.096	3.08
719.122	-0.92
719.149	27.08
719.175	17.08
719.201	15.08
719.228	8.08
719.254	13.08
719.281	-2.92
719.307	13.08
719.333	4.08
719.36	31.08
719.386	10.08
719.412	14.08
719.439	4.08
719.465	5.08
719.491	-4.92
719.518	20.08
719.544	6.08
719.57	10.08
719.597	8.08
719.623	-0.92
719.649	20.08
719.675	6.08
719.702	13.08
719.728	15.08
719.754	2.08
719.781	1.08
719.807	-4.92
719.833	-2.92
719.86	9.08
719.886	-0.92
719.912	2.08
719.938	2.08
719.965	7.08
719.991	19.08
720.017	21.08
720.044	-1.92
720.07	9.08
720.096	16.08
720.122	13.08
720.149	4.08
720.175	25.08
720.201	13.08
720.227	6.08
720.254	15.08
720.28	7.08
720.306	2.08
720.332	10.08
720.359	5.08
720.385	5.08
720.411	17.08
720.437	10.08
720.463	8.08
720.49	15.08
720.516	9.08
720.542	-0.92
720.568	1.08
720.595	20.08
720.621	7.08
720.647	10.08
720.673	16.08
720.699	14.08
720.725	-4.92
720.752	6.08
720.778	14.08
720.804	4.08
720.83	24.08
720.856	16.08
720.883	4.08
720.909	14.08
720.935	29.08
720.961	26.08
720.987	7.08
721.013	19.08
721.04	-9.92
721.066	2.08
721.092	8.08
721.118	16.08
721.144	14.08
721.17	10.08
721.196	7.08
721.223	-2.92
721.249	8.08
721.275	23.08
721.301	16.08
721.327	28.08
721.353	26.08
721.379	11.08
721.405	10.08
721.432	14.08
721.458	-4.92
721.484	12.08
721.51	-8.92
721.536	11.08
721.562	13.08
721.588	4.08
721.614	-1.92
721.64	9.08
721.666	5.08
721.693	5.08
721.719	4.08
721.745	-20.92
721.771	13.08
721.797	10.08
721.823	13.08
721.849	24.08
721.875	27.08
721.901	14.08
721.927	-6.92
721.953	10.08
721.979	24.08
722.005	4.08
722.031	2.08
722.057	27.08
722.083	16.08
722.109	12.08
722.135	24.08
722.161	6.08
722.187	6.08
722.214	0.08
722.24	14.08
722.266	-9.92
722.292	15.08
722.318	24.08
722.344	15.08
722.37	17.08
722.396	1.08
722.422	6.08
722.448	13.08
722.474	20.08
722.5	10.08
722.526	17.08
722.552	9.08
722.578	1.08
722.603	18.08
722.629	-0.92
722.655	20.08
722.681	5.08
722.707	4.08
722.733	-9.92
722.759	8.08
722.785	15.08
722.811	6.08
722.837	-1.92
722.863	15.08
722.889	10.08
722.915	-2.92
722.941	-1.92
722.967	9.08
722.993	27.08
723.019	23.08
723.045	19.08
723.071	14.08
723.097	-3.92
723.122	24.08
723.148	7.08
723.174	-4.92
723.2	4.08
723.226	6.08
723.252	21.08
723.278	16.08
723.304	0.08
723.33	2.08
723.356	-9.92
723.381	-8.92
723.407	-3.92
723.433	5.08
723.459	-6.92
723.485	8.08
723.511	5.08
723.537	4.08
723.563	12.08
723.588	9.08
723.614	4.08
723.64	18.08
723.666	9.08
723.692	17.08
723.718	7.08
723.744	1.08
723.769	2.08
723.795	-5.92
723.821	13.08
723.847	3.08
723.873	24.08
723.899	14.08
723.924	10.08
723.95	3.08
723.976	8.08
724.002	9.08
724.028	23.08
724.053	14.08
724.079	22.08
724.105	9.08
724.131	9.08
724.157	-2.92
724.182	20.08
724.208	-0.92
724.234	15.08
724.26	7.08
724.286	19.08
724.311	15.08
724.337	1.08
724.363	-15.92
724.389	22.08
724.415	16.08
724.44	21.08
724.466	17.08
724.492	1.08
724.518	27.08
724.543	3.08
724.569	14.08
724.595	32.08
724.621	6.08
724.646	0.08
724.672	-5.92
724.698	-3.92
724.723	8.08
724.749	16.08
724.775	31.08
724.801	11.08
724.826	10.08
724.852	5.08
724.878	0.08
724.904	-1.92
724.929	16.08
724.955	1.08
724.981	1.08
725.006	19.08
725.032	16.08
725.058	10.08
725.083	7.08
725.109	9.08
725.135	-2.92
725.161	21.08
725.186	4.08
725.212	9.08
725.238	7.08
725.263	16.08
725.289	3.08
725.315	3.08
725.34	9.08
725.366	10.08
725.392	14.08
725.417	16.08
725.443	4.08
725.468	21.08
725.494	15.08
725.52	7.08
725.545	4.08
725.571	9.08
725.597	-5.92
725.622	1.08
725.648	-9.92
725.674	35.08
725.699	-2.92
725.725	-0.92
725.75	32.08
725.776	-1.92
725.802	0.08
725.827	7.08
725.853	-0.92
725.878	8.08
725.904	9.08
725.93	3.08
725.955	0.08
725.981	-4.92
726.006	1.08
726.032	20.08
726.057	3.08
726.083	4.08
726.109	7.08
726.134	9.08
726.16	18.08
726.185	20.08
726.211	-5.92
726.236	5.08
726.262	11.08
726.288	12.08
726.313	5.08
726.339	10.08
726.364	17.08
726.39	23.08
726.415	8.08
726.441	6.08
726.466	10.08
726.492	25.08
726.517	13.08
726.543	-11.92
726.568	3.08
726.594	7.08
726.619	13.08
726.645	13.08
726.67	-0.92
726.696	13.08
726.721	11.08
726.747	3.08
726.772	15.08
726.798	6.08
726.823	8.08
726.849	7.08
726.874	13.08
726.9	42.08
726.925	21.08
726.951	10.08
726.976	17.08
727.002	-4.92
727.027	4.08
727.053	22.08
727.078	14.08
727.104	1.08
727.129	-1.92
727.155	5.08
727.18	9.08
727.205	11.08
727.231	4.08
727.256	6.08
727.282	3.08
727.307	1.08
727.333	9.08
727.358	-0.92
727.383	-4.92
727.409	-8.92
727.434	6.08
727.46	-10.92
727.485	3.08
727.511	11.08
727.536	4.08
727.561	10.08
727.587	6.08
727.612	5.08
727.637	4.08
727.663	3.08
727.688	23.08
727.714	-4.92
727.739	20.08
727.764	6.08
727.79	12.08
727.815	26.08
727.841	23.08
727.866	11.08
727.891	9.08
727.917	-9.92
727.942	3.08
727.967	-0.92
727.993	-5.92
728.018	9.08
728.043	-4.92
728.069	10.08
728.094	14.08
728.119	-0.92
728.145	18.08
728.17	13.08
728.195	21.08
728.221	15.08
728.246	9.08
728.271	-7.92
728.297	10.08
728.322	11.08
728.347	23.08
728.373	24.08
728.398	20.08
728.423	-1.92
728.448	7.08
728.474	2.08
728.499	10.08
728.524	-2.92
728.55	-1.92
728.575	-9.92
728.6	-10.92
728.625	-6.92
728.651	27.08
728.676	8.08
728.701	7.08
728.727	29.08
728.752	-4.92
728.777	-5.92
728.802	14.08
728.828	21.08
728.853	3.08
728.878	-8.92
728.903	-5.92
728.929	4.08
728.954	13.08
728.979	22.08
729.004	12.08
729.03	9.08
729.055	5.08
729.08	6.08
729.105	-4.92
729.13	20.08
729.156	9.08
729.181	-2.92
729.206	-5.92
729.231	-0.92
729.256	19.08
729.282	13.08
729.307	-1.92
729.332	-7.92
729.357	10.08
729.382	8.08
729.408	6.08
729.433	10.08
729.458	24.08
729.483	14.08
729.508	15.08
729.533	10.08
729.559	1.08
729.584	-12.92
729.609	17.08
729.634	18.08
729.659	24.08
729.684	5.08
729.71	21.08
729.735	12.08
729.76	7.08
729.785	4.08
729.81	9.08
729.835	1.08
729.86	-14.92
729.886	10.08
729.911	8.08
729.936	-9.92
729.961	9.08
729.986	-0.92
730.011	10.08
730.036	3.08
730.061	15.08
730.086	6.08
730.112	1.08
730.137	23.08
730.162	13.08
730.187	-6.92
730.212	11.08
730.237	3.08
730.262	3.08
730.287	5.08
730.312	14.08
730.337	1.08
730.362	28.08
730.387	6.08
730.413	7.08
730.438	11.08
730.463	5.08
730.488	-11.92
730.513	16.08
730.538	8.08
730.563	27.08
730.588	18.08
730.613	19.08
730.638	3.08
730.663	10.08
730.688	14.08
730.713	4.08
730.738	14.08
730.763	7.08
730.788	3.08
730.813	12.08
730.838	14.08
730.863	11.08
730.888	12.08
730.913	14.08
730.938	-0.92
730.963	-1.92
730.988	8.08
731.013	19.08
731.038	5.08
731.063	5.08
731.088	16.08
731.113	10.08
731.138	1.08
731.163	2.08
731.188	1.08
731.213	3.08
731.238	11.08
731.263	14.08
731.288	-14.92
731.313	12.08
731.338	5.08
731.363	14.08
731.388	10.08
731.413	2.08
731.438	23.08
731.463	22.08
731.487	22.08
731.512	-0.92
731.537	2.08
731.562	1.08
731.587	10.08
731.612	9.08
731.637	11.08
731.662	10.08
731.687	11.08
731.712	-2.92
731.737	22.08
731.762	11.08
731.786	10.08
731.811	7.08
731.836	2.08
731.861	5.08
731.886	9.08
731.911	8.08
731.936	26.08
731.961	-13.92
731.986	15.08
732.01	10.08
732.035	9.08
732.06	23.08
732.085	-3.92
732.11	3.08
732.135	-6.92
732.16	8.08
732.184	1.08
732.209	2.08
732.234	19.08
732.259	22.08
732.284	18.08
732.309	9.08
732.334	5.08
732.358	-11.92
732.383	-7.92
732.408	-14.92
732.433	23.08
732.458	11.08
732.482	5.08
732.507	-2.92
732.532	9.08
732.557	18.08
732.582	16.08
732.607	-0.92
732.631	-5.92
732.656	2.08
732.681	1.08
732.706	13.08
732.73	9.08
732.755	11.08
732.78	-3.92
732.805	10.08
732.83	2.08
732.854	6.08
732.879	21.08
732.904	-6.92
732.929	5.08
732.953	6.08
732.978	3.08
733.003	0.08
733.028	-0.92
733.052	-4.92
733.077	16.08
733.102	19.08
733.127	10.08
733.151	6.08
733.176	9.08
733.201	3.08
733.226	-2.92
733.25	5.08
733.275	7.08
733.3	7.08
733.324	7.08
733.349	5.08
733.374	25.08
733.399	13.08
733.423	9.08
733.448	24.08
733.473	2.08
733.497	9.08
733.522	12.08
733.547	19.08
733.571	39.08
733.596	14.08
733.621	14.08
733.646	5.08
733.67	20.08
733.695	0.08
733.72	4.08
733.744	24.08
733.769	12.08
733.794	22.08
733.818	13.08
733.843	19.08
733.867	-1.92
733.892	4.08
733.917	5.08
733.941	-9.92
733.966	-11.92
733.991	-15.92
734.015	9.08
734.04	0.08
734.065	13.08
734.089	19.08
734.114	11.08
734.138	21.08
734.163	6.08
734.188	3.08
734.212	18.08
734.237	20.08
734.261	15.08
734.286	2.08
734.311	15.08
734.335	11.08
734.36	-0.92
734.384	13.08
734.409	6.08
734.434	-3.92
734.458	7.08
734.483	7.08
734.507	1.08
734.532	13.08
734.556	14.08
734.581	4.08
734.606	4.08
734.63	-4.92
734.655	17.08
734.679	-0.92
734.704	11.08
734.728	-1.92
734.753	5.08
734.777	17.08
734.802	9.08
734.826	12.08
734.851	1.08
734.876	7.08
734.9	6.08
734.925	16.08
734.949	28.08
734.974	10.08
734.998	13.08
735.023	-9.92
735.047	-8.92
735.072	27.08
735.096	14.08
735.121	27.08
735.145	4.08
735.17	3.08
735.194	13.08
735.219	5.08
735.243	5.08
735.268	10.08
735.292	-2.92
735.317	6.08
735.341	21.08
735.365	7.08
735.39	14.08
735.414	8.08
735.439	-9.92
735.463	-6.92
735.488	7.08
735.512	-4.92
735.537	6.08
735.561	9.08
735.586	2.08
735.61	7.08
735.634	0.08
735.659	5.08
735.683	23.08
735.708	3.08
735.732	-1.92
735.757	-6.92
735.781	21.08
735.805	-1.92
735.83	1.08
735.854	2.08
735.879	4.08
735.903	21.08
735.927	14.08
735.952	4.08
735.976	12.08
736.001	23.08
736.025	2.08
736.049	12.08
736.074	5.08
736.098	-9.92
736.123	-6.92
736.147	10.08
736.171	4.08
736.196	5.08
736.22	11.08
736.244	-4.92
736.269	9.08
736.293	-0.92
736.317	6.08
736.342	11.08
736.366	30.08
736.39	28.08
736.415	9.08
736.439	11.08
736.463	5.08
736.488	14.08
736.512	9.08
736.536	8.08
736.561	36.08
736.585	0.08
736.609	6.08
736.634	-1.92
736.658	20.08
736.682	-0.92
736.707	0.08
736.731	-5.92
736.755	-3.92
736.78	7.08
736.804	25.08
736.828	25.08
736.852	-1.92
736.877	19.08
736.901	12.08
736.925	-3.92
736.949	-5.92
736.974	-0.92
736.998	5.08
737.022	14.08
737.047	4.08
737.071	7.08
737.095	-4.92
737.119	23.08
737.144	14.08
737.168	2.08
737.192	-0.92
737.216	1.08
737.241	8.08
737.265	17.08
737.289	1.08
737.313	9.08
737.337	11.08
737.362	13.08
737.386	7.08
737.41	-13.92
737.434	6.08
737.459	4.08
737.483	30.08
737.507	12.08
737.531	25.08
737.555	12.08
737.58	20.08
737.604	11.08
737.628	1.08
737.652	4.08
737.676	13.08
737.701	9.08
737.725	-0.92
737.749	15.08
737.773	13.08
737.797	4.08
737.821	5.08
737.846	13.08
737.87	17.08
737.894	10.08
737.918	9.08
737.942	2.08
737.966	9.08
737.99	11.08
738.015	21.08
738.039	6.08
738.063	2.08
738.087	19.08
738.111	-1.92
738.135	16.08
738.159	17.08
738.184	14.08
738.208	22.08
738.232	10.08
738.256	16.08
738.28	19.08
738.304	13.08
738.328	-9.92
738.352	4.08
738.376	7.08
738.4	23.08
738.425	15.08
738.449	4.08
738.473	21.08
738.497	4.08
738.521	2.08
738.545	10.08
738.569	17.08
738.593	20.08
738.617	20.08
738.641	2.08
738.665	9.08
738.689	10.08
738.713	7.08
738.737	26.08
738.762	29.08
738.786	18.08
738.81	-21.92
738.834	13.08
738.858	6.08
738.882	6.08
738.906	-4.92
738.93	10.08
738.954	7.08
738.978	14.08
739.002	4.08
739.026	15.08
739.05	18.08
739.074	-2.92
739.098	39.08
739.122	16.08
739.146	13.08
739.17	23.08
739.194	18.08
739.218	8.08
739.242	6.08
739.266	5.08
739.29	12.08
739.314	6.08
739.338	18.08
739.362	6.08
739.386	7.08
739.41	7.08
739.434	-11.92
739.458	26.08
739.482	18.08
739.506	25.08
739.53	22.08
739.554	17.08
739.577	8.08
739.601	13.08
739.625	-3.92
739.649	13.08
739.673	14.08
739.697	11.08
739.721	-2.92
739.745	5.08
739.769	18.08
739.793	30.08
739.817	21.08
739.841	2.08
739.865	14.08
739.889	8.08
739.912	28.08
739.936	-3.92
739.96	5.08
739.984	25.08
740.008	2.08
740.032	0.08
740.056	14.08
740.08	3.08
740.104	0.08
740.127	4.08
740.151	8.08
740.175	9.08
740.199	7.08
740.223	39.08
740.247	17.08
740.271	30.08
740.295	7.08
740.318	-0.92
740.342	4.08
740.366	25.08
740.39	17.08
740.414	7.08
740.438	-6.92
740.461	26.08
740.485	21.08
740.509	10.08
740.533	5.08
740.557	-0.92
740.581	10.08
740.604	-11.92
740.628	6.08
740.652	20.08
740.676	1.08
740.7	22.08
740.723	9.08
740.747	-9.92
740.771	18.08
740.795	6.08
740.819	9.08
740.842	6.08
740.866	15.08
740.89	6.08
740.914	5.08
740.938	-5.92
740.961	23.08
740.985	25.08
741.009	0.08
741.033	18.08
741.056	11.08
741.08	7.08
741.104	1.08
741.128	3.08
741.151	17.08
741.175	20.08
741.199	11.08
741.223	29.08
741.246	19.08
741.27	14.08
741.294	21.08
741.318	10.08
741.341	14.08
741.365	7.08
741.389	22.08
741.413	15.08
741.436	30.08
741.46	21.08
741.484	25.08
741.507	4.08
741.531	25.08
741.555	14.08
741.579	4.08
741.602	16.08
741.626	26.08
741.65	12.08
741.673	6.08
741.697	11.08
741.721	9.08
741.744	1.08
741.768	-4.92
741.792	2.08
741.815	5.08
741.839	25.08
741.863	27.08
741.886	23.08
741.91	15.08
741.934	1.08
741.957	-2.92
741.981	1.08
742.005	17.08
742.028	-0.92
742.052	10.08
742.075	4.08
742.099	12.08
742.123	7.08
742.146	6.08
742.17	11.08
742.194	2.08
742.217	1.08
742.241	14.08
742.264	13.08
742.288	27.08
742.312	15.08
742.335	4.08
742.359	9.08
742.382	31.08
742.406	25.08
742.43	0.08
742.453	4.08
742.477	-5.92
742.5	11.08
742.524	3.08
742.548	20.08
742.571	19.08
742.595	16.08
742.618	-0.92
742.642	7.08
742.665	16.08
742.689	-3.92
742.712	6.08
742.736	11.08
742.76	29.08
742.783	9.08
742.807	13.08
742.83	6.08
742.854	1.08
742.877	10.08
742.901	5.08
742.924	-4.92
742.948	6.08
742.971	27.08
742.995	1.08
743.018	3.08
743.042	6.08
743.065	-6.92
743.089	17.08
743.112	6.08
743.136	9.08
743.159	6.08
743.183	0.08
743.206	-1.92
743.23	3.08
743.253	-0.92
743.277	7.08
743.3	11.08
743.324	7.08
743.347	0.08
743.371	34.08
743.394	19.08
743.418	26.08
743.441	27.08
743.465	20.08
743.488	10.08
743.512	11.08
743.535	-1.92
743.558	5.08
743.582	-8.92
743.605	4.08
743.629	7.08
743.652	19.08
743.676	2.08
743.699	19.08
743.723	10.08
743.746	9.08
743.769	6.08
743.793	17.08
743.816	14.08
743.84	25.08
743.863	16.08
743.886	11.08
743.91	18.08
743.933	14.08
743.957	19.08
743.98	7.08
744.003	6.08
744.027	0.08
744.05	9.08
744.074	1.08
744.097	1.08
744.12	7.08
744.144	-1.92
744.167	20.08
744.19	0.08
744.214	16.08
744.237	9.08
744.26	21.08
744.284	9.08
744.307	-2.92
744.331	7.08
744.354	-0.92
744.377	8.08
744.401	4.08
744.424	6.08
744.447	-8.92
744.471	2.08
