Data from HighRes_H2D2_15_04_11_07_2024_HR4C61891__57__15-05-40-143.txt Node

Date: Thu Nov 07 15:05:40 EST 2024
User: crc00042
Spectrometer: HR4C6189
Trigger mode: 4
Integration Time (sec): 1.000000E-1
Scans to average: 1
Electric dark correction enabled: true
Nonlinearity correction enabled: false
Boxcar width: 0
XAxis mode: Wavelengths
Number of Pixels in Spectrum: 3648
>>>>>Begin Spectral Data<<<<<
639.567	-26.92
639.602	-26.92
639.636	-26.92
639.67	-42.92
639.704	-14.92
639.738	7.08
639.773	13.08
639.807	-19.92
639.841	-2.92
639.875	21.08
639.909	5.08
639.943	-9.92
639.978	-11.92
640.012	-5.92
640.046	20.08
640.08	-14.92
640.114	-5.92
640.148	5.08
640.182	-10.92
640.217	-6.92
640.251	10.08
640.285	0.08
640.319	-18.92
640.353	-3.92
640.387	-5.92
640.421	1.08
640.455	-9.92
640.49	2.08
640.524	0.08
640.558	7.08
640.592	10.08
640.626	-0.92
640.66	1.08
640.694	7.08
640.728	4.08
640.762	-11.92
640.796	16.08
640.83	17.08
640.865	-16.92
640.899	-15.92
640.933	0.08
640.967	14.08
641.001	8.08
641.035	2.08
641.069	-2.92
641.103	-6.92
641.137	-10.92
641.171	-6.92
641.205	2.08
641.239	-2.92
641.273	17.08
641.307	7.08
641.341	-1.92
641.375	0.08
641.409	-7.92
641.443	1.08
641.477	6.08
641.511	0.08
641.545	10.08
641.579	8.08
641.614	-8.92
641.648	10.08
641.682	-10.92
641.716	6.08
641.75	29.08
641.784	7.08
641.818	-8.92
641.852	-8.92
641.886	-10.92
641.919	21.08
641.953	-3.92
641.987	-26.92
642.021	-7.92
642.055	-5.92
642.089	5.08
642.123	-18.92
642.157	-26.92
642.191	-1.92
642.225	9.08
642.259	5.08
642.293	11.08
642.327	-7.92
642.361	5.08
642.395	21.08
642.429	21.08
642.463	9.08
642.497	6.08
642.531	5.08
642.565	-2.92
642.599	8.08
642.633	-8.92
642.666	-11.92
642.7	22.08
642.734	18.08
642.768	-11.92
642.802	7.08
642.836	-7.92
642.87	0.08
642.904	5.08
642.938	16.08
642.972	7.08
643.005	22.08
643.039	9.08
643.073	-2.92
643.107	9.08
643.141	-15.92
643.175	7.08
643.209	-10.92
643.243	-1.92
643.276	13.08
643.31	4.08
643.344	-16.92
643.378	-5.92
643.412	5.08
643.446	6.08
643.48	-8.92
643.513	-3.92
643.547	-2.92
643.581	2.08
643.615	13.08
643.649	4.08
643.683	-2.92
643.716	-1.92
643.75	-4.92
643.784	-11.92
643.818	-5.92
643.852	-17.92
643.886	-19.92
643.919	-10.92
643.953	-2.92
643.987	-8.92
644.021	0.08
644.055	12.08
644.088	9.08
644.122	-2.92
644.156	-4.92
644.19	-7.92
644.224	-5.92
644.257	9.08
644.291	11.08
644.325	1.08
644.359	-6.92
644.392	6.08
644.426	11.08
644.46	0.08
644.494	-5.92
644.527	-17.92
644.561	14.08
644.595	-6.92
644.629	-0.92
644.662	7.08
644.696	16.08
644.73	-9.92
644.764	-4.92
644.797	-1.92
644.831	-7.92
644.865	2.08
644.899	8.08
644.932	11.08
644.966	-2.92
645	8.08
645.033	8.08
645.067	10.08
645.101	11.08
645.135	-0.92
645.168	13.08
645.202	-0.92
645.236	9.08
645.269	12.08
645.303	-11.92
645.337	-11.92
645.37	2.08
645.404	9.08
645.438	-10.92
645.471	-15.92
645.505	1.08
645.539	13.08
645.572	-15.92
645.606	-12.92
645.64	5.08
645.673	10.08
645.707	19.08
645.741	10.08
645.774	-8.92
645.808	9.08
645.842	-16.92
645.875	-1.92
645.909	-9.92
645.943	0.08
645.976	-0.92
646.01	7.08
646.043	4.08
646.077	15.08
646.111	5.08
646.144	8.08
646.178	23.08
646.212	-11.92
646.245	-3.92
646.279	-4.92
646.312	-0.92
646.346	18.08
646.38	6.08
646.413	2.08
646.447	10.08
646.48	3.08
646.514	1.08
646.547	-9.92
646.581	-6.92
646.615	-1.92
646.648	13.08
646.682	4.08
646.715	1.08
646.749	10.08
646.782	-0.92
646.816	-4.92
646.85	2.08
646.883	-0.92
646.917	10.08
646.95	5.08
646.984	4.08
647.017	-15.92
647.051	9.08
647.084	-2.92
647.118	-5.92
647.151	-4.92
647.185	-0.92
647.218	-6.92
647.252	12.08
647.285	-9.92
647.319	-20.92
647.353	-4.92
647.386	18.08
647.42	8.08
647.453	-2.92
647.487	10.08
647.52	6.08
647.553	2.08
647.587	10.08
647.62	-7.92
647.654	4.08
647.687	-5.92
647.721	4.08
647.754	10.08
647.788	-6.92
647.821	-17.92
647.855	3.08
647.888	7.08
647.922	-4.92
647.955	14.08
647.989	15.08
648.022	12.08
648.055	12.08
648.089	5.08
648.122	29.08
648.156	6.08
648.189	6.08
648.223	-9.92
648.256	4.08
648.29	-1.92
648.323	-7.92
648.356	12.08
648.39	13.08
648.423	6.08
648.457	-5.92
648.49	17.08
648.523	26.08
648.557	10.08
648.59	6.08
648.624	-1.92
648.657	11.08
648.69	21.08
648.724	15.08
648.757	26.08
648.791	18.08
648.824	19.08
648.857	12.08
648.891	9.08
648.924	1.08
648.957	24.08
648.991	-0.92
649.024	14.08
649.057	-13.92
649.091	8.08
649.124	10.08
649.158	20.08
649.191	22.08
649.224	12.08
649.258	15.08
649.291	14.08
649.324	11.08
649.358	-0.92
649.391	7.08
649.424	0.08
649.458	1.08
649.491	-1.92
649.524	-6.92
649.557	6.08
649.591	-14.92
649.624	7.08
649.657	2.08
649.691	4.08
649.724	1.08
649.757	-6.92
649.791	-2.92
649.824	11.08
649.857	14.08
649.89	17.08
649.924	-16.92
649.957	-5.92
649.99	1.08
650.023	-0.92
650.057	-1.92
650.09	-3.92
650.123	-2.92
650.157	6.08
650.19	6.08
650.223	-1.92
650.256	-4.92
650.29	6.08
650.323	-3.92
650.356	-4.92
650.389	2.08
650.423	-1.92
650.456	19.08
650.489	-0.92
650.522	9.08
650.555	15.08
650.589	-7.92
650.622	-0.92
650.655	5.08
650.688	3.08
650.721	-1.92
650.755	1.08
650.788	16.08
650.821	8.08
650.854	11.08
650.887	9.08
650.921	-13.92
650.954	-7.92
650.987	7.08
651.02	-9.92
651.053	-24.92
651.087	-9.92
651.12	10.08
651.153	7.08
651.186	-1.92
651.219	-7.92
651.252	16.08
651.286	-1.92
651.319	-2.92
651.352	2.08
651.385	0.08
651.418	3.08
651.451	-1.92
651.484	0.08
651.518	5.08
651.551	11.08
651.584	-6.92
651.617	26.08
651.65	11.08
651.683	26.08
651.716	3.08
651.749	1.08
651.783	8.08
651.816	-5.92
651.849	7.08
651.882	6.08
651.915	-1.92
651.948	1.08
651.981	-2.92
652.014	-8.92
652.047	-7.92
652.08	1.08
652.114	-5.92
652.147	-4.92
652.18	-1.92
652.213	18.08
652.246	4.08
652.279	-9.92
652.312	5.08
652.345	1.08
652.378	16.08
652.411	21.08
652.444	16.08
652.477	0.08
652.51	-16.92
652.543	-27.92
652.576	-1.92
652.609	5.08
652.642	0.08
652.675	21.08
652.709	-1.92
652.742	9.08
652.775	-3.92
652.808	-1.92
652.841	-6.92
652.874	-0.92
652.907	21.08
652.94	-10.92
652.973	-24.92
653.006	-7.92
653.039	3.08
653.072	-2.92
653.105	-4.92
653.138	-13.92
653.171	-12.92
653.204	-22.92
653.237	-0.92
653.27	-23.92
653.303	-11.92
653.336	14.08
653.368	14.08
653.401	6.08
653.434	-6.92
653.467	7.08
653.5	3.08
653.533	-10.92
653.566	15.08
653.599	3.08
653.632	6.08
653.665	25.08
653.698	-8.92
653.731	6.08
653.764	2.08
653.797	-1.92
653.83	-9.92
653.863	5.08
653.896	-2.92
653.929	-1.92
653.961	0.08
653.994	7.08
654.027	-8.92
654.06	-6.92
654.093	4.08
654.126	-8.92
654.159	-7.92
654.192	7.08
654.225	6.08
654.258	-1.92
654.29	17.08
654.323	-0.92
654.356	3.08
654.389	9.08
654.422	11.08
654.455	-8.92
654.488	-8.92
654.521	-6.92
654.553	-5.92
654.586	26.08
654.619	8.08
654.652	7.08
654.685	7.08
654.718	8.08
654.751	12.08
654.783	-4.92
654.816	9.08
654.849	6.08
654.882	-12.92
654.915	-18.92
654.948	-8.92
654.98	-3.92
655.013	-9.92
655.046	-4.92
655.079	-13.92
655.112	1.08
655.144	11.08
655.177	-1.92
655.21	14.08
655.243	7.08
655.276	-2.92
655.308	-4.92
655.341	-5.92
655.374	10.08
655.407	-6.92
655.44	3.08
655.472	5.08
655.505	-1.92
655.538	-18.92
655.571	12.08
655.603	1.08
655.636	-19.92
655.669	18.08
655.702	12.08
655.734	-5.92
655.767	8.08
655.8	12.08
655.833	9.08
655.865	7.08
655.898	10.08
655.931	1.08
655.964	21.08
655.996	12.08
656.029	26.08
656.062	28.08
656.095	41.08
656.127	73.08
656.16	212.08
656.193	630.08
656.225	983.08
656.258	557.08
656.291	211.08
656.324	177.08
656.356	354.08
656.389	763.08
656.422	670.08
656.454	238.08
656.487	76.08
656.52	34.08
656.552	13.08
656.585	12.08
656.618	19.08
656.65	20.08
656.683	12.08
656.716	9.08
656.748	6.08
656.781	14.08
656.814	-4.92
656.846	12.08
656.879	6.08
656.912	8.08
656.944	-23.92
656.977	-11.92
657.01	-0.92
657.042	7.08
657.075	15.08
657.108	-19.92
657.14	-0.92
657.173	-3.92
657.205	31.08
657.238	13.08
657.271	-12.92
657.303	-14.92
657.336	6.08
657.369	8.08
657.401	-2.92
657.434	-4.92
657.466	11.08
657.499	4.08
657.532	-2.92
657.564	0.08
657.597	-5.92
657.629	-3.92
657.662	2.08
657.694	6.08
657.727	-5.92
657.76	6.08
657.792	-2.92
657.825	-16.92
657.857	1.08
657.89	-0.92
657.922	15.08
657.955	-3.92
657.987	10.08
658.02	9.08
658.053	9.08
658.085	7.08
658.118	9.08
658.15	1.08
658.183	11.08
658.215	-0.92
658.248	-7.92
658.28	-17.92
658.313	0.08
658.345	25.08
658.378	2.08
658.41	-6.92
658.443	7.08
658.475	-6.92
658.508	-1.92
658.54	0.08
658.573	-18.92
658.605	7.08
658.638	-5.92
658.67	-9.92
658.703	9.08
658.735	-9.92
658.768	0.08
658.8	-8.92
658.833	30.08
658.865	16.08
658.898	4.08
658.93	10.08
658.963	7.08
658.995	-12.92
659.028	0.08
659.06	3.08
659.092	4.08
659.125	12.08
659.157	6.08
659.19	-5.92
659.222	4.08
659.255	-8.92
659.287	4.08
659.32	-1.92
659.352	10.08
659.384	8.08
659.417	-3.92
659.449	7.08
659.482	5.08
659.514	-21.92
659.546	-4.92
659.579	-25.92
659.611	-5.92
659.644	3.08
659.676	-16.92
659.708	-17.92
659.741	-17.92
659.773	22.08
659.806	-6.92
659.838	8.08
659.87	13.08
659.903	-17.92
659.935	6.08
659.967	-2.92
660	6.08
660.032	-26.92
660.065	10.08
660.097	4.08
660.129	10.08
660.162	-14.92
660.194	7.08
660.226	3.08
660.259	-2.92
660.291	-11.92
660.323	-0.92
660.356	3.08
660.388	5.08
660.42	16.08
660.453	10.08
660.485	8.08
660.517	5.08
660.55	6.08
660.582	1.08
660.614	12.08
660.647	-1.92
660.679	-10.92
660.711	12.08
660.743	-12.92
660.776	-5.92
660.808	-13.92
660.84	-15.92
660.873	5.08
660.905	-14.92
660.937	-7.92
660.969	-3.92
661.002	1.08
661.034	19.08
661.066	-7.92
661.099	3.08
661.131	15.08
661.163	12.08
661.195	4.08
661.228	3.08
661.26	0.08
661.292	-1.92
661.324	-3.92
661.357	4.08
661.389	9.08
661.421	-0.92
661.453	8.08
661.485	-1.92
661.518	4.08
661.55	-11.92
661.582	-9.92
661.614	7.08
661.647	5.08
661.679	-6.92
661.711	17.08
661.743	-5.92
661.775	-3.92
661.808	11.08
661.84	-9.92
661.872	0.08
661.904	-2.92
661.936	9.08
661.969	-13.92
662.001	-18.92
662.033	-7.92
662.065	-11.92
662.097	11.08
662.129	2.08
662.162	-15.92
662.194	9.08
662.226	5.08
662.258	-0.92
662.29	-13.92
662.322	-1.92
662.355	-9.92
662.387	11.08
662.419	13.08
662.451	4.08
662.483	5.08
662.515	-5.92
662.547	-12.92
662.58	9.08
662.612	-9.92
662.644	-20.92
662.676	-4.92
662.708	5.08
662.74	-0.92
662.772	3.08
662.804	15.08
662.836	5.08
662.869	-11.92
662.901	-10.92
662.933	-7.92
662.965	20.08
662.997	-1.92
663.029	-17.92
663.061	15.08
663.093	-2.92
663.125	16.08
663.157	10.08
663.189	1.08
663.221	16.08
663.254	-6.92
663.286	9.08
663.318	4.08
663.35	-19.92
663.382	-5.92
663.414	9.08
663.446	-3.92
663.478	-7.92
663.51	13.08
663.542	-11.92
663.574	-27.92
663.606	-12.92
663.638	-12.92
663.67	8.08
663.702	-1.92
663.734	-5.92
663.766	-2.92
663.798	5.08
663.83	4.08
663.862	13.08
663.894	8.08
663.926	4.08
663.958	2.08
663.99	-3.92
664.022	-7.92
664.054	9.08
664.086	-22.92
664.118	-15.92
664.15	-9.92
664.182	4.08
664.214	9.08
664.246	4.08
664.278	-1.92
664.31	19.08
664.342	16.08
664.374	10.08
664.406	-5.92
664.438	5.08
664.47	6.08
664.502	-10.92
664.534	0.08
664.566	-21.92
664.598	6.08
664.63	-1.92
664.662	7.08
664.693	3.08
664.725	-6.92
664.757	-12.92
664.789	-8.92
664.821	9.08
664.853	20.08
664.885	20.08
664.917	-7.92
664.949	7.08
664.981	-2.92
665.013	-5.92
665.045	-9.92
665.076	-1.92
665.108	8.08
665.14	-0.92
665.172	-1.92
665.204	-4.92
665.236	-3.92
665.268	16.08
665.3	12.08
665.331	-6.92
665.363	5.08
665.395	-5.92
665.427	-3.92
665.459	-1.92
665.491	-5.92
665.523	-2.92
665.555	-18.92
665.586	8.08
665.618	-0.92
665.65	-6.92
665.682	15.08
665.714	0.08
665.746	-8.92
665.777	-8.92
665.809	-6.92
665.841	4.08
665.873	5.08
665.905	9.08
665.937	17.08
665.968	4.08
666	-2.92
666.032	1.08
666.064	-3.92
666.096	1.08
666.127	5.08
666.159	22.08
666.191	13.08
666.223	13.08
666.255	14.08
666.286	-8.92
666.318	-4.92
666.35	2.08
666.382	8.08
666.413	6.08
666.445	0.08
666.477	-16.92
666.509	-6.92
666.54	-1.92
666.572	5.08
666.604	12.08
666.636	3.08
666.667	20.08
666.699	18.08
666.731	-4.92
666.763	5.08
666.794	-0.92
666.826	6.08
666.858	2.08
666.89	19.08
666.921	15.08
666.953	9.08
666.985	-2.92
667.017	13.08
667.048	-0.92
667.08	-9.92
667.112	-10.92
667.143	-27.92
667.175	12.08
667.207	-4.92
667.238	-4.92
667.27	0.08
667.302	12.08
667.334	-4.92
667.365	13.08
667.397	-3.92
667.429	-13.92
667.46	23.08
667.492	10.08
667.524	2.08
667.555	8.08
667.587	5.08
667.619	-8.92
667.65	-6.92
667.682	-6.92
667.714	-0.92
667.745	-1.92
667.777	6.08
667.808	5.08
667.84	13.08
667.872	-2.92
667.903	24.08
667.935	10.08
667.967	-5.92
667.998	3.08
668.03	1.08
668.061	2.08
668.093	1.08
668.125	-8.92
668.156	-6.92
668.188	-9.92
668.22	-10.92
668.251	1.08
668.283	9.08
668.314	13.08
668.346	-8.92
668.377	-4.92
668.409	-0.92
668.441	16.08
668.472	12.08
668.504	17.08
668.535	4.08
668.567	16.08
668.599	5.08
668.63	11.08
668.662	2.08
668.693	12.08
668.725	-5.92
668.756	19.08
668.788	-9.92
668.819	13.08
668.851	18.08
668.882	12.08
668.914	18.08
668.946	-1.92
668.977	-1.92
669.009	13.08
669.04	-2.92
669.072	-10.92
669.103	-4.92
669.135	-1.92
669.166	4.08
669.198	-10.92
669.229	9.08
669.261	0.08
669.292	-8.92
669.324	4.08
669.355	0.08
669.387	-9.92
669.418	5.08
669.45	-8.92
669.481	7.08
669.513	8.08
669.544	-1.92
669.576	-6.92
669.607	10.08
669.639	4.08
669.67	-15.92
669.701	2.08
669.733	8.08
669.764	-4.92
669.796	-22.92
669.827	-7.92
669.859	7.08
669.89	10.08
669.922	4.08
669.953	-1.92
669.985	3.08
670.016	20.08
670.047	7.08
670.079	-4.92
670.11	2.08
670.142	5.08
670.173	8.08
670.204	3.08
670.236	1.08
670.267	-2.92
670.299	1.08
670.33	-3.92
670.362	19.08
670.393	-10.92
670.424	4.08
670.456	-3.92
670.487	1.08
670.518	3.08
670.55	8.08
670.581	4.08
670.613	2.08
670.644	-6.92
670.675	-14.92
670.707	7.08
670.738	-1.92
670.769	-13.92
670.801	-14.92
670.832	5.08
670.864	-20.92
670.895	10.08
670.926	1.08
670.958	-7.92
670.989	-9.92
671.02	1.08
671.052	-16.92
671.083	-8.92
671.114	-1.92
671.146	-7.92
671.177	-0.92
671.208	-9.92
671.24	-3.92
671.271	10.08
671.302	14.08
671.333	-8.92
671.365	5.08
671.396	13.08
671.427	7.08
671.459	14.08
671.49	4.08
671.521	7.08
671.553	0.08
671.584	17.08
671.615	-11.92
671.646	4.08
671.678	-5.92
671.709	-10.92
671.74	-14.92
671.771	6.08
671.803	-7.92
671.834	-5.92
671.865	-3.92
671.896	8.08
671.928	0.08
671.959	-5.92
671.99	-1.92
672.021	-1.92
672.053	-11.92
672.084	12.08
672.115	0.08
672.146	-7.92
672.178	-9.92
672.209	-11.92
672.24	-0.92
672.271	22.08
672.303	1.08
672.334	-0.92
672.365	0.08
672.396	8.08
672.427	-3.92
672.459	7.08
672.49	16.08
672.521	7.08
672.552	15.08
672.583	6.08
672.615	4.08
672.646	5.08
672.677	-3.92
672.708	3.08
672.739	9.08
672.77	4.08
672.802	7.08
672.833	12.08
672.864	1.08
672.895	-14.92
672.926	-0.92
672.957	-16.92
672.989	-1.92
673.02	-5.92
673.051	-2.92
673.082	12.08
673.113	-15.92
673.144	6.08
673.175	0.08
673.206	-8.92
673.238	1.08
673.269	2.08
673.3	-4.92
673.331	4.08
673.362	2.08
673.393	12.08
673.424	-4.92
673.455	7.08
673.487	-14.92
673.518	13.08
673.549	5.08
673.58	0.08
673.611	7.08
673.642	2.08
673.673	-22.92
673.704	8.08
673.735	-1.92
673.766	8.08
673.797	18.08
673.828	8.08
673.86	-3.92
673.891	-17.92
673.922	-0.92
673.953	-6.92
673.984	1.08
674.015	10.08
674.046	2.08
674.077	12.08
674.108	-15.92
674.139	-2.92
674.17	-15.92
674.201	-10.92
674.232	-16.92
674.263	-16.92
674.294	-6.92
674.325	-7.92
674.356	7.08
674.387	6.08
674.418	-3.92
674.449	-12.92
674.48	-8.92
674.511	3.08
674.542	-4.92
674.573	-11.92
674.604	23.08
674.635	-15.92
674.666	5.08
674.697	4.08
674.728	0.08
674.759	5.08
674.79	-15.92
674.821	-4.92
674.852	6.08
674.883	-5.92
674.914	3.08
674.945	5.08
674.976	-6.92
675.007	-0.92
675.038	-8.92
675.069	-9.92
675.1	-4.92
675.131	0.08
675.162	-10.92
675.193	-7.92
675.224	5.08
675.254	0.08
675.285	2.08
675.316	10.08
675.347	-18.92
675.378	-11.92
675.409	-6.92
675.44	1.08
675.471	-14.92
675.502	-14.92
675.533	4.08
675.564	8.08
675.595	10.08
675.625	3.08
675.656	0.08
675.687	10.08
675.718	-10.92
675.749	-7.92
675.78	3.08
675.811	5.08
675.842	5.08
675.873	9.08
675.903	-2.92
675.934	-1.92
675.965	4.08
675.996	2.08
676.027	8.08
676.058	-4.92
676.089	5.08
676.119	1.08
676.15	11.08
676.181	17.08
676.212	-8.92
676.243	8.08
676.274	2.08
676.304	8.08
676.335	-23.92
676.366	-6.92
676.397	-16.92
676.428	5.08
676.459	-1.92
676.489	13.08
676.52	17.08
676.551	2.08
676.582	4.08
676.613	15.08
676.643	-5.92
676.674	4.08
676.705	-8.92
676.736	5.08
676.767	25.08
676.797	8.08
676.828	-9.92
676.859	-4.92
676.89	-16.92
676.92	-6.92
676.951	-5.92
676.982	7.08
677.013	-0.92
677.044	8.08
677.074	-0.92
677.105	5.08
677.136	7.08
677.167	8.08
677.197	19.08
677.228	-0.92
677.259	-1.92
677.289	-4.92
677.32	1.08
677.351	-7.92
677.382	-0.92
677.412	-2.92
677.443	-2.92
677.474	9.08
677.505	-19.92
677.535	4.08
677.566	-6.92
677.597	-11.92
677.627	-7.92
677.658	-2.92
677.689	-6.92
677.72	-6.92
677.75	0.08
677.781	11.08
677.812	6.08
677.842	7.08
677.873	7.08
677.904	-10.92
677.934	6.08
677.965	10.08
677.996	4.08
678.026	6.08
678.057	2.08
678.088	5.08
678.118	-2.92
678.149	-19.92
678.18	-0.92
678.21	-3.92
678.241	7.08
678.272	-8.92
678.302	20.08
678.333	9.08
678.363	20.08
678.394	-3.92
678.425	20.08
678.455	-1.92
678.486	9.08
678.517	-4.92
678.547	-0.92
678.578	17.08
678.608	-26.92
678.639	2.08
678.67	0.08
678.7	-5.92
678.731	0.08
678.761	6.08
678.792	1.08
678.823	11.08
678.853	2.08
678.884	-7.92
678.914	-1.92
678.945	-5.92
678.975	6.08
679.006	5.08
679.037	-3.92
679.067	17.08
679.098	13.08
679.128	-4.92
679.159	-5.92
679.189	10.08
679.22	-17.92
679.25	24.08
679.281	5.08
679.312	-20.92
679.342	5.08
679.373	30.08
679.403	-0.92
679.434	-3.92
679.464	13.08
679.495	7.08
679.525	6.08
679.556	-3.92
679.586	-6.92
679.617	9.08
679.647	10.08
679.678	8.08
679.708	-1.92
679.739	-6.92
679.769	-4.92
679.8	-10.92
679.83	10.08
679.861	10.08
679.891	2.08
679.922	-3.92
679.952	1.08
679.983	2.08
680.013	8.08
680.044	-0.92
680.074	7.08
680.105	16.08
680.135	17.08
680.165	7.08
680.196	4.08
680.226	20.08
680.257	6.08
680.287	10.08
680.318	0.08
680.348	-4.92
680.379	3.08
680.409	5.08
680.439	4.08
680.47	-10.92
680.5	-7.92
680.531	7.08
680.561	10.08
680.592	9.08
680.622	19.08
680.652	-4.92
680.683	16.08
680.713	5.08
680.744	-8.92
680.774	-10.92
680.804	24.08
680.835	3.08
680.865	-6.92
680.896	15.08
680.926	17.08
680.956	11.08
680.987	9.08
681.017	8.08
681.047	-3.92
681.078	-9.92
681.108	1.08
681.139	7.08
681.169	6.08
681.199	4.08
681.23	-1.92
681.26	2.08
681.29	7.08
681.321	-4.92
681.351	-0.92
681.381	-2.92
681.412	2.08
681.442	20.08
681.472	19.08
681.503	7.08
681.533	6.08
681.563	-8.92
681.594	2.08
681.624	32.08
681.654	6.08
681.685	-0.92
681.715	12.08
681.745	13.08
681.775	0.08
681.806	4.08
681.836	5.08
681.866	-5.92
681.897	6.08
681.927	7.08
681.957	-18.92
681.987	16.08
682.018	0.08
682.048	-2.92
682.078	-4.92
682.109	12.08
682.139	15.08
682.169	-5.92
682.199	-3.92
682.23	5.08
682.26	12.08
682.29	3.08
682.32	-3.92
682.351	-7.92
682.381	-3.92
682.411	0.08
682.441	7.08
682.472	-21.92
682.502	-9.92
682.532	1.08
682.562	-4.92
682.592	1.08
682.623	0.08
682.653	6.08
682.683	1.08
682.713	7.08
682.743	4.08
682.774	-12.92
682.804	-18.92
682.834	4.08
682.864	-11.92
682.894	-8.92
682.925	-20.92
682.955	12.08
682.985	2.08
683.015	3.08
683.045	-1.92
683.076	-2.92
683.106	13.08
683.136	-18.92
683.166	-14.92
683.196	-9.92
683.226	11.08
683.257	-8.92
683.287	-24.92
683.317	-12.92
683.347	-5.92
683.377	1.08
683.407	7.08
683.437	6.08
683.468	9.08
683.498	3.08
683.528	1.08
683.558	-4.92
683.588	7.08
683.618	-4.92
683.648	-9.92
683.678	12.08
683.708	13.08
683.739	3.08
683.769	-1.92
683.799	-6.92
683.829	-15.92
683.859	8.08
683.889	4.08
683.919	9.08
683.949	3.08
683.979	-0.92
684.009	-0.92
684.039	0.08
684.07	-12.92
684.1	15.08
684.13	-7.92
684.16	4.08
684.19	-4.92
684.22	6.08
684.25	1.08
684.28	-5.92
684.31	23.08
684.34	17.08
684.37	-5.92
684.4	1.08
684.43	-3.92
684.46	8.08
684.49	3.08
684.52	22.08
684.55	1.08
684.58	3.08
684.61	-7.92
684.64	10.08
684.67	12.08
684.7	7.08
684.73	12.08
684.76	-4.92
684.79	5.08
684.82	4.08
684.85	5.08
684.88	6.08
684.91	10.08
684.94	-1.92
684.97	-6.92
685	-3.92
685.03	-12.92
685.06	-13.92
685.09	8.08
685.12	26.08
685.15	3.08
685.18	2.08
685.21	-5.92
685.24	-2.92
685.27	24.08
685.3	-4.92
685.33	6.08
685.36	11.08
685.39	5.08
685.42	1.08
685.45	-5.92
685.48	3.08
685.51	-25.92
685.54	15.08
685.569	12.08
685.599	-0.92
685.629	0.08
685.659	-1.92
685.689	5.08
685.719	12.08
685.749	-15.92
685.779	5.08
685.809	7.08
685.839	13.08
685.869	2.08
685.898	21.08
685.928	13.08
685.958	4.08
685.988	-6.92
686.018	-2.92
686.048	-3.92
686.078	7.08
686.108	23.08
686.137	-1.92
686.167	8.08
686.197	-14.92
686.227	1.08
686.257	18.08
686.287	18.08
686.317	12.08
686.346	-4.92
686.376	-11.92
686.406	6.08
686.436	6.08
686.466	-1.92
686.496	16.08
686.525	10.08
686.555	-7.92
686.585	7.08
686.615	28.08
686.645	5.08
686.675	6.08
686.704	8.08
686.734	12.08
686.764	2.08
686.794	-8.92
686.824	-3.92
686.853	11.08
686.883	9.08
686.913	25.08
686.943	12.08
686.973	-6.92
687.002	1.08
687.032	6.08
687.062	6.08
687.092	10.08
687.121	0.08
687.151	16.08
687.181	16.08
687.211	15.08
687.24	4.08
687.27	1.08
687.3	2.08
687.33	6.08
687.359	-16.92
687.389	-6.92
687.419	8.08
687.449	11.08
687.478	5.08
687.508	3.08
687.538	15.08
687.568	19.08
687.597	1.08
687.627	10.08
687.657	-5.92
687.686	5.08
687.716	19.08
687.746	-15.92
687.776	3.08
687.805	-7.92
687.835	-9.92
687.865	3.08
687.894	17.08
687.924	-11.92
687.954	-7.92
687.983	2.08
688.013	15.08
688.043	23.08
688.072	-8.92
688.102	15.08
688.132	-2.92
688.161	11.08
688.191	11.08
688.221	17.08
688.25	-2.92
688.28	3.08
688.31	-4.92
688.339	9.08
688.369	-3.92
688.399	-8.92
688.428	-12.92
688.458	0.08
688.488	12.08
688.517	1.08
688.547	-7.92
688.576	29.08
688.606	20.08
688.636	-3.92
688.665	7.08
688.695	22.08
688.725	15.08
688.754	3.08
688.784	8.08
688.813	9.08
688.843	-7.92
688.873	20.08
688.902	-9.92
688.932	2.08
688.961	13.08
688.991	19.08
689.02	20.08
689.05	-7.92
689.08	8.08
689.109	16.08
689.139	16.08
689.168	-1.92
689.198	4.08
689.227	4.08
689.257	20.08
689.287	11.08
689.316	0.08
689.346	-1.92
689.375	-7.92
689.405	7.08
689.434	8.08
689.464	19.08
689.493	-3.92
689.523	1.08
689.552	-8.92
689.582	-9.92
689.611	-5.92
689.641	8.08
689.67	-1.92
689.7	0.08
689.73	14.08
689.759	3.08
689.789	13.08
689.818	12.08
689.848	-7.92
689.877	28.08
689.906	-8.92
689.936	-3.92
689.965	23.08
689.995	3.08
690.024	3.08
690.054	12.08
690.083	12.08
690.113	2.08
690.142	-2.92
690.172	-0.92
690.201	-3.92
690.231	-1.92
690.26	26.08
690.29	17.08
690.319	22.08
690.348	5.08
690.378	3.08
690.407	1.08
690.437	-4.92
690.466	2.08
690.496	-3.92
690.525	-7.92
690.555	-19.92
690.584	-8.92
690.613	1.08
690.643	5.08
690.672	9.08
690.702	28.08
690.731	1.08
690.76	-12.92
690.79	2.08
690.819	-0.92
690.849	4.08
690.878	2.08
690.907	-0.92
690.937	16.08
690.966	20.08
690.996	18.08
691.025	-6.92
691.054	6.08
691.084	13.08
691.113	17.08
691.142	10.08
691.172	18.08
691.201	13.08
691.23	-6.92
691.26	4.08
691.289	-0.92
691.319	10.08
691.348	4.08
691.377	21.08
691.407	17.08
691.436	15.08
691.465	-0.92
691.495	-0.92
691.524	-6.92
691.553	-5.92
691.583	-6.92
691.612	8.08
691.641	7.08
691.67	9.08
691.7	12.08
691.729	0.08
691.758	8.08
691.788	7.08
691.817	-3.92
691.846	-3.92
691.876	8.08
691.905	8.08
691.934	5.08
691.963	28.08
691.993	18.08
692.022	-6.92
692.051	-14.92
692.081	11.08
692.11	30.08
692.139	17.08
692.168	-4.92
692.198	16.08
692.227	8.08
692.256	0.08
692.285	-5.92
692.315	7.08
692.344	6.08
692.373	2.08
692.402	-8.92
692.432	0.08
692.461	0.08
692.49	1.08
692.519	8.08
692.548	3.08
692.578	3.08
692.607	-15.92
692.636	-7.92
692.665	18.08
692.694	24.08
692.724	3.08
692.753	-4.92
692.782	15.08
692.811	19.08
692.84	-8.92
692.87	9.08
692.899	7.08
692.928	-7.92
692.957	4.08
692.986	13.08
693.016	12.08
693.045	9.08
693.074	20.08
693.103	9.08
693.132	-4.92
693.161	17.08
693.191	-1.92
693.22	-1.92
693.249	12.08
693.278	-5.92
693.307	2.08
693.336	-0.92
693.365	-19.92
693.395	-5.92
693.424	12.08
693.453	15.08
693.482	4.08
693.511	21.08
693.54	8.08
693.569	4.08
693.598	12.08
693.628	9.08
693.657	20.08
693.686	19.08
693.715	15.08
693.744	16.08
693.773	7.08
693.802	6.08
693.831	-9.92
693.86	22.08
693.889	1.08
693.919	8.08
693.948	-10.92
693.977	4.08
694.006	3.08
694.035	-7.92
694.064	-2.92
694.093	-4.92
694.122	-0.92
694.151	9.08
694.18	5.08
694.209	36.08
694.238	0.08
694.267	31.08
694.296	9.08
694.325	-6.92
694.354	-1.92
694.383	-0.92
694.412	1.08
694.441	-1.92
694.471	1.08
694.5	-1.92
694.529	13.08
694.558	0.08
694.587	4.08
694.616	-0.92
694.645	3.08
694.674	0.08
694.703	12.08
694.732	-12.92
694.761	13.08
694.79	1.08
694.819	-16.92
694.848	6.08
694.877	19.08
694.906	28.08
694.935	15.08
694.963	26.08
694.992	12.08
695.021	12.08
695.05	8.08
695.079	-11.92
695.108	-15.92
695.137	7.08
695.166	14.08
695.195	4.08
695.224	17.08
695.253	8.08
695.282	7.08
695.311	2.08
695.34	-0.92
695.369	-3.92
695.398	17.08
695.427	14.08
695.456	-5.92
695.485	5.08
695.513	15.08
695.542	9.08
695.571	13.08
695.6	30.08
695.629	27.08
695.658	15.08
695.687	-1.92
695.716	-9.92
695.745	16.08
695.774	0.08
695.802	9.08
695.831	3.08
695.86	11.08
695.889	11.08
695.918	12.08
695.947	2.08
695.976	5.08
696.005	10.08
696.033	15.08
696.062	13.08
696.091	7.08
696.12	3.08
696.149	11.08
696.178	-4.92
696.207	15.08
696.235	-6.92
696.264	14.08
696.293	18.08
696.322	8.08
696.351	17.08
696.38	-10.92
696.408	-8.92
696.437	-1.92
696.466	0.08
696.495	3.08
696.524	-2.92
696.553	8.08
696.581	7.08
696.61	-5.92
696.639	-2.92
696.668	26.08
696.697	1.08
696.725	13.08
696.754	1.08
696.783	3.08
696.812	10.08
696.84	-0.92
696.869	9.08
696.898	3.08
696.927	0.08
696.956	24.08
696.984	5.08
697.013	11.08
697.042	4.08
697.071	5.08
697.099	11.08
697.128	9.08
697.157	5.08
697.186	8.08
697.214	6.08
697.243	10.08
697.272	22.08
697.301	20.08
697.329	20.08
697.358	10.08
697.387	17.08
697.415	15.08
697.444	8.08
697.473	8.08
697.502	1.08
697.53	11.08
697.559	11.08
697.588	13.08
697.616	23.08
697.645	11.08
697.674	18.08
697.703	-4.92
697.731	14.08
697.76	20.08
697.789	3.08
697.817	4.08
697.846	9.08
697.875	-1.92
697.903	33.08
697.932	7.08
697.961	-1.92
697.989	14.08
698.018	18.08
698.047	4.08
698.075	22.08
698.104	3.08
698.133	-2.92
698.161	-4.92
698.19	-0.92
698.218	-5.92
698.247	6.08
698.276	-3.92
698.304	19.08
698.333	3.08
698.362	10.08
698.39	12.08
698.419	11.08
698.447	3.08
698.476	8.08
698.505	17.08
698.533	0.08
698.562	-1.92
698.591	-20.92
698.619	-20.92
698.648	4.08
698.676	8.08
698.705	4.08
698.733	-2.92
698.762	-3.92
698.791	15.08
698.819	-1.92
698.848	11.08
698.876	8.08
698.905	3.08
698.933	5.08
698.962	7.08
698.991	12.08
699.019	34.08
699.048	5.08
699.076	21.08
699.105	-5.92
699.133	3.08
699.162	12.08
699.19	31.08
699.219	12.08
699.248	-2.92
699.276	0.08
699.305	-10.92
699.333	17.08
699.362	2.08
699.39	3.08
699.419	0.08
699.447	8.08
699.476	6.08
699.504	13.08
699.533	4.08
699.561	-0.92
699.59	1.08
699.618	1.08
699.647	3.08
699.675	22.08
699.704	27.08
699.732	1.08
699.761	8.08
699.789	-5.92
699.818	23.08
699.846	15.08
699.874	-15.92
699.903	-3.92
699.931	0.08
699.96	-7.92
699.988	1.08
700.017	1.08
700.045	11.08
700.074	1.08
700.102	-3.92
700.13	2.08
700.159	13.08
700.187	11.08
700.216	-4.92
700.244	-6.92
700.273	3.08
700.301	3.08
700.329	9.08
700.358	0.08
700.386	9.08
700.415	8.08
700.443	-10.92
700.472	-9.92
700.5	9.08
700.528	6.08
700.557	6.08
700.585	-3.92
700.614	-2.92
700.642	16.08
700.67	16.08
700.699	25.08
700.727	1.08
700.755	12.08
700.784	4.08
700.812	4.08
700.841	9.08
700.869	8.08
700.897	-5.92
700.926	-0.92
700.954	-1.92
700.982	9.08
701.011	7.08
701.039	-6.92
701.067	-2.92
701.096	4.08
701.124	-8.92
701.152	0.08
701.181	-3.92
701.209	-1.92
701.237	3.08
701.266	0.08
701.294	4.08
701.322	0.08
701.351	17.08
701.379	-3.92
701.407	-5.92
701.435	-2.92
701.464	4.08
701.492	9.08
701.52	3.08
701.549	5.08
701.577	-8.92
701.605	-9.92
701.634	-1.92
701.662	16.08
701.69	4.08
701.718	0.08
701.747	2.08
701.775	-3.92
701.803	-18.92
701.831	9.08
701.86	0.08
701.888	2.08
701.916	1.08
701.944	-12.92
701.973	-12.92
702.001	-3.92
702.029	0.08
702.057	-1.92
702.086	-9.92
702.114	-6.92
702.142	8.08
702.17	7.08
702.199	8.08
702.227	12.08
702.255	8.08
702.283	9.08
702.311	14.08
702.34	-2.92
702.368	-15.92
702.396	6.08
702.424	4.08
702.452	-0.92
702.481	-0.92
702.509	3.08
702.537	13.08
702.565	12.08
702.593	-31.92
702.621	-4.92
702.65	8.08
702.678	15.08
702.706	27.08
702.734	-5.92
702.762	17.08
702.79	9.08
702.819	-5.92
702.847	-5.92
702.875	23.08
702.903	13.08
702.931	-4.92
702.959	-3.92
702.988	7.08
703.016	1.08
703.044	-1.92
703.072	-4.92
703.1	-5.92
703.128	-2.92
703.156	5.08
703.184	2.08
703.212	5.08
703.241	8.08
703.269	6.08
703.297	4.08
703.325	-1.92
703.353	0.08
703.381	3.08
703.409	4.08
703.437	-1.92
703.465	-6.92
703.493	7.08
703.522	20.08
703.55	6.08
703.578	17.08
703.606	-12.92
703.634	-2.92
703.662	-10.92
703.69	1.08
703.718	2.08
703.746	16.08
703.774	0.08
703.802	20.08
703.83	-3.92
703.858	4.08
703.886	1.08
703.914	-7.92
703.942	8.08
703.97	9.08
703.998	1.08
704.027	21.08
704.055	19.08
704.083	5.08
704.111	-9.92
704.139	3.08
704.167	-1.92
704.195	1.08
704.223	-13.92
704.251	8.08
704.279	10.08
704.307	14.08
704.335	-4.92
704.363	-6.92
704.391	-2.92
704.419	-5.92
704.447	-4.92
704.475	-1.92
704.503	3.08
704.531	25.08
704.558	9.08
704.586	-0.92
704.614	7.08
704.642	1.08
704.67	0.08
704.698	0.08
704.726	11.08
704.754	-8.92
704.782	6.08
704.81	3.08
704.838	26.08
704.866	17.08
704.894	-8.92
704.922	-2.92
704.95	10.08
704.978	7.08
705.006	-0.92
705.034	3.08
705.061	-4.92
705.089	2.08
705.117	-8.92
705.145	16.08
705.173	8.08
705.201	8.08
705.229	15.08
705.257	6.08
705.285	19.08
705.313	-3.92
705.34	-14.92
705.368	2.08
705.396	1.08
705.424	-18.92
705.452	-9.92
705.48	-10.92
705.508	6.08
705.536	0.08
705.563	-7.92
705.591	6.08
705.619	0.08
705.647	5.08
705.675	1.08
705.703	7.08
705.731	12.08
705.758	15.08
705.786	7.08
705.814	3.08
705.842	8.08
705.87	3.08
705.898	2.08
705.925	-0.92
705.953	-6.92
705.981	-7.92
706.009	-0.92
706.037	4.08
706.065	3.08
706.092	-6.92
706.12	9.08
706.148	13.08
706.176	-7.92
706.204	9.08
706.231	5.08
706.259	-6.92
706.287	5.08
706.315	12.08
706.342	-10.92
706.37	16.08
706.398	-0.92
706.426	-8.92
706.454	-1.92
706.481	2.08
706.509	-10.92
706.537	5.08
706.565	1.08
706.592	14.08
706.62	15.08
706.648	8.08
706.676	3.08
706.703	4.08
706.731	8.08
706.759	6.08
706.787	-10.92
706.814	16.08
706.842	1.08
706.87	-8.92
706.897	-3.92
706.925	-14.92
706.953	3.08
706.981	7.08
707.008	8.08
707.036	-0.92
707.064	-1.92
707.091	-15.92
707.119	17.08
707.147	12.08
707.174	8.08
707.202	9.08
707.23	-8.92
707.258	12.08
707.285	-14.92
707.313	1.08
707.341	-3.92
707.368	-6.92
707.396	6.08
707.424	10.08
707.451	-0.92
707.479	4.08
707.507	7.08
707.534	-5.92
707.562	3.08
707.59	-1.92
707.617	-9.92
707.645	5.08
707.672	3.08
707.7	5.08
707.728	4.08
707.755	-1.92
707.783	-5.92
707.811	13.08
707.838	-3.92
707.866	-6.92
707.893	-3.92
707.921	7.08
707.949	-4.92
707.976	6.08
708.004	4.08
708.031	-2.92
708.059	-0.92
708.087	2.08
708.114	3.08
708.142	3.08
708.169	9.08
708.197	0.08
708.225	6.08
708.252	4.08
708.28	3.08
708.307	-10.92
708.335	-2.92
708.362	-6.92
708.39	-2.92
708.418	4.08
708.445	1.08
708.473	-6.92
708.5	-9.92
708.528	1.08
708.555	-3.92
708.583	-11.92
708.61	0.08
708.638	0.08
708.665	-10.92
708.693	3.08
708.72	-11.92
708.748	-1.92
708.776	11.08
708.803	19.08
708.831	3.08
708.858	15.08
708.886	9.08
708.913	14.08
708.941	-11.92
708.968	0.08
708.996	1.08
709.023	24.08
709.051	-3.92
709.078	-9.92
709.105	-1.92
709.133	3.08
709.16	-2.92
709.188	11.08
709.215	5.08
709.243	2.08
709.27	-20.92
709.298	-11.92
709.325	-5.92
709.353	-7.92
709.38	0.08
709.408	4.08
709.435	5.08
709.462	10.08
709.49	25.08
709.517	-3.92
709.545	1.08
709.572	-9.92
709.6	0.08
709.627	12.08
709.655	-6.92
709.682	-14.92
709.709	0.08
709.737	15.08
709.764	3.08
709.792	11.08
709.819	-7.92
709.846	-5.92
709.874	0.08
709.901	-10.92
709.929	15.08
709.956	6.08
709.983	-12.92
710.011	5.08
710.038	-7.92
710.066	15.08
710.093	18.08
710.12	-3.92
710.148	1.08
710.175	-7.92
710.202	-1.92
710.23	8.08
710.257	1.08
710.284	15.08
710.312	1.08
710.339	-8.92
710.366	-2.92
710.394	8.08
710.421	9.08
710.448	-1.92
710.476	5.08
710.503	5.08
710.53	28.08
710.558	20.08
710.585	-2.92
710.612	-2.92
710.64	5.08
710.667	15.08
710.694	-3.92
710.722	5.08
710.749	-1.92
710.776	0.08
710.804	10.08
710.831	9.08
710.858	-7.92
710.885	-8.92
710.913	-2.92
710.94	22.08
710.967	0.08
710.995	7.08
711.022	-2.92
711.049	16.08
711.076	-11.92
711.104	-16.92
711.131	-12.92
711.158	0.08
711.185	5.08
711.213	-11.92
711.24	-11.92
711.267	-3.92
711.294	1.08
711.322	21.08
711.349	3.08
711.376	9.08
711.403	6.08
711.431	-8.92
711.458	4.08
711.485	-3.92
711.512	5.08
711.54	15.08
711.567	13.08
711.594	2.08
711.621	-1.92
711.648	12.08
711.676	3.08
711.703	1.08
711.73	-12.92
711.757	0.08
711.784	9.08
711.812	3.08
711.839	-1.92
711.866	-0.92
711.893	12.08
711.92	5.08
711.947	-3.92
711.975	10.08
712.002	-7.92
712.029	7.08
712.056	15.08
712.083	13.08
712.11	-7.92
712.138	4.08
712.165	15.08
712.192	12.08
712.219	13.08
712.246	-4.92
712.273	-5.92
712.3	0.08
712.328	13.08
712.355	7.08
712.382	-5.92
712.409	5.08
712.436	-12.92
712.463	13.08
712.49	-5.92
712.517	4.08
712.544	3.08
712.572	-5.92
712.599	-11.92
712.626	0.08
712.653	6.08
712.68	-2.92
712.707	2.08
712.734	16.08
712.761	-7.92
712.788	-2.92
712.815	-2.92
712.842	9.08
712.87	3.08
712.897	5.08
712.924	0.08
712.951	-3.92
712.978	15.08
713.005	15.08
713.032	2.08
713.059	-0.92
713.086	14.08
713.113	-16.92
713.14	-9.92
713.167	4.08
713.194	5.08
713.221	8.08
713.248	13.08
713.275	2.08
713.302	-12.92
713.329	2.08
713.356	-3.92
713.383	13.08
713.41	13.08
713.437	-3.92
713.464	-2.92
713.491	12.08
713.518	-1.92
713.545	-1.92
713.572	15.08
713.599	20.08
713.626	5.08
713.653	4.08
713.68	-0.92
713.707	6.08
713.734	16.08
713.761	1.08
713.788	-2.92
713.815	28.08
713.842	-3.92
713.869	-6.92
713.896	7.08
713.923	7.08
713.95	1.08
713.977	-4.92
714.004	10.08
714.031	4.08
714.058	-7.92
714.085	-0.92
714.112	-8.92
714.139	5.08
714.165	2.08
714.192	10.08
714.219	9.08
714.246	10.08
714.273	11.08
714.3	1.08
714.327	18.08
714.354	9.08
714.381	0.08
714.408	4.08
714.435	-12.92
714.461	-8.92
714.488	4.08
714.515	-11.92
714.542	-4.92
714.569	-10.92
714.596	-14.92
714.623	3.08
714.65	-5.92
714.677	11.08
714.703	-1.92
714.73	-4.92
714.757	-0.92
714.784	-5.92
714.811	-3.92
714.838	10.08
714.865	-21.92
714.891	3.08
714.918	9.08
714.945	-4.92
714.972	-3.92
714.999	9.08
715.026	-4.92
715.052	5.08
715.079	-2.92
715.106	-2.92
715.133	8.08
715.16	-11.92
715.187	3.08
715.213	11.08
715.24	4.08
715.267	3.08
715.294	-1.92
715.321	-9.92
715.347	2.08
715.374	-7.92
715.401	-4.92
715.428	-0.92
715.455	-10.92
715.481	-5.92
715.508	0.08
715.535	-16.92
715.562	23.08
715.588	8.08
715.615	4.08
715.642	-2.92
715.669	7.08
715.695	0.08
715.722	-7.92
715.749	11.08
715.776	23.08
715.802	-1.92
715.829	3.08
715.856	-6.92
715.883	13.08
715.909	-0.92
715.936	8.08
715.963	3.08
715.99	-18.92
716.016	6.08
716.043	-1.92
716.07	8.08
716.096	-13.92
716.123	6.08
716.15	6.08
716.177	9.08
716.203	11.08
716.23	-4.92
716.257	-7.92
716.283	11.08
716.31	-2.92
716.337	20.08
716.363	-2.92
716.39	-0.92
716.417	-0.92
716.443	3.08
716.47	17.08
716.497	5.08
716.523	16.08
716.55	22.08
716.577	16.08
716.603	-6.92
716.63	-2.92
716.657	16.08
716.683	-0.92
716.71	3.08
716.737	7.08
716.763	10.08
716.79	6.08
716.817	27.08
716.843	4.08
716.87	-6.92
716.897	-2.92
716.923	23.08
716.95	-4.92
716.976	-3.92
717.003	0.08
717.03	7.08
717.056	9.08
717.083	2.08
717.109	23.08
717.136	20.08
717.163	-18.92
717.189	17.08
717.216	5.08
717.242	-16.92
717.269	6.08
717.296	12.08
717.322	6.08
717.349	17.08
717.375	12.08
717.402	3.08
717.428	7.08
717.455	24.08
717.481	7.08
717.508	-1.92
717.535	-3.92
717.561	-4.92
717.588	-15.92
717.614	-2.92
717.641	-5.92
717.667	-3.92
717.694	6.08
717.72	-2.92
717.747	0.08
717.773	-2.92
717.8	5.08
717.826	12.08
717.853	5.08
717.88	19.08
717.906	12.08
717.933	13.08
717.959	3.08
717.986	0.08
718.012	7.08
718.039	11.08
718.065	2.08
718.092	13.08
718.118	-8.92
718.144	-21.92
718.171	14.08
718.197	12.08
718.224	-1.92
718.25	-3.92
718.277	1.08
718.303	2.08
718.33	6.08
718.356	-13.92
718.383	-29.92
718.409	-14.92
718.436	7.08
718.462	-4.92
718.489	-0.92
718.515	21.08
718.541	24.08
718.568	14.08
718.594	4.08
718.621	5.08
718.647	15.08
718.674	12.08
718.7	7.08
718.726	-3.92
718.753	1.08
718.779	6.08
718.806	0.08
718.832	-2.92
718.858	0.08
718.885	3.08
718.911	-3.92
718.938	14.08
718.964	-12.92
718.99	16.08
719.017	9.08
719.043	9.08
719.07	26.08
719.096	-2.92
719.122	0.08
719.149	-1.92
719.175	1.08
719.201	20.08
719.228	-0.92
719.254	3.08
719.281	-0.92
719.307	-10.92
719.333	-0.92
719.36	9.08
719.386	1.08
719.412	2.08
719.439	-5.92
719.465	13.08
719.491	0.08
719.518	15.08
719.544	9.08
719.57	17.08
719.597	11.08
719.623	5.08
719.649	9.08
719.675	-2.92
719.702	16.08
719.728	17.08
719.754	0.08
719.781	1.08
719.807	4.08
719.833	-6.92
719.86	-3.92
719.886	-5.92
719.912	2.08
719.938	-11.92
719.965	2.08
719.991	9.08
720.017	-2.92
720.044	-8.92
720.07	4.08
720.096	11.08
720.122	3.08
720.149	5.08
720.175	36.08
720.201	8.08
720.227	-0.92
720.254	6.08
720.28	-5.92
720.306	3.08
720.332	3.08
720.359	8.08
720.385	13.08
720.411	0.08
720.437	4.08
720.463	-17.92
720.49	16.08
720.516	-2.92
720.542	-0.92
720.568	12.08
720.595	9.08
720.621	11.08
720.647	-0.92
720.673	7.08
720.699	0.08
720.725	-4.92
720.752	9.08
720.778	4.08
720.804	-2.92
720.83	6.08
720.856	3.08
720.883	-6.92
720.909	-8.92
720.935	7.08
720.961	31.08
720.987	8.08
721.013	8.08
721.04	-5.92
721.066	-12.92
721.092	6.08
721.118	3.08
721.144	-0.92
721.17	11.08
721.196	13.08
721.223	6.08
721.249	3.08
721.275	5.08
721.301	6.08
721.327	11.08
721.353	7.08
721.379	9.08
721.405	17.08
721.432	11.08
721.458	-2.92
721.484	12.08
721.51	-4.92
721.536	3.08
721.562	3.08
721.588	-8.92
721.614	-2.92
721.64	-11.92
721.666	-5.92
721.693	-14.92
721.719	-3.92
721.745	-10.92
721.771	9.08
721.797	8.08
721.823	7.08
721.849	5.08
721.875	7.08
721.901	9.08
721.927	-0.92
721.953	-0.92
721.979	5.08
722.005	13.08
722.031	9.08
722.057	5.08
722.083	1.08
722.109	7.08
722.135	18.08
722.161	25.08
722.187	-3.92
722.214	-4.92
722.24	6.08
722.266	-3.92
722.292	-0.92
722.318	7.08
722.344	2.08
722.37	1.08
722.396	13.08
722.422	13.08
722.448	-2.92
722.474	1.08
722.5	1.08
722.526	13.08
722.552	11.08
722.578	4.08
722.603	1.08
722.629	-2.92
722.655	2.08
722.681	0.08
722.707	2.08
722.733	5.08
722.759	-1.92
722.785	6.08
722.811	2.08
722.837	-7.92
722.863	4.08
722.889	4.08
722.915	-7.92
722.941	1.08
722.967	11.08
722.993	16.08
723.019	-1.92
723.045	11.08
723.071	10.08
723.097	-7.92
723.122	-8.92
723.148	4.08
723.174	-0.92
723.2	10.08
723.226	9.08
723.252	0.08
723.278	-2.92
723.304	11.08
723.33	-1.92
723.356	-6.92
723.381	-6.92
723.407	-4.92
723.433	14.08
723.459	-3.92
723.485	-5.92
723.511	3.08
723.537	0.08
723.563	-6.92
723.588	5.08
723.614	10.08
723.64	6.08
723.666	0.08
723.692	8.08
723.718	7.08
723.744	-4.92
723.769	-10.92
723.795	-10.92
723.821	0.08
723.847	6.08
723.873	-1.92
723.899	-8.92
723.924	5.08
723.95	9.08
723.976	8.08
724.002	9.08
724.028	2.08
724.053	-16.92
724.079	8.08
724.105	8.08
724.131	11.08
724.157	19.08
724.182	10.08
724.208	11.08
724.234	16.08
724.26	6.08
724.286	17.08
724.311	-0.92
724.337	-11.92
724.363	-9.92
724.389	15.08
724.415	-4.92
724.44	12.08
724.466	-0.92
724.492	-6.92
724.518	9.08
724.543	9.08
724.569	3.08
724.595	-4.92
724.621	-0.92
724.646	-17.92
724.672	-3.92
724.698	-2.92
724.723	-2.92
724.749	-0.92
724.775	12.08
724.801	0.08
724.826	-1.92
724.852	-10.92
724.878	-11.92
724.904	-16.92
724.929	-0.92
724.955	-9.92
724.981	11.08
725.006	4.08
725.032	-0.92
725.058	1.08
725.083	1.08
725.109	3.08
725.135	6.08
725.161	-0.92
725.186	-4.92
725.212	-5.92
725.238	3.08
725.263	1.08
725.289	5.08
725.315	-3.92
725.34	-8.92
725.366	12.08
725.392	5.08
725.417	2.08
725.443	10.08
725.468	22.08
725.494	10.08
725.52	13.08
725.545	4.08
725.571	-2.92
725.597	-0.92
725.622	-11.92
725.648	-0.92
725.674	19.08
725.699	0.08
725.725	4.08
725.75	13.08
725.776	4.08
725.802	3.08
725.827	-2.92
725.853	1.08
725.878	13.08
725.904	12.08
725.93	5.08
725.955	-4.92
725.981	-9.92
726.006	-11.92
726.032	1.08
726.057	4.08
726.083	-9.92
726.109	6.08
726.134	4.08
726.16	4.08
726.185	-6.92
726.211	4.08
726.236	20.08
726.262	11.08
726.288	17.08
726.313	20.08
726.339	15.08
726.364	5.08
726.39	9.08
726.415	7.08
726.441	2.08
726.466	-4.92
726.492	-6.92
726.517	-3.92
726.543	1.08
726.568	0.08
726.594	-0.92
726.619	11.08
726.645	0.08
726.67	-5.92
726.696	-4.92
726.721	0.08
726.747	-10.92
726.772	3.08
726.798	1.08
726.823	11.08
726.849	-14.92
726.874	3.08
726.9	18.08
726.925	10.08
726.951	3.08
726.976	-6.92
727.002	-3.92
727.027	-1.92
727.053	6.08
727.078	3.08
727.104	-1.92
727.129	-3.92
727.155	-3.92
727.18	10.08
727.205	-16.92
727.231	-16.92
727.256	13.08
727.282	7.08
727.307	1.08
727.333	-6.92
727.358	-18.92
727.383	-11.92
727.409	-5.92
727.434	5.08
727.46	-9.92
727.485	-6.92
727.511	3.08
727.536	-11.92
727.561	-5.92
727.587	-1.92
727.612	8.08
727.637	6.08
727.663	-0.92
727.688	10.08
727.714	-5.92
727.739	-7.92
727.764	3.08
727.79	-7.92
727.815	-10.92
727.841	7.08
727.866	-0.92
727.891	20.08
727.917	-7.92
727.942	-10.92
727.967	-3.92
727.993	-22.92
728.018	12.08
728.043	0.08
728.069	16.08
728.094	14.08
728.119	3.08
728.145	9.08
728.17	1.08
728.195	-0.92
728.221	11.08
728.246	7.08
728.271	-11.92
728.297	-0.92
728.322	17.08
728.347	-7.92
728.373	-0.92
728.398	3.08
728.423	4.08
728.448	20.08
728.474	14.08
728.499	-0.92
728.524	-8.92
728.55	-12.92
728.575	4.08
728.6	-2.92
728.625	5.08
728.651	-5.92
728.676	-2.92
728.701	9.08
728.727	12.08
728.752	-8.92
728.777	-1.92
728.802	13.08
728.828	-3.92
728.853	1.08
728.878	-0.92
728.903	-0.92
728.929	-7.92
728.954	4.08
728.979	-1.92
729.004	-0.92
729.03	-4.92
729.055	8.08
729.08	-10.92
729.105	-9.92
729.13	8.08
729.156	-4.92
729.181	-12.92
729.206	-25.92
729.231	-11.92
729.256	-0.92
729.282	-2.92
729.307	-7.92
729.332	-11.92
729.357	-5.92
729.382	-11.92
729.408	-10.92
729.433	-7.92
729.458	4.08
729.483	9.08
729.508	6.08
729.533	5.08
729.559	-0.92
729.584	-4.92
729.609	11.08
729.634	17.08
729.659	9.08
729.684	-5.92
729.71	14.08
729.735	21.08
729.76	5.08
729.785	-4.92
729.81	7.08
729.835	-6.92
729.86	-12.92
729.886	12.08
729.911	8.08
729.936	-6.92
729.961	7.08
729.986	-9.92
730.011	-3.92
730.036	1.08
730.061	5.08
730.086	9.08
730.112	-3.92
730.137	3.08
730.162	-1.92
730.187	-12.92
730.212	13.08
730.237	-7.92
730.262	-2.92
730.287	1.08
730.312	5.08
730.337	5.08
730.362	14.08
730.387	-1.92
730.413	-16.92
730.438	-6.92
730.463	-1.92
730.488	0.08
730.513	-11.92
730.538	-6.92
730.563	1.08
730.588	12.08
730.613	16.08
730.638	9.08
730.663	-6.92
730.688	16.08
730.713	-2.92
730.738	12.08
730.763	3.08
730.788	-16.92
730.813	6.08
730.838	10.08
730.863	4.08
730.888	13.08
730.913	-0.92
730.938	-8.92
730.963	10.08
730.988	-2.92
731.013	-1.92
731.038	-2.92
731.063	-3.92
731.088	4.08
731.113	0.08
731.138	3.08
731.163	4.08
731.188	-7.92
731.213	21.08
731.238	8.08
731.263	-2.92
731.288	-7.92
731.313	-2.92
731.338	13.08
731.363	11.08
731.388	17.08
731.413	-3.92
731.438	0.08
731.463	-8.92
731.487	-2.92
731.512	-11.92
731.537	2.08
731.562	9.08
731.587	-0.92
731.612	-6.92
731.637	-5.92
731.662	0.08
731.687	-14.92
731.712	-6.92
731.737	18.08
731.762	0.08
731.786	11.08
731.811	3.08
731.836	0.08
731.861	5.08
731.886	-5.92
731.911	17.08
731.936	16.08
731.961	1.08
731.986	1.08
732.01	3.08
732.035	-0.92
732.06	7.08
732.085	3.08
732.11	15.08
732.135	-5.92
732.16	0.08
732.184	1.08
732.209	1.08
732.234	9.08
732.259	-2.92
732.284	6.08
732.309	-0.92
732.334	-1.92
732.358	-11.92
732.383	-5.92
732.408	-1.92
732.433	-8.92
732.458	-4.92
732.482	1.08
732.507	-1.92
732.532	-2.92
732.557	12.08
732.582	13.08
732.607	-3.92
732.631	-7.92
732.656	-2.92
732.681	0.08
732.706	9.08
732.73	12.08
732.755	-6.92
732.78	1.08
732.805	6.08
732.83	-3.92
732.854	9.08
732.879	20.08
732.904	21.08
732.929	-1.92
732.953	-3.92
732.978	9.08
733.003	-0.92
733.028	-3.92
733.052	4.08
733.077	1.08
733.102	0.08
733.127	9.08
733.151	7.08
733.176	10.08
733.201	19.08
733.226	8.08
733.25	-1.92
733.275	-6.92
733.3	-6.92
733.324	20.08
733.349	12.08
733.374	14.08
733.399	8.08
733.423	-5.92
733.448	-13.92
733.473	-3.92
733.497	23.08
733.522	8.08
733.547	2.08
733.571	17.08
733.596	2.08
733.621	0.08
733.646	-6.92
733.67	-3.92
733.695	-4.92
733.72	-2.92
733.744	3.08
733.769	7.08
733.794	15.08
733.818	-2.92
733.843	-11.92
733.867	-12.92
733.892	4.08
733.917	6.08
733.941	1.08
733.966	-12.92
733.991	-9.92
734.015	3.08
734.04	6.08
734.065	14.08
734.089	12.08
734.114	0.08
734.138	11.08
734.163	16.08
734.188	11.08
734.212	14.08
734.237	5.08
734.261	7.08
734.286	-4.92
734.311	6.08
734.335	-2.92
734.36	-10.92
734.384	13.08
734.409	21.08
734.434	-10.92
734.458	1.08
734.483	-4.92
734.507	-1.92
734.532	7.08
734.556	-5.92
734.581	5.08
734.606	10.08
734.63	7.08
734.655	-2.92
734.679	-12.92
734.704	-2.92
734.728	9.08
734.753	4.08
734.777	0.08
734.802	2.08
734.826	-9.92
734.851	4.08
734.876	10.08
734.9	11.08
734.925	12.08
734.949	12.08
734.974	10.08
734.998	13.08
735.023	5.08
735.047	-4.92
735.072	16.08
735.096	13.08
735.121	9.08
735.145	9.08
735.17	9.08
735.194	13.08
735.219	0.08
735.243	9.08
735.268	10.08
735.292	5.08
735.317	7.08
735.341	-0.92
735.365	-10.92
735.39	6.08
735.414	6.08
735.439	0.08
735.463	4.08
735.488	5.08
735.512	12.08
735.537	18.08
735.561	-5.92
735.586	7.08
735.61	7.08
735.634	5.08
735.659	16.08
735.683	21.08
735.708	1.08
735.732	-0.92
735.757	15.08
735.781	-0.92
735.805	5.08
735.83	-3.92
735.854	1.08
735.879	11.08
735.903	14.08
735.927	4.08
735.952	1.08
735.976	-13.92
736.001	-5.92
736.025	8.08
736.049	3.08
736.074	2.08
736.098	2.08
736.123	9.08
736.147	15.08
736.171	0.08
736.196	19.08
736.22	-3.92
736.244	10.08
736.269	0.08
736.293	4.08
736.317	1.08
736.342	15.08
736.366	13.08
736.39	11.08
736.415	5.08
736.439	2.08
736.463	13.08
736.488	14.08
736.512	15.08
736.536	18.08
736.561	24.08
736.585	4.08
736.609	23.08
736.634	-4.92
736.658	-3.92
736.682	11.08
736.707	-2.92
736.731	4.08
736.755	12.08
736.78	13.08
736.804	11.08
736.828	18.08
736.852	10.08
736.877	8.08
736.901	2.08
736.925	7.08
736.949	3.08
736.974	-2.92
736.998	-6.92
737.022	2.08
737.047	-17.92
737.071	-3.92
737.095	11.08
737.119	29.08
737.144	9.08
737.168	7.08
737.192	-10.92
737.216	3.08
737.241	-11.92
737.265	0.08
737.289	3.08
737.313	-2.92
737.337	-2.92
737.362	9.08
737.386	3.08
737.41	-3.92
737.434	3.08
737.459	19.08
737.483	17.08
737.507	27.08
737.531	20.08
737.555	15.08
737.58	0.08
737.604	12.08
737.628	-2.92
737.652	-9.92
737.676	5.08
737.701	19.08
737.725	8.08
737.749	25.08
737.773	0.08
737.797	0.08
737.821	8.08
737.846	-7.92
737.87	13.08
737.894	-7.92
737.918	-8.92
737.942	5.08
737.966	3.08
737.99	1.08
738.015	14.08
738.039	6.08
738.063	-24.92
738.087	8.08
738.111	5.08
738.135	0.08
738.159	1.08
738.184	-0.92
738.208	-0.92
738.232	8.08
738.256	27.08
738.28	14.08
738.304	14.08
738.328	8.08
738.352	18.08
738.376	6.08
738.4	16.08
738.425	1.08
738.449	4.08
738.473	7.08
738.497	6.08
738.521	8.08
738.545	18.08
738.569	5.08
738.593	7.08
738.617	15.08
738.641	-0.92
738.665	4.08
738.689	16.08
738.713	-4.92
738.737	12.08
738.762	9.08
738.786	5.08
738.81	-10.92
738.834	18.08
738.858	7.08
738.882	-2.92
738.906	-7.92
738.93	13.08
738.954	0.08
738.978	0.08
739.002	6.08
739.026	21.08
739.05	11.08
739.074	-0.92
739.098	30.08
739.122	23.08
739.146	7.08
739.17	18.08
739.194	8.08
739.218	1.08
739.242	4.08
739.266	-8.92
739.29	13.08
739.314	13.08
739.338	-4.92
739.362	8.08
739.386	17.08
739.41	-3.92
739.434	-4.92
739.458	12.08
739.482	10.08
739.506	10.08
739.53	3.08
739.554	17.08
739.577	0.08
739.601	10.08
739.625	-0.92
739.649	4.08
739.673	1.08
739.697	7.08
739.721	-3.92
739.745	19.08
739.769	7.08
739.793	7.08
739.817	13.08
739.841	3.08
739.865	-0.92
739.889	-5.92
739.912	13.08
739.936	-5.92
739.96	11.08
739.984	10.08
740.008	1.08
740.032	4.08
740.056	6.08
740.08	13.08
740.104	-0.92
740.127	18.08
740.151	7.08
740.175	4.08
740.199	8.08
740.223	46.08
740.247	11.08
740.271	12.08
740.295	-1.92
740.318	-12.92
740.342	12.08
740.366	4.08
740.39	8.08
740.414	3.08
740.438	-3.92
740.461	20.08
740.485	9.08
740.509	-5.92
740.533	11.08
740.557	3.08
740.581	-4.92
740.604	-3.92
740.628	2.08
740.652	10.08
740.676	7.08
740.7	10.08
740.723	11.08
740.747	4.08
740.771	-3.92
740.795	0.08
740.819	13.08
740.842	10.08
740.866	11.08
740.89	6.08
740.914	-4.92
740.938	-5.92
740.961	12.08
740.985	20.08
741.009	1.08
741.033	19.08
741.056	2.08
741.08	-8.92
741.104	3.08
741.128	8.08
741.151	11.08
741.175	1.08
741.199	-2.92
741.223	13.08
741.246	-6.92
741.27	8.08
741.294	4.08
741.318	-5.92
741.341	-1.92
741.365	2.08
741.389	-2.92
741.413	11.08
741.436	7.08
741.46	3.08
741.484	21.08
741.507	5.08
741.531	26.08
741.555	30.08
741.579	14.08
741.602	-0.92
741.626	2.08
741.65	0.08
741.673	6.08
741.697	19.08
741.721	2.08
741.744	-5.92
741.768	1.08
741.792	-0.92
741.815	1.08
741.839	6.08
741.863	21.08
741.886	10.08
741.91	17.08
741.934	6.08
741.957	-12.92
741.981	14.08
742.005	-0.92
742.028	-1.92
742.052	-3.92
742.075	15.08
742.099	12.08
742.123	3.08
742.146	10.08
742.17	0.08
742.194	-2.92
742.217	-8.92
742.241	-6.92
742.264	8.08
742.288	8.08
742.312	-6.92
742.335	-7.92
742.359	0.08
742.382	13.08
742.406	5.08
742.43	-7.92
742.453	-0.92
742.477	-0.92
742.5	-10.92
742.524	5.08
742.548	-2.92
742.571	3.08
742.595	16.08
742.618	1.08
742.642	-8.92
742.665	14.08
742.689	-0.92
742.712	9.08
742.736	-0.92
742.76	-2.92
742.783	-4.92
742.807	18.08
742.83	13.08
742.854	-0.92
742.877	-3.92
742.901	8.08
742.924	-8.92
742.948	-3.92
742.971	-10.92
742.995	5.08
743.018	-1.92
743.042	4.08
743.065	-3.92
743.089	-8.92
743.112	-3.92
743.136	4.08
743.159	-0.92
743.183	-0.92
743.206	7.08
743.23	-2.92
743.253	-2.92
743.277	12.08
743.3	-10.92
743.324	5.08
743.347	3.08
743.371	13.08
743.394	6.08
743.418	21.08
743.441	-0.92
743.465	-3.92
743.488	1.08
743.512	-12.92
743.535	-6.92
743.558	10.08
743.582	7.08
743.605	-5.92
743.629	5.08
743.652	10.08
743.676	20.08
743.699	17.08
743.723	-2.92
743.746	13.08
743.769	4.08
743.793	12.08
743.816	-8.92
743.84	3.08
743.863	7.08
743.886	0.08
743.91	7.08
743.933	5.08
743.957	-1.92
743.98	7.08
744.003	3.08
744.027	-6.92
744.05	5.08
744.074	-0.92
744.097	-16.92
744.12	5.08
744.144	-12.92
744.167	11.08
744.19	0.08
744.214	0.08
744.237	3.08
744.26	19.08
744.284	-7.92
744.307	5.08
744.331	-2.92
744.354	-1.92
744.377	-9.92
744.401	-2.92
744.424	1.08
744.447	-2.92
744.471	-27.92
