Data from HighRes_H2D2_15_04_11_07_2024_HR4C61891__18__15-05-36-243.txt Node

Date: Thu Nov 07 15:05:36 EST 2024
User: crc00042
Spectrometer: HR4C6189
Trigger mode: 4
Integration Time (sec): 1.000000E-1
Scans to average: 1
Electric dark correction enabled: true
Nonlinearity correction enabled: false
Boxcar width: 0
XAxis mode: Wavelengths
Number of Pixels in Spectrum: 3648
>>>>>Begin Spectral Data<<<<<
639.567	-71.92
639.602	-71.92
639.636	-71.92
639.67	-53.92
639.704	-9.92
639.738	-18.92
639.773	10.08
639.807	-15.92
639.841	-1.92
639.875	7.08
639.909	-2.92
639.943	14.08
639.978	-3.92
640.012	4.08
640.046	13.08
640.08	1.08
640.114	-0.92
640.148	-4.92
640.182	-12.92
640.217	-8.92
640.251	18.08
640.285	10.08
640.319	-8.92
640.353	11.08
640.387	15.08
640.421	6.08
640.455	2.08
640.49	-13.92
640.524	6.08
640.558	15.08
640.592	11.08
640.626	-9.92
640.66	-1.92
640.694	-2.92
640.728	18.08
640.762	14.08
640.796	18.08
640.83	14.08
640.865	-1.92
640.899	18.08
640.933	3.08
640.967	11.08
641.001	9.08
641.035	2.08
641.069	-6.92
641.103	-4.92
641.137	-8.92
641.171	-15.92
641.205	0.08
641.239	-6.92
641.273	20.08
641.307	11.08
641.341	-2.92
641.375	-0.92
641.409	7.08
641.443	2.08
641.477	10.08
641.511	3.08
641.545	-6.92
641.579	-2.92
641.614	18.08
641.648	7.08
641.682	12.08
641.716	17.08
641.75	-0.92
641.784	-4.92
641.818	-5.92
641.852	-2.92
641.886	-20.92
641.919	13.08
641.953	5.08
641.987	-2.92
642.021	2.08
642.055	17.08
642.089	22.08
642.123	-12.92
642.157	-12.92
642.191	-1.92
642.225	1.08
642.259	-1.92
642.293	-2.92
642.327	-7.92
642.361	7.08
642.395	9.08
642.429	20.08
642.463	6.08
642.497	15.08
642.531	17.08
642.565	4.08
642.599	0.08
642.633	-15.92
642.666	19.08
642.7	16.08
642.734	11.08
642.768	-7.92
642.802	7.08
642.836	12.08
642.87	0.08
642.904	2.08
642.938	17.08
642.972	15.08
643.005	2.08
643.039	14.08
643.073	3.08
643.107	16.08
643.141	23.08
643.175	8.08
643.209	11.08
643.243	2.08
643.276	-0.92
643.31	5.08
643.344	11.08
643.378	-5.92
643.412	13.08
643.446	3.08
643.48	-1.92
643.513	11.08
643.547	4.08
643.581	9.08
643.615	14.08
643.649	8.08
643.683	14.08
643.716	-4.92
643.75	10.08
643.784	-11.92
643.818	16.08
643.852	-15.92
643.886	-6.92
643.919	1.08
643.953	13.08
643.987	-13.92
644.021	3.08
644.055	21.08
644.088	-12.92
644.122	-3.92
644.156	-9.92
644.19	-7.92
644.224	-8.92
644.257	-11.92
644.291	12.08
644.325	14.08
644.359	4.08
644.392	20.08
644.426	17.08
644.46	1.08
644.494	4.08
644.527	-11.92
644.561	17.08
644.595	-6.92
644.629	-13.92
644.662	1.08
644.696	13.08
644.73	4.08
644.764	11.08
644.797	3.08
644.831	-2.92
644.865	11.08
644.899	8.08
644.932	28.08
644.966	6.08
645	7.08
645.033	23.08
645.067	-4.92
645.101	-3.92
645.135	2.08
645.168	-11.92
645.202	-17.92
645.236	-0.92
645.269	12.08
645.303	8.08
645.337	-25.92
645.37	-5.92
645.404	-9.92
645.438	-4.92
645.471	-15.92
645.505	8.08
645.539	8.08
645.572	-17.92
645.606	8.08
645.64	1.08
645.673	-3.92
645.707	2.08
645.741	-0.92
645.774	-12.92
645.808	-0.92
645.842	2.08
645.875	8.08
645.909	1.08
645.943	-23.92
645.976	-0.92
646.01	17.08
646.043	7.08
646.077	17.08
646.111	14.08
646.144	20.08
646.178	-6.92
646.212	-29.92
646.245	-13.92
646.279	6.08
646.312	0.08
646.346	23.08
646.38	13.08
646.413	8.08
646.447	15.08
646.48	6.08
646.514	2.08
646.547	-3.92
646.581	-0.92
646.615	-10.92
646.648	7.08
646.682	-20.92
646.715	0.08
646.749	11.08
646.782	-8.92
646.816	-7.92
646.85	-6.92
646.883	-5.92
646.917	3.08
646.95	16.08
646.984	14.08
647.017	-7.92
647.051	-1.92
647.084	4.08
647.118	-4.92
647.151	-4.92
647.185	7.08
647.218	-0.92
647.252	-4.92
647.285	-29.92
647.319	-17.92
647.353	7.08
647.386	31.08
647.42	-0.92
647.453	9.08
647.487	14.08
647.52	8.08
647.553	14.08
647.587	-5.92
647.62	3.08
647.654	-4.92
647.687	16.08
647.721	4.08
647.754	-2.92
647.788	4.08
647.821	-14.92
647.855	-0.92
647.888	21.08
647.922	16.08
647.955	10.08
647.989	26.08
648.022	-2.92
648.055	13.08
648.089	-10.92
648.122	20.08
648.156	1.08
648.189	1.08
648.223	7.08
648.256	16.08
648.29	0.08
648.323	10.08
648.356	11.08
648.39	2.08
648.423	8.08
648.457	3.08
648.49	15.08
648.523	17.08
648.557	11.08
648.59	7.08
648.624	-7.92
648.657	13.08
648.69	30.08
648.724	19.08
648.757	26.08
648.791	14.08
648.824	6.08
648.857	26.08
648.891	18.08
648.924	11.08
648.957	18.08
648.991	2.08
649.024	20.08
649.057	-1.92
649.091	4.08
649.124	20.08
649.158	-4.92
649.191	15.08
649.224	1.08
649.258	16.08
649.291	5.08
649.324	9.08
649.358	-3.92
649.391	2.08
649.424	14.08
649.458	10.08
649.491	8.08
649.524	4.08
649.557	-8.92
649.591	-17.92
649.624	10.08
649.657	1.08
649.691	21.08
649.724	15.08
649.757	13.08
649.791	6.08
649.824	22.08
649.857	13.08
649.89	4.08
649.924	-14.92
649.957	-1.92
649.99	-11.92
650.023	-2.92
650.057	-11.92
650.09	16.08
650.123	3.08
650.157	8.08
650.19	27.08
650.223	10.08
650.256	-15.92
650.29	0.08
650.323	-1.92
650.356	14.08
650.389	-1.92
650.423	-12.92
650.456	17.08
650.489	12.08
650.522	11.08
650.555	-0.92
650.589	-3.92
650.622	-2.92
650.655	-6.92
650.688	9.08
650.721	6.08
650.755	15.08
650.788	22.08
650.821	5.08
650.854	3.08
650.887	13.08
650.921	3.08
650.954	10.08
650.987	-3.92
651.02	0.08
651.053	-1.92
651.087	-1.92
651.12	24.08
651.153	-2.92
651.186	10.08
651.219	-10.92
651.252	13.08
651.286	13.08
651.319	-10.92
651.352	4.08
651.385	8.08
651.418	16.08
651.451	1.08
651.484	4.08
651.518	-7.92
651.551	9.08
651.584	-3.92
651.617	27.08
651.65	14.08
651.683	9.08
651.716	1.08
651.749	-24.92
651.783	-6.92
651.816	14.08
651.849	17.08
651.882	7.08
651.915	-1.92
651.948	19.08
651.981	6.08
652.014	-12.92
652.047	-0.92
652.08	-7.92
652.114	-1.92
652.147	0.08
652.18	10.08
652.213	38.08
652.246	16.08
652.279	7.08
652.312	13.08
652.345	-0.92
652.378	3.08
652.411	12.08
652.444	12.08
652.477	8.08
652.51	-8.92
652.543	-8.92
652.576	-1.92
652.609	-0.92
652.642	7.08
652.675	16.08
652.709	3.08
652.742	14.08
652.775	4.08
652.808	12.08
652.841	1.08
652.874	-1.92
652.907	7.08
652.94	7.08
652.973	-2.92
653.006	-4.92
653.039	10.08
653.072	-5.92
653.105	-4.92
653.138	5.08
653.171	1.08
653.204	4.08
653.237	7.08
653.27	-8.92
653.303	13.08
653.336	12.08
653.368	8.08
653.401	1.08
653.434	6.08
653.467	19.08
653.5	-3.92
653.533	-9.92
653.566	6.08
653.599	9.08
653.632	16.08
653.665	26.08
653.698	1.08
653.731	-3.92
653.764	11.08
653.797	12.08
653.83	14.08
653.863	4.08
653.896	-7.92
653.929	-0.92
653.961	16.08
653.994	10.08
654.027	-3.92
654.06	-0.92
654.093	-3.92
654.126	5.08
654.159	-12.92
654.192	-2.92
654.225	3.08
654.258	4.08
654.29	13.08
654.323	20.08
654.356	17.08
654.389	11.08
654.422	8.08
654.455	11.08
654.488	1.08
654.521	-16.92
654.553	-4.92
654.586	20.08
654.619	17.08
654.652	4.08
654.685	15.08
654.718	21.08
654.751	20.08
654.783	12.08
654.816	29.08
654.849	9.08
654.882	4.08
654.915	-1.92
654.948	12.08
654.98	16.08
655.013	0.08
655.046	-12.92
655.079	-15.92
655.112	3.08
655.144	-14.92
655.177	-1.92
655.21	17.08
655.243	25.08
655.276	13.08
655.308	-3.92
655.341	-17.92
655.374	22.08
655.407	6.08
655.44	2.08
655.472	4.08
655.505	11.08
655.538	-6.92
655.571	15.08
655.603	1.08
655.636	8.08
655.669	12.08
655.702	5.08
655.734	-16.92
655.767	17.08
655.8	15.08
655.833	7.08
655.865	10.08
655.898	13.08
655.931	29.08
655.964	7.08
655.996	17.08
656.029	46.08
656.062	29.08
656.095	44.08
656.127	85.08
656.16	209.08
656.193	618.08
656.225	940.08
656.258	570.08
656.291	223.08
656.324	180.08
656.356	368.08
656.389	771.08
656.422	686.08
656.454	248.08
656.487	69.08
656.52	26.08
656.552	14.08
656.585	11.08
656.618	26.08
656.65	20.08
656.683	15.08
656.716	11.08
656.748	8.08
656.781	-0.92
656.814	7.08
656.846	6.08
656.879	12.08
656.912	11.08
656.944	-16.92
656.977	6.08
657.01	6.08
657.042	5.08
657.075	14.08
657.108	8.08
657.14	7.08
657.173	13.08
657.205	21.08
657.238	-3.92
657.271	1.08
657.303	3.08
657.336	7.08
657.369	7.08
657.401	12.08
657.434	5.08
657.466	18.08
657.499	-6.92
657.532	6.08
657.564	4.08
657.597	7.08
657.629	10.08
657.662	7.08
657.694	2.08
657.727	-9.92
657.76	4.08
657.792	-2.92
657.825	4.08
657.857	0.08
657.89	3.08
657.922	16.08
657.955	-1.92
657.987	-0.92
658.02	2.08
658.053	14.08
658.085	5.08
658.118	5.08
658.15	8.08
658.183	18.08
658.215	-9.92
658.248	-15.92
658.28	-1.92
658.313	10.08
658.345	5.08
658.378	2.08
658.41	5.08
658.443	10.08
658.475	-3.92
658.508	-17.92
658.54	2.08
658.573	-3.92
658.605	23.08
658.638	7.08
658.67	9.08
658.703	-6.92
658.735	-14.92
658.768	7.08
658.8	-10.92
658.833	19.08
658.865	19.08
658.898	21.08
658.93	-13.92
658.963	-9.92
658.995	-18.92
659.028	2.08
659.06	8.08
659.092	8.08
659.125	5.08
659.157	11.08
659.19	6.08
659.222	4.08
659.255	13.08
659.287	-4.92
659.32	-5.92
659.352	13.08
659.384	-4.92
659.417	8.08
659.449	4.08
659.482	11.08
659.514	2.08
659.546	-4.92
659.579	1.08
659.611	-5.92
659.644	-7.92
659.676	-2.92
659.708	-5.92
659.741	-1.92
659.773	9.08
659.806	8.08
659.838	20.08
659.87	-0.92
659.903	-9.92
659.935	6.08
659.967	13.08
660	1.08
660.032	-5.92
660.065	8.08
660.097	12.08
660.129	2.08
660.162	-29.92
660.194	19.08
660.226	17.08
660.259	20.08
660.291	14.08
660.323	11.08
660.356	-2.92
660.388	-9.92
660.42	-8.92
660.453	12.08
660.485	6.08
660.517	12.08
660.55	3.08
660.582	-17.92
660.614	-4.92
660.647	4.08
660.679	-5.92
660.711	6.08
660.743	-15.92
660.776	-21.92
660.808	-4.92
660.84	-10.92
660.873	6.08
660.905	5.08
660.937	-6.92
660.969	-1.92
661.002	-2.92
661.034	19.08
661.066	7.08
661.099	9.08
661.131	-2.92
661.163	0.08
661.195	-21.92
661.228	10.08
661.26	9.08
661.292	-8.92
661.324	17.08
661.357	15.08
661.389	10.08
661.421	1.08
661.453	-2.92
661.485	11.08
661.518	-1.92
661.55	-31.92
661.582	-12.92
661.614	-7.92
661.647	10.08
661.679	-4.92
661.711	14.08
661.743	-3.92
661.775	7.08
661.808	13.08
661.84	-11.92
661.872	-2.92
661.904	-3.92
661.936	3.08
661.969	-15.92
662.001	-6.92
662.033	0.08
662.065	-7.92
662.097	18.08
662.129	-6.92
662.162	-23.92
662.194	-6.92
662.226	14.08
662.258	8.08
662.29	-2.92
662.322	-0.92
662.355	-14.92
662.387	-1.92
662.419	-0.92
662.451	10.08
662.483	23.08
662.515	-7.92
662.547	-6.92
662.58	-5.92
662.612	-5.92
662.644	-13.92
662.676	9.08
662.708	22.08
662.74	-2.92
662.772	8.08
662.804	17.08
662.836	3.08
662.869	-11.92
662.901	5.08
662.933	0.08
662.965	4.08
662.997	14.08
663.029	-3.92
663.061	-7.92
663.093	17.08
663.125	-0.92
663.157	-3.92
663.189	16.08
663.221	29.08
663.254	2.08
663.286	-3.92
663.318	-9.92
663.35	-13.92
663.382	5.08
663.414	-0.92
663.446	13.08
663.478	-3.92
663.51	29.08
663.542	4.08
663.574	15.08
663.606	-6.92
663.638	-7.92
663.67	-4.92
663.702	-2.92
663.734	9.08
663.766	-4.92
663.798	-14.92
663.83	9.08
663.862	15.08
663.894	14.08
663.926	8.08
663.958	7.08
663.99	1.08
664.022	-1.92
664.054	-6.92
664.086	-15.92
664.118	-0.92
664.15	-9.92
664.182	-11.92
664.214	7.08
664.246	18.08
664.278	17.08
664.31	19.08
664.342	3.08
664.374	-10.92
664.406	-9.92
664.438	-9.92
664.47	14.08
664.502	-5.92
664.534	-13.92
664.566	-4.92
664.598	1.08
664.63	9.08
664.662	13.08
664.693	1.08
664.725	-15.92
664.757	0.08
664.789	-10.92
664.821	9.08
664.853	14.08
664.885	10.08
664.917	7.08
664.949	11.08
664.981	14.08
665.013	-1.92
665.045	-0.92
665.076	1.08
665.108	5.08
665.14	-0.92
665.172	9.08
665.204	1.08
665.236	-8.92
665.268	-5.92
665.3	-20.92
665.331	-2.92
665.363	8.08
665.395	-1.92
665.427	-5.92
665.459	8.08
665.491	-15.92
665.523	10.08
665.555	9.08
665.586	9.08
665.618	0.08
665.65	-13.92
665.682	31.08
665.714	6.08
665.746	-6.92
665.777	10.08
665.809	15.08
665.841	-0.92
665.873	-0.92
665.905	-5.92
665.937	24.08
665.968	5.08
666	11.08
666.032	8.08
666.064	0.08
666.096	14.08
666.127	18.08
666.159	7.08
666.191	-1.92
666.223	10.08
666.255	17.08
666.286	9.08
666.318	6.08
666.35	13.08
666.382	27.08
666.413	1.08
666.445	-13.92
666.477	-15.92
666.509	-16.92
666.54	-2.92
666.572	-4.92
666.604	8.08
666.636	0.08
666.667	17.08
666.699	4.08
666.731	16.08
666.763	5.08
666.794	1.08
666.826	-3.92
666.858	4.08
666.89	12.08
666.921	21.08
666.953	7.08
666.985	-2.92
667.017	18.08
667.048	-4.92
667.08	6.08
667.112	4.08
667.143	7.08
667.175	4.08
667.207	-9.92
667.238	5.08
667.27	-11.92
667.302	10.08
667.334	-13.92
667.365	11.08
667.397	6.08
667.429	8.08
667.46	20.08
667.492	-1.92
667.524	-2.92
667.555	-16.92
667.587	-9.92
667.619	3.08
667.65	1.08
667.682	-5.92
667.714	7.08
667.745	-7.92
667.777	5.08
667.808	9.08
667.84	23.08
667.872	3.08
667.903	2.08
667.935	10.08
667.967	5.08
667.998	-3.92
668.03	0.08
668.061	8.08
668.093	17.08
668.125	1.08
668.156	10.08
668.188	8.08
668.22	1.08
668.251	3.08
668.283	4.08
668.314	18.08
668.346	-7.92
668.377	-5.92
668.409	-1.92
668.441	10.08
668.472	-2.92
668.504	10.08
668.535	26.08
668.567	13.08
668.599	8.08
668.63	-9.92
668.662	2.08
668.693	21.08
668.725	18.08
668.756	8.08
668.788	3.08
668.819	4.08
668.851	4.08
668.882	2.08
668.914	-0.92
668.946	-18.92
668.977	-4.92
669.009	11.08
669.04	-2.92
669.072	2.08
669.103	7.08
669.135	-1.92
669.166	4.08
669.198	12.08
669.229	16.08
669.261	9.08
669.292	-17.92
669.324	11.08
669.355	7.08
669.387	-15.92
669.418	21.08
669.45	-6.92
669.481	15.08
669.513	7.08
669.544	2.08
669.576	-6.92
669.607	15.08
669.639	22.08
669.67	1.08
669.701	-3.92
669.733	-12.92
669.764	10.08
669.796	8.08
669.827	-19.92
669.859	3.08
669.89	15.08
669.922	5.08
669.953	-0.92
669.985	7.08
670.016	13.08
670.047	5.08
670.079	-3.92
670.11	22.08
670.142	3.08
670.173	-6.92
670.204	0.08
670.236	7.08
670.267	-17.92
670.299	9.08
670.33	3.08
670.362	5.08
670.393	-2.92
670.424	2.08
670.456	-3.92
670.487	1.08
670.518	-3.92
670.55	9.08
670.581	-4.92
670.613	10.08
670.644	-9.92
670.675	-6.92
670.707	-5.92
670.738	3.08
670.769	8.08
670.801	-19.92
670.832	-4.92
670.864	-12.92
670.895	4.08
670.926	-1.92
670.958	1.08
670.989	-0.92
671.02	-16.92
671.052	7.08
671.083	13.08
671.114	-8.92
671.146	10.08
671.177	-9.92
671.208	-11.92
671.24	2.08
671.271	-3.92
671.302	-2.92
671.333	-9.92
671.365	-4.92
671.396	-3.92
671.427	-1.92
671.459	12.08
671.49	8.08
671.521	8.08
671.553	4.08
671.584	11.08
671.615	-17.92
671.646	2.08
671.678	11.08
671.709	-5.92
671.74	-11.92
671.771	-8.92
671.803	-1.92
671.834	-3.92
671.865	8.08
671.896	15.08
671.928	9.08
671.959	6.08
671.99	3.08
672.021	-6.92
672.053	-3.92
672.084	8.08
672.115	-5.92
672.146	0.08
672.178	3.08
672.209	-0.92
672.24	0.08
672.271	24.08
672.303	9.08
672.334	4.08
672.365	0.08
672.396	-11.92
672.427	-6.92
672.459	26.08
672.49	38.08
672.521	14.08
672.552	7.08
672.583	22.08
672.615	12.08
672.646	11.08
672.677	6.08
672.708	20.08
672.739	15.08
672.77	6.08
672.802	3.08
672.833	-4.92
672.864	15.08
672.895	0.08
672.926	-5.92
672.957	-16.92
672.989	19.08
673.02	14.08
673.051	11.08
673.082	8.08
673.113	-2.92
673.144	-2.92
673.175	18.08
673.206	-7.92
673.238	10.08
673.269	2.08
673.3	-12.92
673.331	14.08
673.362	-8.92
673.393	8.08
673.424	12.08
673.455	3.08
673.487	3.08
673.518	15.08
673.549	0.08
673.58	2.08
673.611	13.08
673.642	9.08
673.673	0.08
673.704	17.08
673.735	5.08
673.766	-1.92
673.797	7.08
673.828	1.08
673.86	-2.92
673.891	7.08
673.922	-3.92
673.953	12.08
673.984	13.08
674.015	-0.92
674.046	13.08
674.077	3.08
674.108	0.08
674.139	-16.92
674.17	-12.92
674.201	-8.92
674.232	-7.92
674.263	8.08
674.294	-7.92
674.325	-8.92
674.356	2.08
674.387	9.08
674.418	13.08
674.449	-15.92
674.48	2.08
674.511	14.08
674.542	1.08
674.573	-8.92
674.604	30.08
674.635	-0.92
674.666	22.08
674.697	13.08
674.728	-1.92
674.759	-7.92
674.79	-13.92
674.821	-0.92
674.852	18.08
674.883	-10.92
674.914	-6.92
674.945	4.08
674.976	1.08
675.007	-2.92
675.038	-0.92
675.069	-14.92
675.1	-1.92
675.131	-11.92
675.162	-9.92
675.193	0.08
675.224	-5.92
675.254	-2.92
675.285	13.08
675.316	19.08
675.347	7.08
675.378	-8.92
675.409	-6.92
675.44	9.08
675.471	7.08
675.502	-13.92
675.533	10.08
675.564	7.08
675.595	-2.92
675.625	26.08
675.656	17.08
675.687	14.08
675.718	-15.92
675.749	10.08
675.78	-0.92
675.811	8.08
675.842	9.08
675.873	6.08
675.903	-6.92
675.934	16.08
675.965	-1.92
675.996	-29.92
676.027	4.08
676.058	7.08
676.089	-7.92
676.119	-1.92
676.15	-2.92
676.181	-12.92
676.212	-1.92
676.243	18.08
676.274	-1.92
676.304	10.08
676.335	-5.92
676.366	-4.92
676.397	-0.92
676.428	19.08
676.459	7.08
676.489	6.08
676.52	8.08
676.551	-5.92
676.582	-4.92
676.613	15.08
676.643	-9.92
676.674	19.08
676.705	14.08
676.736	8.08
676.767	9.08
676.797	2.08
676.828	8.08
676.859	1.08
676.89	-3.92
676.92	14.08
676.951	12.08
676.982	-9.92
677.013	0.08
677.044	19.08
677.074	6.08
677.105	-11.92
677.136	12.08
677.167	6.08
677.197	3.08
677.228	-7.92
677.259	10.08
677.289	-14.92
677.32	-6.92
677.351	-3.92
677.382	-4.92
677.412	8.08
677.443	11.08
677.474	12.08
677.505	-12.92
677.535	1.08
677.566	3.08
677.597	-16.92
677.627	-6.92
677.658	-7.92
677.689	2.08
677.72	12.08
677.75	-8.92
677.781	3.08
677.812	-5.92
677.842	-1.92
677.873	-0.92
677.904	-1.92
677.934	7.08
677.965	-3.92
677.996	-6.92
678.026	1.08
678.057	3.08
678.088	-7.92
678.118	-3.92
678.149	-11.92
678.18	0.08
678.21	-1.92
678.241	-18.92
678.272	4.08
678.302	7.08
678.333	12.08
678.363	14.08
678.394	2.08
678.425	0.08
678.455	12.08
678.486	24.08
678.517	0.08
678.547	8.08
678.578	-6.92
678.608	-16.92
678.639	-4.92
678.67	11.08
678.7	-3.92
678.731	-7.92
678.761	-5.92
678.792	3.08
678.823	16.08
678.853	10.08
678.884	6.08
678.914	8.08
678.945	4.08
678.975	1.08
679.006	10.08
679.037	-12.92
679.067	32.08
679.098	0.08
679.128	-3.92
679.159	-9.92
679.189	3.08
679.22	-15.92
679.25	11.08
679.281	16.08
679.312	12.08
679.342	6.08
679.373	25.08
679.403	11.08
679.434	-1.92
679.464	-6.92
679.495	-4.92
679.525	-4.92
679.556	0.08
679.586	10.08
679.617	6.08
679.647	11.08
679.678	8.08
679.708	-4.92
679.739	1.08
679.769	-1.92
679.8	3.08
679.83	1.08
679.861	0.08
679.891	8.08
679.922	-7.92
679.952	-6.92
679.983	14.08
680.013	2.08
680.044	-13.92
680.074	6.08
680.105	4.08
680.135	8.08
680.165	4.08
680.196	-4.92
680.226	5.08
680.257	25.08
680.287	7.08
680.318	-0.92
680.348	-6.92
680.379	19.08
680.409	7.08
680.439	-1.92
680.47	0.08
680.5	0.08
680.531	-4.92
680.561	9.08
680.592	16.08
680.622	5.08
680.652	-5.92
680.683	9.08
680.713	-4.92
680.744	-13.92
680.774	-11.92
680.804	13.08
680.835	-6.92
680.865	7.08
680.896	26.08
680.926	19.08
680.956	14.08
680.987	1.08
681.017	-13.92
681.047	5.08
681.078	-17.92
681.108	2.08
681.139	6.08
681.169	6.08
681.199	-6.92
681.23	17.08
681.26	2.08
681.29	-13.92
681.321	-10.92
681.351	-6.92
681.381	-12.92
681.412	12.08
681.442	12.08
681.472	31.08
681.503	12.08
681.533	-14.92
681.563	1.08
681.594	4.08
681.624	15.08
681.654	6.08
681.685	-6.92
681.715	9.08
681.745	1.08
681.775	-11.92
681.806	-2.92
681.836	6.08
681.866	3.08
681.897	10.08
681.927	-6.92
681.957	-12.92
681.987	13.08
682.018	0.08
682.048	-0.92
682.078	-1.92
682.109	27.08
682.139	4.08
682.169	-3.92
682.199	5.08
682.23	6.08
682.26	-1.92
682.29	-1.92
682.32	11.08
682.351	-0.92
682.381	6.08
682.411	-16.92
682.441	-25.92
682.472	-4.92
682.502	7.08
682.532	3.08
682.562	9.08
682.592	20.08
682.623	15.08
682.653	-7.92
682.683	-9.92
682.713	20.08
682.743	10.08
682.774	8.08
682.804	14.08
682.834	9.08
682.864	-14.92
682.894	-13.92
682.925	3.08
682.955	4.08
682.985	-4.92
683.015	-15.92
683.045	13.08
683.076	-12.92
683.106	-1.92
683.136	-4.92
683.166	-6.92
683.196	6.08
683.226	-0.92
683.257	-12.92
683.287	4.08
683.317	13.08
683.347	-5.92
683.377	-0.92
683.407	0.08
683.437	14.08
683.468	12.08
683.498	-0.92
683.528	3.08
683.558	8.08
683.588	-5.92
683.618	-5.92
683.648	1.08
683.678	11.08
683.708	2.08
683.739	-0.92
683.769	-2.92
683.799	-11.92
683.829	5.08
683.859	17.08
683.889	20.08
683.919	11.08
683.949	7.08
683.979	3.08
684.009	0.08
684.039	-2.92
684.07	-16.92
684.1	1.08
684.13	3.08
684.16	-5.92
684.19	0.08
684.22	4.08
684.25	16.08
684.28	-9.92
684.31	20.08
684.34	19.08
684.37	8.08
684.4	-11.92
684.43	2.08
684.46	10.08
684.49	7.08
684.52	-0.92
684.55	15.08
684.58	20.08
684.61	11.08
684.64	11.08
684.67	8.08
684.7	6.08
684.73	13.08
684.76	6.08
684.79	10.08
684.82	3.08
684.85	-10.92
684.88	3.08
684.91	2.08
684.94	3.08
684.97	-20.92
685	-8.92
685.03	-0.92
685.06	10.08
685.09	8.08
685.12	23.08
685.15	0.08
685.18	-0.92
685.21	14.08
685.24	13.08
685.27	7.08
685.3	-4.92
685.33	6.08
685.36	-18.92
685.39	-0.92
685.42	-4.92
685.45	1.08
685.48	8.08
685.51	4.08
685.54	25.08
685.569	25.08
685.599	20.08
685.629	5.08
685.659	12.08
685.689	3.08
685.719	-0.92
685.749	-15.92
685.779	17.08
685.809	18.08
685.839	4.08
685.869	-8.92
685.898	4.08
685.928	-0.92
685.958	-8.92
685.988	8.08
686.018	5.08
686.048	-1.92
686.078	23.08
686.108	15.08
686.137	8.08
686.167	6.08
686.197	-11.92
686.227	8.08
686.257	36.08
686.287	20.08
686.317	14.08
686.346	7.08
686.376	-4.92
686.406	-6.92
686.436	6.08
686.466	-7.92
686.496	12.08
686.525	-2.92
686.555	8.08
686.585	23.08
686.615	22.08
686.645	5.08
686.675	3.08
686.704	13.08
686.734	11.08
686.764	-11.92
686.794	6.08
686.824	1.08
686.853	9.08
686.883	4.08
686.913	2.08
686.943	-3.92
686.973	-2.92
687.002	-12.92
687.032	4.08
687.062	-5.92
687.092	9.08
687.121	-5.92
687.151	6.08
687.181	4.08
687.211	15.08
687.24	9.08
687.27	-8.92
687.3	-7.92
687.33	-15.92
687.359	-13.92
687.389	6.08
687.419	6.08
687.449	-2.92
687.478	-1.92
687.508	-5.92
687.538	18.08
687.568	19.08
687.597	-16.92
687.627	-4.92
687.657	-1.92
687.686	7.08
687.716	23.08
687.746	-14.92
687.776	-3.92
687.805	1.08
687.835	7.08
687.865	27.08
687.894	12.08
687.924	10.08
687.954	11.08
687.983	1.08
688.013	2.08
688.043	17.08
688.072	17.08
688.102	16.08
688.132	0.08
688.161	10.08
688.191	15.08
688.221	27.08
688.25	-1.92
688.28	17.08
688.31	9.08
688.339	10.08
688.369	9.08
688.399	-3.92
688.428	13.08
688.458	8.08
688.488	-15.92
688.517	1.08
688.547	9.08
688.576	36.08
688.606	8.08
688.636	3.08
688.665	2.08
688.695	-0.92
688.725	2.08
688.754	5.08
688.784	4.08
688.813	1.08
688.843	12.08
688.873	5.08
688.902	7.08
688.932	-5.92
688.961	-11.92
688.991	4.08
689.02	6.08
689.05	-5.92
689.08	22.08
689.109	8.08
689.139	-11.92
689.168	-1.92
689.198	-0.92
689.227	8.08
689.257	7.08
689.287	0.08
689.316	8.08
689.346	0.08
689.375	-5.92
689.405	6.08
689.434	-0.92
689.464	15.08
689.493	2.08
689.523	-13.92
689.552	2.08
689.582	-7.92
689.611	-3.92
689.641	10.08
689.67	4.08
689.7	9.08
689.73	23.08
689.759	21.08
689.789	27.08
689.818	17.08
689.848	5.08
689.877	16.08
689.906	1.08
689.936	9.08
689.965	-2.92
689.995	21.08
690.024	8.08
690.054	3.08
690.083	7.08
690.113	-3.92
690.142	10.08
690.172	11.08
690.201	1.08
690.231	6.08
690.26	7.08
690.29	14.08
690.319	11.08
690.348	15.08
690.378	19.08
690.407	5.08
690.437	0.08
690.466	7.08
690.496	0.08
690.525	8.08
690.555	5.08
690.584	18.08
690.613	-4.92
690.643	8.08
690.672	6.08
690.702	9.08
690.731	-8.92
690.76	2.08
690.79	4.08
690.819	4.08
690.849	16.08
690.878	-6.92
690.907	-4.92
690.937	4.08
690.966	21.08
690.996	13.08
691.025	0.08
691.054	-0.92
691.084	2.08
691.113	-3.92
691.142	11.08
691.172	11.08
691.201	16.08
691.23	1.08
691.26	1.08
691.289	8.08
691.319	-3.92
691.348	5.08
691.377	14.08
691.407	13.08
691.436	12.08
691.465	3.08
691.495	15.08
691.524	-3.92
691.553	-9.92
691.583	2.08
691.612	17.08
691.641	-6.92
691.67	8.08
691.7	14.08
691.729	-4.92
691.758	-3.92
691.788	-3.92
691.817	-3.92
691.846	5.08
691.876	-2.92
691.905	3.08
691.934	-0.92
691.963	19.08
691.993	7.08
692.022	-9.92
692.051	-11.92
692.081	14.08
692.11	23.08
692.139	15.08
692.168	14.08
692.198	13.08
692.227	14.08
692.256	-1.92
692.285	6.08
692.315	4.08
692.344	15.08
692.373	12.08
692.402	1.08
692.432	-2.92
692.461	9.08
692.49	5.08
692.519	7.08
692.548	7.08
692.578	20.08
692.607	4.08
692.636	4.08
692.665	10.08
692.694	10.08
692.724	11.08
692.753	14.08
692.782	30.08
692.811	-1.92
692.84	7.08
692.87	6.08
692.899	-4.92
692.928	16.08
692.957	14.08
692.986	23.08
693.016	4.08
693.045	8.08
693.074	-4.92
693.103	-3.92
693.132	13.08
693.161	6.08
693.191	-5.92
693.22	-4.92
693.249	8.08
693.278	21.08
693.307	17.08
693.336	-6.92
693.365	-20.92
693.395	4.08
693.424	-4.92
693.453	16.08
693.482	6.08
693.511	11.08
693.54	7.08
693.569	6.08
693.598	4.08
693.628	16.08
693.657	20.08
693.686	19.08
693.715	21.08
693.744	9.08
693.773	20.08
693.802	16.08
693.831	4.08
693.86	25.08
693.889	-2.92
693.919	13.08
693.948	12.08
693.977	14.08
694.006	-0.92
694.035	12.08
694.064	-7.92
694.093	7.08
694.122	14.08
694.151	3.08
694.18	12.08
694.209	17.08
694.238	-11.92
694.267	11.08
694.296	13.08
694.325	22.08
694.354	22.08
694.383	9.08
694.412	4.08
694.441	12.08
694.471	-2.92
694.5	-20.92
694.529	0.08
694.558	11.08
694.587	28.08
694.616	11.08
694.645	7.08
694.674	7.08
694.703	19.08
694.732	1.08
694.761	2.08
694.79	14.08
694.819	-6.92
694.848	13.08
694.877	21.08
694.906	34.08
694.935	10.08
694.963	30.08
694.992	12.08
695.021	13.08
695.05	18.08
695.079	4.08
695.108	10.08
695.137	23.08
695.166	7.08
695.195	-3.92
695.224	11.08
695.253	-3.92
695.282	11.08
695.311	13.08
695.34	-3.92
695.369	3.08
695.398	24.08
695.427	29.08
695.456	9.08
695.485	8.08
695.513	20.08
695.542	8.08
695.571	-15.92
695.6	14.08
695.629	6.08
695.658	11.08
695.687	8.08
695.716	10.08
695.745	23.08
695.774	-7.92
695.802	0.08
695.831	16.08
695.86	13.08
695.889	9.08
695.918	18.08
695.947	-8.92
695.976	-0.92
696.005	15.08
696.033	20.08
696.062	31.08
696.091	5.08
696.12	8.08
696.149	26.08
696.178	22.08
696.207	28.08
696.235	2.08
696.264	7.08
696.293	-7.92
696.322	2.08
696.351	21.08
696.38	-4.92
696.408	15.08
696.437	9.08
696.466	18.08
696.495	23.08
696.524	13.08
696.553	0.08
696.581	4.08
696.61	2.08
696.639	7.08
696.668	10.08
696.697	2.08
696.725	16.08
696.754	-3.92
696.783	0.08
696.812	5.08
696.84	15.08
696.869	16.08
696.898	-1.92
696.927	19.08
696.956	39.08
696.984	2.08
697.013	-2.92
697.042	-10.92
697.071	4.08
697.099	14.08
697.128	24.08
697.157	17.08
697.186	0.08
697.214	7.08
697.243	3.08
697.272	3.08
697.301	6.08
697.329	4.08
697.358	11.08
697.387	20.08
697.415	10.08
697.444	2.08
697.473	14.08
697.502	3.08
697.53	5.08
697.559	3.08
697.588	-15.92
697.616	7.08
697.645	1.08
697.674	9.08
697.703	8.08
697.731	14.08
697.76	19.08
697.789	11.08
697.817	14.08
697.846	16.08
697.875	7.08
697.903	19.08
697.932	23.08
697.961	6.08
697.989	9.08
698.018	-1.92
698.047	1.08
698.075	23.08
698.104	9.08
698.133	3.08
698.161	1.08
698.19	15.08
698.218	4.08
698.247	10.08
698.276	7.08
698.304	28.08
698.333	15.08
698.362	17.08
698.39	7.08
698.419	4.08
698.447	-1.92
698.476	0.08
698.505	19.08
698.533	11.08
698.562	0.08
698.591	-11.92
698.619	-13.92
698.648	8.08
698.676	12.08
698.705	-5.92
698.733	0.08
698.762	16.08
698.791	6.08
698.819	-9.92
698.848	16.08
698.876	10.08
698.905	0.08
698.933	-1.92
698.962	4.08
698.991	-1.92
699.019	20.08
699.048	5.08
699.076	4.08
699.105	-0.92
699.133	-9.92
699.162	6.08
699.19	19.08
699.219	14.08
699.248	7.08
699.276	8.08
699.305	3.08
699.333	16.08
699.362	0.08
699.39	4.08
699.419	-14.92
699.447	8.08
699.476	10.08
699.504	3.08
699.533	11.08
699.561	11.08
699.59	7.08
699.618	-0.92
699.647	10.08
699.675	-0.92
699.704	13.08
699.732	10.08
699.761	10.08
699.789	7.08
699.818	5.08
699.846	12.08
699.874	5.08
699.903	11.08
699.931	10.08
699.96	13.08
699.988	9.08
700.017	23.08
700.045	-2.92
700.074	-10.92
700.102	-12.92
700.13	-10.92
700.159	10.08
700.187	3.08
700.216	-0.92
700.244	-12.92
700.273	-3.92
700.301	10.08
700.329	11.08
700.358	3.08
700.386	-3.92
700.415	-2.92
700.443	9.08
700.472	10.08
700.5	6.08
700.528	14.08
700.557	10.08
700.585	13.08
700.614	10.08
700.642	16.08
700.67	11.08
700.699	11.08
700.727	-7.92
700.755	10.08
700.784	9.08
700.812	-5.92
700.841	17.08
700.869	18.08
700.897	18.08
700.926	-9.92
700.954	-5.92
700.982	6.08
701.011	11.08
701.039	6.08
701.067	-0.92
701.096	19.08
701.124	-1.92
701.152	18.08
701.181	11.08
701.209	-3.92
701.237	-2.92
701.266	-5.92
701.294	-15.92
701.322	-0.92
701.351	3.08
701.379	-0.92
701.407	-4.92
701.435	12.08
701.464	10.08
701.492	27.08
701.52	3.08
701.549	14.08
701.577	6.08
701.605	2.08
701.634	-0.92
701.662	12.08
701.69	0.08
701.718	-15.92
701.747	-2.92
701.775	-0.92
701.803	7.08
701.831	21.08
701.86	4.08
701.888	21.08
701.916	-4.92
701.944	1.08
701.973	-7.92
702.001	-4.92
702.029	2.08
702.057	-11.92
702.086	0.08
702.114	2.08
702.142	6.08
702.17	-11.92
702.199	16.08
702.227	19.08
702.255	10.08
702.283	3.08
702.311	-13.92
702.34	0.08
702.368	0.08
702.396	1.08
702.424	17.08
702.452	10.08
702.481	-1.92
702.509	-6.92
702.537	12.08
702.565	2.08
702.593	-2.92
702.621	-3.92
702.65	23.08
702.678	8.08
702.706	22.08
702.734	1.08
702.762	12.08
702.79	4.08
702.819	18.08
702.847	-0.92
702.875	15.08
702.903	13.08
702.931	9.08
702.959	19.08
702.988	12.08
703.016	5.08
703.044	14.08
703.072	4.08
703.1	-7.92
703.128	-13.92
703.156	4.08
703.184	19.08
703.212	6.08
703.241	15.08
703.269	4.08
703.297	17.08
703.325	11.08
703.353	-12.92
703.381	-3.92
703.409	2.08
703.437	-3.92
703.465	-1.92
703.493	2.08
703.522	7.08
703.55	7.08
703.578	-11.92
703.606	-5.92
703.634	-1.92
703.662	-0.92
703.69	7.08
703.718	7.08
703.746	38.08
703.774	7.08
703.802	25.08
703.83	8.08
703.858	10.08
703.886	6.08
703.914	2.08
703.942	19.08
703.97	4.08
703.998	-5.92
704.027	22.08
704.055	15.08
704.083	14.08
704.111	6.08
704.139	-5.92
704.167	5.08
704.195	-2.92
704.223	13.08
704.251	-12.92
704.279	8.08
704.307	-3.92
704.335	-10.92
704.363	18.08
704.391	3.08
704.419	2.08
704.447	14.08
704.475	16.08
704.503	0.08
704.531	25.08
704.558	11.08
704.586	10.08
704.614	-4.92
704.642	14.08
704.67	2.08
704.698	-2.92
704.726	9.08
704.754	3.08
704.782	0.08
704.81	11.08
704.838	20.08
704.866	18.08
704.894	10.08
704.922	1.08
704.95	4.08
704.978	2.08
705.006	9.08
705.034	7.08
705.061	-7.92
705.089	3.08
705.117	-4.92
705.145	7.08
705.173	0.08
705.201	7.08
705.229	-0.92
705.257	10.08
705.285	-4.92
705.313	4.08
705.34	-1.92
705.368	-0.92
705.396	4.08
705.424	6.08
705.452	1.08
705.48	1.08
705.508	14.08
705.536	6.08
705.563	1.08
705.591	8.08
705.619	-1.92
705.647	-15.92
705.675	0.08
705.703	12.08
705.731	5.08
705.758	-4.92
705.786	9.08
705.814	13.08
705.842	4.08
705.87	1.08
705.898	24.08
705.925	3.08
705.953	8.08
705.981	-5.92
706.009	6.08
706.037	7.08
706.065	2.08
706.092	-6.92
706.12	7.08
706.148	-11.92
706.176	-4.92
706.204	8.08
706.231	1.08
706.259	-7.92
706.287	-5.92
706.315	7.08
706.342	-6.92
706.37	12.08
706.398	2.08
706.426	1.08
706.454	4.08
706.481	9.08
706.509	15.08
706.537	0.08
706.565	0.08
706.592	8.08
706.62	14.08
706.648	3.08
706.676	2.08
706.703	9.08
706.731	2.08
706.759	-16.92
706.787	-1.92
706.814	0.08
706.842	9.08
706.87	8.08
706.897	6.08
706.925	3.08
706.953	14.08
706.981	16.08
707.008	11.08
707.036	13.08
707.064	5.08
707.091	-2.92
707.119	18.08
707.147	13.08
707.174	-11.92
707.202	6.08
707.23	-12.92
707.258	4.08
707.285	-1.92
707.313	-4.92
707.341	-11.92
707.368	-4.92
707.396	15.08
707.424	8.08
707.451	9.08
707.479	4.08
707.507	-3.92
707.534	1.08
707.562	13.08
707.59	3.08
707.617	-8.92
707.645	3.08
707.672	14.08
707.7	12.08
707.728	21.08
707.755	16.08
707.783	16.08
707.811	19.08
707.838	4.08
707.866	-3.92
707.893	14.08
707.921	9.08
707.949	10.08
707.976	6.08
708.004	-3.92
708.031	-7.92
708.059	-5.92
708.087	6.08
708.114	-5.92
708.142	4.08
708.169	-10.92
708.197	-1.92
708.225	-3.92
708.252	-1.92
708.28	7.08
708.307	-5.92
708.335	4.08
708.362	7.08
708.39	2.08
708.418	-6.92
708.445	6.08
708.473	-0.92
708.5	-15.92
708.528	7.08
708.555	-1.92
708.583	-0.92
708.61	6.08
708.638	7.08
708.665	-9.92
708.693	5.08
708.72	-8.92
708.748	-4.92
708.776	7.08
708.803	12.08
708.831	0.08
708.858	7.08
708.886	4.08
708.913	7.08
708.941	4.08
708.968	14.08
708.996	6.08
709.023	29.08
709.051	1.08
709.078	-2.92
709.105	16.08
709.133	3.08
709.16	18.08
709.188	6.08
709.215	15.08
709.243	-0.92
709.27	-8.92
709.298	-0.92
709.325	-2.92
709.353	8.08
709.38	2.08
709.408	2.08
709.435	9.08
709.462	11.08
709.49	17.08
709.517	1.08
709.545	11.08
709.572	-1.92
709.6	15.08
709.627	21.08
709.655	-2.92
709.682	-16.92
709.709	0.08
709.737	-0.92
709.764	7.08
709.792	6.08
709.819	1.08
709.846	2.08
709.874	20.08
709.901	8.08
709.929	5.08
709.956	2.08
709.983	-7.92
710.011	-2.92
710.038	1.08
710.066	14.08
710.093	9.08
710.12	-0.92
710.148	-9.92
710.175	-7.92
710.202	-3.92
710.23	-2.92
710.257	10.08
710.284	11.08
710.312	9.08
710.339	3.08
710.366	-6.92
710.394	-3.92
710.421	6.08
710.448	-4.92
710.476	-1.92
710.503	-0.92
710.53	24.08
710.558	12.08
710.585	15.08
710.612	0.08
710.64	7.08
710.667	1.08
710.694	5.08
710.722	18.08
710.749	-3.92
710.776	7.08
710.804	15.08
710.831	9.08
710.858	12.08
710.885	-5.92
710.913	1.08
710.94	30.08
710.967	11.08
710.995	6.08
711.022	10.08
711.049	-0.92
711.076	-16.92
711.104	7.08
711.131	-13.92
711.158	18.08
711.185	24.08
711.213	-13.92
711.24	-20.92
711.267	0.08
711.294	-0.92
711.322	12.08
711.349	11.08
711.376	-5.92
711.403	8.08
711.431	8.08
711.458	7.08
711.485	-1.92
711.512	19.08
711.54	4.08
711.567	0.08
711.594	7.08
711.621	-4.92
711.648	10.08
711.676	-5.92
711.703	-4.92
711.73	-2.92
711.757	6.08
711.784	13.08
711.812	2.08
711.839	4.08
711.866	10.08
711.893	-0.92
711.92	-1.92
711.947	7.08
711.975	17.08
712.002	18.08
712.029	12.08
712.056	7.08
712.083	20.08
712.11	-12.92
712.138	4.08
712.165	-4.92
712.192	4.08
712.219	-2.92
712.246	-4.92
712.273	5.08
712.3	-11.92
712.328	20.08
712.355	5.08
712.382	-1.92
712.409	9.08
712.436	2.08
712.463	3.08
712.49	10.08
712.517	6.08
712.544	-4.92
712.572	18.08
712.599	-4.92
712.626	1.08
712.653	-11.92
712.68	-18.92
712.707	18.08
712.734	10.08
712.761	13.08
712.788	9.08
712.815	16.08
712.842	8.08
712.87	8.08
712.897	1.08
712.924	-0.92
712.951	16.08
712.978	14.08
713.005	5.08
713.032	13.08
713.059	-0.92
713.086	-12.92
713.113	-0.92
713.14	-16.92
713.167	5.08
713.194	11.08
713.221	-0.92
713.248	6.08
713.275	12.08
713.302	-5.92
713.329	13.08
713.356	3.08
713.383	-7.92
713.41	13.08
713.437	-5.92
713.464	8.08
713.491	16.08
713.518	13.08
713.545	2.08
713.572	-0.92
713.599	26.08
713.626	-4.92
713.653	7.08
713.68	7.08
713.707	17.08
713.734	6.08
713.761	-4.92
713.788	2.08
713.815	14.08
713.842	15.08
713.869	13.08
713.896	9.08
713.923	18.08
713.95	2.08
713.977	-4.92
714.004	2.08
714.031	-18.92
714.058	-18.92
714.085	-5.92
714.112	12.08
714.139	-1.92
714.165	-5.92
714.192	-18.92
714.219	-5.92
714.246	22.08
714.273	7.08
714.3	7.08
714.327	8.08
714.354	-0.92
714.381	-7.92
714.408	-12.92
714.435	3.08
714.461	4.08
714.488	11.08
714.515	6.08
714.542	-14.92
714.569	-13.92
714.596	6.08
714.623	4.08
714.65	-9.92
714.677	7.08
714.703	16.08
714.73	13.08
714.757	-7.92
714.784	8.08
714.811	4.08
714.838	-0.92
714.865	-5.92
714.891	7.08
714.918	0.08
714.945	-4.92
714.972	6.08
714.999	12.08
715.026	-3.92
715.052	1.08
715.079	-10.92
715.106	22.08
715.133	16.08
715.16	-4.92
715.187	10.08
715.213	2.08
715.24	-6.92
715.267	-10.92
715.294	4.08
715.321	0.08
715.347	11.08
715.374	-24.92
715.401	-14.92
715.428	4.08
715.455	18.08
715.481	-1.92
715.508	9.08
715.535	18.08
715.562	19.08
715.588	18.08
715.615	11.08
715.642	8.08
715.669	16.08
715.695	-1.92
715.722	3.08
715.749	1.08
715.776	20.08
715.802	2.08
715.829	8.08
715.856	-11.92
715.883	23.08
715.909	-6.92
715.936	14.08
715.963	16.08
715.99	8.08
716.016	12.08
716.043	-2.92
716.07	4.08
716.096	-14.92
716.123	-4.92
716.15	11.08
716.177	15.08
716.203	21.08
716.23	10.08
716.257	7.08
716.283	13.08
716.31	7.08
716.337	-8.92
716.363	6.08
716.39	7.08
716.417	16.08
716.443	6.08
716.47	19.08
716.497	25.08
716.523	11.08
716.55	10.08
716.577	17.08
716.603	2.08
716.63	4.08
716.657	31.08
716.683	6.08
716.71	1.08
716.737	6.08
716.763	-2.92
716.79	9.08
716.817	14.08
716.843	9.08
716.87	2.08
716.897	4.08
716.923	8.08
716.95	12.08
716.976	7.08
717.003	11.08
717.03	19.08
717.056	12.08
717.083	2.08
717.109	11.08
717.136	-1.92
717.163	7.08
717.189	9.08
717.216	14.08
717.242	11.08
717.269	8.08
717.296	17.08
717.322	14.08
717.349	9.08
717.375	4.08
717.402	3.08
717.428	-9.92
717.455	6.08
717.481	6.08
717.508	2.08
717.535	-0.92
717.561	-6.92
717.588	-9.92
717.614	7.08
717.641	1.08
717.667	0.08
717.694	4.08
717.72	6.08
717.747	2.08
717.773	-3.92
717.8	10.08
717.826	11.08
717.853	20.08
717.88	14.08
717.906	16.08
717.933	11.08
717.959	3.08
717.986	19.08
718.012	3.08
718.039	21.08
718.065	13.08
718.092	9.08
718.118	-1.92
718.144	3.08
718.171	22.08
718.197	16.08
718.224	4.08
718.25	8.08
718.277	10.08
718.303	15.08
718.33	17.08
718.356	6.08
718.383	-1.92
718.409	3.08
718.436	3.08
718.462	5.08
718.489	4.08
718.515	32.08
718.541	18.08
718.568	12.08
718.594	9.08
718.621	11.08
718.647	10.08
718.674	28.08
718.7	16.08
718.726	4.08
718.753	1.08
718.779	11.08
718.806	-0.92
718.832	2.08
718.858	6.08
718.885	6.08
718.911	-5.92
718.938	10.08
718.964	6.08
718.99	12.08
719.017	10.08
719.043	2.08
719.07	18.08
719.096	3.08
719.122	12.08
719.149	6.08
719.175	8.08
719.201	0.08
719.228	13.08
719.254	16.08
719.281	10.08
719.307	5.08
719.333	1.08
719.36	22.08
719.386	4.08
719.412	7.08
719.439	-6.92
719.465	6.08
719.491	-2.92
719.518	10.08
719.544	33.08
719.57	0.08
719.597	10.08
719.623	10.08
719.649	6.08
719.675	1.08
719.702	0.08
719.728	7.08
719.754	14.08
719.781	-14.92
719.807	1.08
719.833	10.08
719.86	7.08
719.886	-2.92
719.912	12.08
719.938	-7.92
719.965	8.08
719.991	19.08
720.017	10.08
720.044	3.08
720.07	16.08
720.096	18.08
720.122	3.08
720.149	5.08
720.175	23.08
720.201	4.08
720.227	-1.92
720.254	5.08
720.28	-10.92
720.306	-5.92
720.332	10.08
720.359	2.08
720.385	13.08
720.411	10.08
720.437	17.08
720.463	-0.92
720.49	15.08
720.516	-1.92
720.542	1.08
720.568	2.08
720.595	18.08
720.621	4.08
720.647	7.08
720.673	13.08
720.699	0.08
720.725	13.08
720.752	23.08
720.778	14.08
720.804	20.08
720.83	11.08
720.856	-3.92
720.883	-9.92
720.909	6.08
720.935	6.08
720.961	0.08
720.987	1.08
721.013	7.08
721.04	4.08
721.066	-5.92
721.092	1.08
721.118	11.08
721.144	-5.92
721.17	-1.92
721.196	7.08
721.223	6.08
721.249	-4.92
721.275	21.08
721.301	8.08
721.327	4.08
721.353	17.08
721.379	4.08
721.405	13.08
721.432	12.08
721.458	12.08
721.484	4.08
721.51	-14.92
721.536	-4.92
721.562	20.08
721.588	12.08
721.614	2.08
721.64	-1.92
721.666	-3.92
721.693	-4.92
721.719	0.08
721.745	-11.92
721.771	-2.92
721.797	15.08
721.823	12.08
721.849	19.08
721.875	17.08
721.901	4.08
721.927	3.08
721.953	4.08
721.979	7.08
722.005	6.08
722.031	-16.92
722.057	8.08
722.083	20.08
722.109	11.08
722.135	1.08
722.161	-1.92
722.187	4.08
722.214	-9.92
722.24	1.08
722.266	-1.92
722.292	4.08
722.318	10.08
722.344	0.08
722.37	13.08
722.396	11.08
722.422	14.08
722.448	3.08
722.474	0.08
722.5	9.08
722.526	9.08
722.552	11.08
722.578	4.08
722.603	11.08
722.629	1.08
722.655	1.08
722.681	2.08
722.707	7.08
722.733	5.08
722.759	-6.92
722.785	2.08
722.811	1.08
722.837	14.08
722.863	13.08
722.889	24.08
722.915	5.08
722.941	4.08
722.967	-5.92
722.993	6.08
723.019	-4.92
723.045	6.08
723.071	12.08
723.097	19.08
723.122	0.08
723.148	-0.92
723.174	13.08
723.2	15.08
723.226	3.08
723.252	10.08
723.278	-0.92
723.304	8.08
723.33	2.08
723.356	-0.92
723.381	-15.92
723.407	-8.92
723.433	18.08
723.459	0.08
723.485	-1.92
723.511	19.08
723.537	8.08
723.563	11.08
723.588	2.08
723.614	12.08
723.64	-1.92
723.666	-5.92
723.692	8.08
723.718	4.08
723.744	0.08
723.769	4.08
723.795	-0.92
723.821	3.08
723.847	-0.92
723.873	2.08
723.899	3.08
723.924	-6.92
723.95	3.08
723.976	10.08
724.002	-4.92
724.028	6.08
724.053	4.08
724.079	-1.92
724.105	20.08
724.131	5.08
724.157	19.08
724.182	19.08
724.208	-9.92
724.234	14.08
724.26	23.08
724.286	7.08
724.311	-2.92
724.337	-0.92
724.363	-16.92
724.389	6.08
724.415	0.08
724.44	22.08
724.466	-0.92
724.492	0.08
724.518	17.08
724.543	-1.92
724.569	16.08
724.595	3.08
724.621	7.08
724.646	3.08
724.672	3.08
724.698	6.08
724.723	-6.92
724.749	3.08
724.775	17.08
724.801	12.08
724.826	-12.92
724.852	-5.92
724.878	-1.92
724.904	-14.92
724.929	-2.92
724.955	-2.92
724.981	0.08
725.006	8.08
725.032	0.08
725.058	3.08
725.083	4.08
725.109	6.08
725.135	22.08
725.161	9.08
725.186	0.08
725.212	1.08
725.238	2.08
725.263	4.08
725.289	-11.92
725.315	-1.92
725.34	9.08
725.366	13.08
725.392	16.08
725.417	7.08
725.443	5.08
725.468	24.08
725.494	12.08
725.52	5.08
725.545	18.08
725.571	-4.92
725.597	1.08
725.622	-1.92
725.648	-4.92
725.674	29.08
725.699	7.08
725.725	3.08
725.75	20.08
725.776	9.08
725.802	14.08
725.827	12.08
725.853	-0.92
725.878	7.08
725.904	-1.92
725.93	15.08
725.955	-3.92
725.981	-8.92
726.006	-3.92
726.032	11.08
726.057	4.08
726.083	9.08
726.109	2.08
726.134	6.08
726.16	5.08
726.185	-1.92
726.211	-2.92
726.236	16.08
726.262	13.08
726.288	6.08
726.313	27.08
726.339	6.08
726.364	2.08
726.39	-1.92
726.415	10.08
726.441	-13.92
726.466	6.08
726.492	3.08
726.517	13.08
726.543	-4.92
726.568	-7.92
726.594	16.08
726.619	2.08
726.645	4.08
726.67	19.08
726.696	4.08
726.721	-1.92
726.747	-6.92
726.772	12.08
726.798	-9.92
726.823	7.08
726.849	4.08
726.874	4.08
726.9	40.08
726.925	14.08
726.951	-0.92
726.976	4.08
727.002	-5.92
727.027	3.08
727.053	-0.92
727.078	-4.92
727.104	15.08
727.129	-6.92
727.155	11.08
727.18	14.08
727.205	7.08
727.231	14.08
727.256	17.08
727.282	7.08
727.307	8.08
727.333	15.08
727.358	3.08
727.383	-2.92
727.409	-12.92
727.434	6.08
727.46	2.08
727.485	2.08
727.511	8.08
727.536	-1.92
727.561	0.08
727.587	-14.92
727.612	3.08
727.637	-5.92
727.663	1.08
727.688	18.08
727.714	2.08
727.739	7.08
727.764	-0.92
727.79	16.08
727.815	17.08
727.841	14.08
727.866	3.08
727.891	11.08
727.917	-11.92
727.942	-0.92
727.967	-6.92
727.993	-13.92
728.018	0.08
728.043	5.08
728.069	14.08
728.094	6.08
728.119	7.08
728.145	16.08
728.17	-1.92
728.195	7.08
728.221	19.08
728.246	3.08
728.271	1.08
728.297	10.08
728.322	6.08
728.347	8.08
728.373	11.08
728.398	29.08
728.423	0.08
728.448	6.08
728.474	11.08
728.499	12.08
728.524	-3.92
728.55	24.08
728.575	22.08
728.6	2.08
728.625	-1.92
728.651	8.08
728.676	20.08
728.701	1.08
728.727	0.08
728.752	-11.92
728.777	-5.92
728.802	12.08
728.828	3.08
728.853	17.08
728.878	-0.92
728.903	-11.92
728.929	11.08
728.954	5.08
728.979	24.08
729.004	3.08
729.03	11.08
729.055	6.08
729.08	-7.92
729.105	-1.92
729.13	10.08
729.156	10.08
729.181	-1.92
729.206	1.08
729.231	4.08
729.256	-0.92
729.282	-2.92
729.307	-8.92
729.332	14.08
729.357	16.08
729.382	21.08
729.408	16.08
729.433	6.08
729.458	5.08
729.483	4.08
729.508	7.08
729.533	11.08
729.559	5.08
729.584	5.08
729.609	2.08
729.634	8.08
729.659	4.08
729.684	1.08
729.71	6.08
729.735	21.08
729.76	-1.92
729.785	-6.92
729.81	12.08
729.835	-1.92
729.86	-2.92
729.886	9.08
729.911	7.08
729.936	-1.92
729.961	12.08
729.986	-5.92
730.011	6.08
730.036	-6.92
730.061	-5.92
730.086	8.08
730.112	6.08
730.137	13.08
730.162	12.08
730.187	-9.92
730.212	16.08
730.237	4.08
730.262	-5.92
730.287	-15.92
730.312	17.08
730.337	2.08
730.362	7.08
730.387	2.08
730.413	-6.92
730.438	-1.92
730.463	6.08
730.488	6.08
730.513	1.08
730.538	-0.92
730.563	2.08
730.588	4.08
730.613	3.08
730.638	8.08
730.663	7.08
730.688	25.08
730.713	23.08
730.738	13.08
730.763	-4.92
730.788	-9.92
730.813	10.08
730.838	-14.92
730.863	11.08
730.888	8.08
730.913	2.08
730.938	-16.92
730.963	1.08
730.988	7.08
731.013	19.08
731.038	3.08
731.063	2.08
731.088	2.08
731.113	2.08
731.138	-0.92
731.163	2.08
731.188	2.08
731.213	7.08
731.238	7.08
731.263	12.08
731.288	10.08
731.313	2.08
731.338	-1.92
731.363	-6.92
731.388	8.08
731.413	25.08
731.438	20.08
731.463	3.08
731.487	3.08
731.512	4.08
731.537	2.08
731.562	6.08
731.587	5.08
731.612	10.08
731.637	-12.92
731.662	10.08
731.687	8.08
731.712	-6.92
731.737	2.08
731.762	-7.92
731.786	2.08
731.811	12.08
731.836	16.08
731.861	4.08
731.886	1.08
731.911	27.08
731.936	20.08
731.961	8.08
731.986	-0.92
732.01	9.08
732.035	6.08
732.06	19.08
732.085	-1.92
732.11	0.08
732.135	-1.92
732.16	4.08
732.184	-3.92
732.209	6.08
732.234	6.08
732.259	0.08
732.284	23.08
732.309	7.08
732.334	-7.92
732.358	-14.92
732.383	-8.92
732.408	-1.92
732.433	-7.92
732.458	-5.92
732.482	1.08
732.507	-0.92
732.532	2.08
732.557	8.08
732.582	8.08
732.607	-14.92
732.631	-6.92
732.656	2.08
732.681	10.08
732.706	6.08
732.73	-5.92
732.755	-4.92
732.78	2.08
732.805	10.08
732.83	-3.92
732.854	-1.92
732.879	14.08
732.904	7.08
732.929	9.08
732.953	3.08
732.978	10.08
733.003	-0.92
733.028	0.08
733.052	10.08
733.077	12.08
733.102	26.08
733.127	-4.92
733.151	5.08
733.176	9.08
733.201	0.08
733.226	-16.92
733.25	-6.92
733.275	7.08
733.3	18.08
733.324	20.08
733.349	26.08
733.374	23.08
733.399	8.08
733.423	-1.92
733.448	-10.92
733.473	11.08
733.497	-1.92
733.522	-5.92
733.547	27.08
733.571	19.08
733.596	8.08
733.621	9.08
733.646	10.08
733.67	-1.92
733.695	-3.92
733.72	26.08
733.744	3.08
733.769	3.08
733.794	12.08
733.818	1.08
733.843	7.08
733.867	1.08
733.892	9.08
733.917	-2.92
733.941	-0.92
733.966	-0.92
733.991	7.08
734.015	23.08
734.04	7.08
734.065	2.08
734.089	22.08
734.114	18.08
734.138	22.08
734.163	8.08
734.188	20.08
734.212	18.08
734.237	18.08
734.261	2.08
734.286	-5.92
734.311	-1.92
734.335	12.08
734.36	-1.92
734.384	14.08
734.409	1.08
734.434	-2.92
734.458	9.08
734.483	9.08
734.507	-1.92
734.532	-1.92
734.556	5.08
734.581	-0.92
734.606	-4.92
734.63	-0.92
734.655	4.08
734.679	6.08
734.704	-1.92
734.728	1.08
734.753	-4.92
734.777	8.08
734.802	1.08
734.826	5.08
734.851	5.08
734.876	15.08
734.9	22.08
734.925	6.08
734.949	6.08
734.974	-5.92
734.998	18.08
735.023	2.08
735.047	-15.92
735.072	27.08
735.096	12.08
735.121	14.08
735.145	1.08
735.17	5.08
735.194	16.08
735.219	7.08
735.243	2.08
735.268	17.08
735.292	8.08
735.317	4.08
735.341	-0.92
735.365	-18.92
735.39	11.08
735.414	17.08
735.439	3.08
735.463	10.08
735.488	7.08
735.512	2.08
735.537	12.08
735.561	8.08
735.586	-0.92
735.61	4.08
735.634	6.08
735.659	4.08
735.683	20.08
735.708	3.08
735.732	3.08
735.757	0.08
735.781	19.08
735.805	24.08
735.83	-4.92
735.854	7.08
735.879	8.08
735.903	12.08
735.927	6.08
735.952	11.08
735.976	8.08
736.001	-3.92
736.025	-0.92
736.049	12.08
736.074	-3.92
736.098	-1.92
736.123	10.08
736.147	-5.92
736.171	10.08
736.196	10.08
736.22	2.08
736.244	14.08
736.269	-1.92
736.293	14.08
736.317	8.08
736.342	1.08
736.366	9.08
736.39	21.08
736.415	17.08
736.439	8.08
736.463	15.08
736.488	17.08
736.512	-13.92
736.536	9.08
736.561	21.08
736.585	0.08
736.609	11.08
736.634	-2.92
736.658	11.08
736.682	3.08
736.707	0.08
736.731	0.08
736.755	0.08
736.78	19.08
736.804	18.08
736.828	26.08
736.852	4.08
736.877	-6.92
736.901	-3.92
736.925	-11.92
736.949	15.08
736.974	4.08
736.998	2.08
737.022	4.08
737.047	13.08
737.071	-4.92
737.095	4.08
737.119	26.08
737.144	12.08
737.168	4.08
737.192	2.08
737.216	12.08
737.241	0.08
737.265	10.08
737.289	15.08
737.313	12.08
737.337	7.08
737.362	8.08
737.386	6.08
737.41	-6.92
737.434	8.08
737.459	10.08
737.483	16.08
737.507	14.08
737.531	17.08
737.555	3.08
737.58	5.08
737.604	-4.92
737.628	1.08
737.652	8.08
737.676	0.08
737.701	16.08
737.725	11.08
737.749	11.08
737.773	11.08
737.797	-7.92
737.821	7.08
737.846	2.08
737.87	33.08
737.894	6.08
737.918	1.08
737.942	-3.92
737.966	-1.92
737.99	14.08
738.015	12.08
738.039	16.08
738.063	1.08
738.087	14.08
738.111	16.08
738.135	17.08
738.159	-11.92
738.184	5.08
738.208	17.08
738.232	6.08
738.256	11.08
738.28	6.08
738.304	11.08
738.328	2.08
738.352	13.08
738.376	-7.92
738.4	14.08
738.425	7.08
738.449	-3.92
738.473	13.08
738.497	-6.92
738.521	-7.92
738.545	13.08
738.569	13.08
738.593	8.08
738.617	20.08
738.641	1.08
738.665	6.08
738.689	17.08
738.713	-0.92
738.737	20.08
738.762	7.08
738.786	14.08
738.81	9.08
738.834	8.08
738.858	-3.92
738.882	6.08
738.906	10.08
738.93	16.08
738.954	9.08
738.978	12.08
739.002	3.08
739.026	14.08
739.05	3.08
739.074	-3.92
739.098	26.08
739.122	27.08
739.146	16.08
739.17	22.08
739.194	18.08
739.218	0.08
739.242	-1.92
739.266	7.08
739.29	11.08
739.314	4.08
739.338	5.08
739.362	14.08
739.386	5.08
739.41	3.08
739.434	-2.92
739.458	14.08
739.482	8.08
739.506	16.08
739.53	0.08
739.554	2.08
739.577	-14.92
739.601	13.08
739.625	0.08
739.649	9.08
739.673	-9.92
739.697	3.08
739.721	1.08
739.745	20.08
739.769	18.08
739.793	26.08
739.817	23.08
739.841	6.08
739.865	11.08
739.889	0.08
739.912	24.08
739.936	9.08
739.96	5.08
739.984	20.08
740.008	11.08
740.032	14.08
740.056	4.08
740.08	2.08
740.104	0.08
740.127	19.08
740.151	9.08
740.175	8.08
740.199	10.08
740.223	46.08
740.247	11.08
740.271	19.08
740.295	20.08
740.318	-6.92
740.342	4.08
740.366	18.08
740.39	6.08
740.414	5.08
740.438	0.08
740.461	10.08
740.485	-2.92
740.509	-2.92
740.533	-2.92
740.557	0.08
740.581	8.08
740.604	-6.92
740.628	1.08
740.652	4.08
740.676	2.08
740.7	10.08
740.723	-3.92
740.747	2.08
740.771	-1.92
740.795	2.08
740.819	10.08
740.842	-0.92
740.866	10.08
740.89	7.08
740.914	-4.92
740.938	1.08
740.961	12.08
740.985	7.08
741.009	2.08
741.033	18.08
741.056	13.08
741.08	7.08
741.104	8.08
741.128	-3.92
741.151	9.08
741.175	4.08
741.199	-8.92
741.223	8.08
741.246	2.08
741.27	7.08
741.294	3.08
741.318	-0.92
741.341	-1.92
741.365	-1.92
741.389	16.08
741.413	9.08
741.436	17.08
741.46	17.08
741.484	9.08
741.507	4.08
741.531	12.08
741.555	4.08
741.579	20.08
741.602	-13.92
741.626	2.08
741.65	-4.92
741.673	-2.92
741.697	4.08
741.721	2.08
741.744	-4.92
741.768	11.08
741.792	16.08
741.815	-2.92
741.839	18.08
741.863	1.08
741.886	21.08
741.91	14.08
741.934	5.08
741.957	-4.92
741.981	8.08
742.005	9.08
742.028	-11.92
742.052	6.08
742.075	4.08
742.099	11.08
742.123	11.08
742.146	14.08
742.17	13.08
742.194	-3.92
742.217	-0.92
742.241	-0.92
742.264	-19.92
742.288	7.08
742.312	7.08
742.335	8.08
742.359	6.08
742.382	13.08
742.406	12.08
742.43	-9.92
742.453	4.08
742.477	-5.92
742.5	0.08
742.524	3.08
742.548	-0.92
742.571	9.08
742.595	2.08
742.618	-1.92
742.642	-11.92
742.665	18.08
742.689	-7.92
742.712	9.08
742.736	6.08
742.76	11.08
742.783	10.08
742.807	10.08
742.83	15.08
742.854	10.08
742.877	-3.92
742.901	-0.92
742.924	-1.92
742.948	17.08
742.971	1.08
742.995	4.08
743.018	-4.92
743.042	-4.92
743.065	6.08
743.089	-6.92
743.112	6.08
743.136	2.08
743.159	1.08
743.183	-9.92
743.206	8.08
743.23	-5.92
743.253	18.08
743.277	17.08
743.3	3.08
743.324	4.08
743.347	3.08
743.371	36.08
743.394	19.08
743.418	24.08
743.441	20.08
743.465	17.08
743.488	15.08
743.512	-17.92
743.535	-4.92
743.558	-2.92
743.582	7.08
743.605	4.08
743.629	12.08
743.652	14.08
743.676	2.08
743.699	17.08
743.723	20.08
743.746	7.08
743.769	15.08
743.793	19.08
743.816	14.08
743.84	26.08
743.863	2.08
743.886	18.08
743.91	8.08
743.933	12.08
743.957	8.08
743.98	4.08
744.003	9.08
744.027	3.08
744.05	-3.92
744.074	-1.92
744.097	-7.92
744.12	7.08
744.144	-3.92
744.167	6.08
744.19	1.08
744.214	-3.92
744.237	-1.92
744.26	8.08
744.284	-0.92
744.307	-17.92
744.331	14.08
744.354	-0.92
744.377	4.08
744.401	-8.92
744.424	-2.92
744.447	-0.92
744.471	-5.92
