Data from HighRes_H2D2_15_04_11_07_2024_HR4C61891__36__15-05-38-043.txt Node

Date: Thu Nov 07 15:05:38 EST 2024
User: crc00042
Spectrometer: HR4C6189
Trigger mode: 4
Integration Time (sec): 1.000000E-1
Scans to average: 1
Electric dark correction enabled: true
Nonlinearity correction enabled: false
Boxcar width: 0
XAxis mode: Wavelengths
Number of Pixels in Spectrum: 3648
>>>>>Begin Spectral Data<<<<<
639.567	-76.92
639.602	-76.92
639.636	-76.92
639.67	-45.92
639.704	-8.92
639.738	-9.92
639.773	10.08
639.807	-8.92
639.841	2.08
639.875	9.08
639.909	-2.92
639.943	-11.92
639.978	-21.92
640.012	0.08
640.046	13.08
640.08	5.08
640.114	16.08
640.148	0.08
640.182	-10.92
640.217	1.08
640.251	23.08
640.285	12.08
640.319	-7.92
640.353	3.08
640.387	-6.92
640.421	5.08
640.455	-4.92
640.49	-19.92
640.524	6.08
640.558	6.08
640.592	-7.92
640.626	5.08
640.66	-1.92
640.694	-2.92
640.728	13.08
640.762	11.08
640.796	4.08
640.83	17.08
640.865	-4.92
640.899	-3.92
640.933	-1.92
640.967	-11.92
641.001	6.08
641.035	-7.92
641.069	-9.92
641.103	-4.92
641.137	-1.92
641.171	-27.92
641.205	8.08
641.239	7.08
641.273	7.08
641.307	14.08
641.341	21.08
641.375	-2.92
641.409	0.08
641.443	-10.92
641.477	6.08
641.511	10.08
641.545	-2.92
641.579	-24.92
641.614	-4.92
641.648	-6.92
641.682	3.08
641.716	-1.92
641.75	5.08
641.784	-6.92
641.818	1.08
641.852	-6.92
641.886	-0.92
641.919	17.08
641.953	11.08
641.987	5.08
642.021	2.08
642.055	3.08
642.089	5.08
642.123	-2.92
642.157	3.08
642.191	3.08
642.225	-1.92
642.259	3.08
642.293	7.08
642.327	7.08
642.361	8.08
642.395	-0.92
642.429	5.08
642.463	0.08
642.497	6.08
642.531	4.08
642.565	-3.92
642.599	0.08
642.633	-2.92
642.666	4.08
642.7	0.08
642.734	-0.92
642.768	-2.92
642.802	-19.92
642.836	2.08
642.87	-7.92
642.904	-6.92
642.938	16.08
642.972	-13.92
643.005	5.08
643.039	-0.92
643.073	-8.92
643.107	4.08
643.141	7.08
643.175	-5.92
643.209	-5.92
643.243	-1.92
643.276	2.08
643.31	-21.92
643.344	-2.92
643.378	-1.92
643.412	8.08
643.446	0.08
643.48	-1.92
643.513	-8.92
643.547	-7.92
643.581	-21.92
643.615	9.08
643.649	-14.92
643.683	-7.92
643.716	0.08
643.75	8.08
643.784	-8.92
643.818	-2.92
643.852	9.08
643.886	9.08
643.919	14.08
643.953	-0.92
643.987	-8.92
644.021	7.08
644.055	1.08
644.088	2.08
644.122	-1.92
644.156	-14.92
644.19	-1.92
644.224	-3.92
644.257	13.08
644.291	11.08
644.325	18.08
644.359	-10.92
644.392	16.08
644.426	4.08
644.46	8.08
644.494	7.08
644.527	-15.92
644.561	4.08
644.595	5.08
644.629	7.08
644.662	-2.92
644.696	9.08
644.73	13.08
644.764	8.08
644.797	13.08
644.831	-1.92
644.865	13.08
644.899	0.08
644.932	17.08
644.966	5.08
645	18.08
645.033	14.08
645.067	0.08
645.101	6.08
645.135	-2.92
645.168	-6.92
645.202	13.08
645.236	7.08
645.269	4.08
645.303	-0.92
645.337	-6.92
645.37	-3.92
645.404	-2.92
645.438	-7.92
645.471	-10.92
645.505	2.08
645.539	11.08
645.572	-7.92
645.606	-18.92
645.64	2.08
645.673	-7.92
645.707	17.08
645.741	11.08
645.774	-11.92
645.808	2.08
645.842	-1.92
645.875	9.08
645.909	2.08
645.943	-4.92
645.976	6.08
646.01	-1.92
646.043	8.08
646.077	-6.92
646.111	-7.92
646.144	-5.92
646.178	5.08
646.212	-9.92
646.245	-3.92
646.279	8.08
646.312	0.08
646.346	5.08
646.38	-0.92
646.413	10.08
646.447	5.08
646.48	-5.92
646.514	0.08
646.547	-4.92
646.581	-13.92
646.615	4.08
646.648	-13.92
646.682	-0.92
646.715	-6.92
646.749	-7.92
646.782	-6.92
646.816	-7.92
646.85	0.08
646.883	-6.92
646.917	10.08
646.95	-3.92
646.984	-5.92
647.017	-6.92
647.051	11.08
647.084	1.08
647.118	-4.92
647.151	5.08
647.185	13.08
647.218	-3.92
647.252	24.08
647.285	-13.92
647.319	-8.92
647.353	4.08
647.386	11.08
647.42	-9.92
647.453	-10.92
647.487	-1.92
647.52	-9.92
647.553	4.08
647.587	11.08
647.62	7.08
647.654	13.08
647.687	4.08
647.721	-17.92
647.754	5.08
647.788	15.08
647.821	-4.92
647.855	9.08
647.888	15.08
647.922	5.08
647.955	11.08
647.989	13.08
648.022	12.08
648.055	17.08
648.089	-2.92
648.122	13.08
648.156	-6.92
648.189	-0.92
648.223	6.08
648.256	14.08
648.29	16.08
648.323	-0.92
648.356	11.08
648.39	10.08
648.423	8.08
648.457	2.08
648.49	12.08
648.523	10.08
648.557	-11.92
648.59	-2.92
648.624	6.08
648.657	-5.92
648.69	4.08
648.724	-5.92
648.757	16.08
648.791	9.08
648.824	8.08
648.857	13.08
648.891	4.08
648.924	-6.92
648.957	8.08
648.991	-0.92
649.024	16.08
649.057	-4.92
649.091	-2.92
649.124	6.08
649.158	-6.92
649.191	24.08
649.224	4.08
649.258	2.08
649.291	5.08
649.324	8.08
649.358	18.08
649.391	8.08
649.424	15.08
649.458	-0.92
649.491	2.08
649.524	-3.92
649.557	-3.92
649.591	-4.92
649.624	14.08
649.657	3.08
649.691	-3.92
649.724	7.08
649.757	8.08
649.791	8.08
649.824	19.08
649.857	7.08
649.89	3.08
649.924	-8.92
649.957	-5.92
649.99	-18.92
650.023	-8.92
650.057	-1.92
650.09	8.08
650.123	11.08
650.157	2.08
650.19	22.08
650.223	4.08
650.256	-10.92
650.29	-1.92
650.323	6.08
650.356	23.08
650.389	18.08
650.423	-1.92
650.456	6.08
650.489	16.08
650.522	2.08
650.555	29.08
650.589	15.08
650.622	16.08
650.655	16.08
650.688	18.08
650.721	10.08
650.755	16.08
650.788	8.08
650.821	8.08
650.854	-6.92
650.887	14.08
650.921	7.08
650.954	8.08
650.987	15.08
651.02	-0.92
651.053	-6.92
651.087	-19.92
651.12	8.08
651.153	-1.92
651.186	-2.92
651.219	-15.92
651.252	9.08
651.286	4.08
651.319	-11.92
651.352	4.08
651.385	9.08
651.418	2.08
651.451	9.08
651.484	-8.92
651.518	-0.92
651.551	12.08
651.584	-5.92
651.617	16.08
651.65	1.08
651.683	20.08
651.716	11.08
651.749	2.08
651.783	24.08
651.816	13.08
651.849	8.08
651.882	15.08
651.915	6.08
651.948	6.08
651.981	3.08
652.014	-9.92
652.047	-8.92
652.08	-11.92
652.114	13.08
652.147	-0.92
652.18	19.08
652.213	34.08
652.246	-4.92
652.279	-7.92
652.312	10.08
652.345	5.08
652.378	11.08
652.411	8.08
652.444	20.08
652.477	9.08
652.51	-1.92
652.543	-4.92
652.576	0.08
652.609	-20.92
652.642	6.08
652.675	13.08
652.709	0.08
652.742	3.08
652.775	6.08
652.808	13.08
652.841	24.08
652.874	13.08
652.907	7.08
652.94	-2.92
652.973	-10.92
653.006	5.08
653.039	-1.92
653.072	8.08
653.105	12.08
653.138	-8.92
653.171	-0.92
653.204	11.08
653.237	9.08
653.27	-6.92
653.303	5.08
653.336	14.08
653.368	6.08
653.401	8.08
653.434	-10.92
653.467	-1.92
653.5	-4.92
653.533	3.08
653.566	9.08
653.599	0.08
653.632	12.08
653.665	5.08
653.698	-10.92
653.731	-1.92
653.764	14.08
653.797	-9.92
653.83	6.08
653.863	20.08
653.896	4.08
653.929	3.08
653.961	-11.92
653.994	11.08
654.027	-13.92
654.06	1.08
654.093	9.08
654.126	19.08
654.159	-4.92
654.192	8.08
654.225	-9.92
654.258	-11.92
654.29	1.08
654.323	7.08
654.356	-1.92
654.389	4.08
654.422	-14.92
654.455	6.08
654.488	-1.92
654.521	-19.92
654.553	-6.92
654.586	10.08
654.619	-8.92
654.652	1.08
654.685	-8.92
654.718	6.08
654.751	14.08
654.783	-1.92
654.816	17.08
654.849	5.08
654.882	-4.92
654.915	0.08
654.948	14.08
654.98	-13.92
655.013	6.08
655.046	11.08
655.079	0.08
655.112	22.08
655.144	-20.92
655.177	-16.92
655.21	13.08
655.243	1.08
655.276	22.08
655.308	-6.92
655.341	-4.92
655.374	9.08
655.407	-7.92
655.44	-6.92
655.472	20.08
655.505	26.08
655.538	12.08
655.571	9.08
655.603	-4.92
655.636	9.08
655.669	12.08
655.702	12.08
655.734	-3.92
655.767	1.08
655.8	-6.92
655.833	5.08
655.865	13.08
655.898	12.08
655.931	3.08
655.964	21.08
655.996	9.08
656.029	16.08
656.062	23.08
656.095	30.08
656.127	81.08
656.16	203.08
656.193	620.08
656.225	962.08
656.258	541.08
656.291	212.08
656.324	188.08
656.356	357.08
656.389	750.08
656.422	690.08
656.454	260.08
656.487	92.08
656.52	36.08
656.552	22.08
656.585	17.08
656.618	20.08
656.65	27.08
656.683	-7.92
656.716	15.08
656.748	9.08
656.781	-11.92
656.814	-14.92
656.846	1.08
656.879	4.08
656.912	-8.92
656.944	-3.92
656.977	4.08
657.01	-1.92
657.042	11.08
657.075	11.08
657.108	4.08
657.14	23.08
657.173	18.08
657.205	11.08
657.238	0.08
657.271	12.08
657.303	1.08
657.336	3.08
657.369	3.08
657.401	-5.92
657.434	7.08
657.466	-3.92
657.499	-11.92
657.532	6.08
657.564	11.08
657.597	3.08
657.629	-7.92
657.662	-10.92
657.694	4.08
657.727	-19.92
657.76	8.08
657.792	2.08
657.825	-9.92
657.857	-6.92
657.89	6.08
657.922	19.08
657.955	-1.92
657.987	-0.92
658.02	9.08
658.053	-11.92
658.085	-4.92
658.118	-3.92
658.15	1.08
658.183	7.08
658.215	-2.92
658.248	-8.92
658.28	-6.92
658.313	10.08
658.345	4.08
658.378	8.08
658.41	-8.92
658.443	16.08
658.475	-2.92
658.508	-9.92
658.54	-0.92
658.573	-15.92
658.605	1.08
658.638	-9.92
658.67	-3.92
658.703	-3.92
658.735	-10.92
658.768	15.08
658.8	-4.92
658.833	12.08
658.865	9.08
658.898	-1.92
658.93	-3.92
658.963	-6.92
658.995	-12.92
659.028	-8.92
659.06	-4.92
659.092	-0.92
659.125	1.08
659.157	2.08
659.19	4.08
659.222	1.08
659.255	-16.92
659.287	-6.92
659.32	-12.92
659.352	1.08
659.384	18.08
659.417	-2.92
659.449	4.08
659.482	-2.92
659.514	2.08
659.546	1.08
659.579	-14.92
659.611	-9.92
659.644	0.08
659.676	-7.92
659.708	-6.92
659.741	-0.92
659.773	18.08
659.806	-1.92
659.838	7.08
659.87	3.08
659.903	1.08
659.935	10.08
659.967	4.08
660	-14.92
660.032	-31.92
660.065	0.08
660.097	8.08
660.129	16.08
660.162	-3.92
660.194	9.08
660.226	-4.92
660.259	5.08
660.291	-5.92
660.323	-6.92
660.356	-2.92
660.388	-3.92
660.42	-19.92
660.453	-4.92
660.485	-8.92
660.517	11.08
660.55	4.08
660.582	-1.92
660.614	-6.92
660.647	-12.92
660.679	-3.92
660.711	13.08
660.743	-7.92
660.776	-0.92
660.808	-3.92
660.84	-6.92
660.873	6.08
660.905	12.08
660.937	-3.92
660.969	7.08
661.002	1.08
661.034	13.08
661.066	-8.92
661.099	7.08
661.131	1.08
661.163	9.08
661.195	-0.92
661.228	18.08
661.26	-0.92
661.292	-14.92
661.324	7.08
661.357	4.08
661.389	17.08
661.421	10.08
661.453	-1.92
661.485	2.08
661.518	-7.92
661.55	-19.92
661.582	-10.92
661.614	-5.92
661.647	7.08
661.679	-2.92
661.711	-3.92
661.743	-12.92
661.775	-0.92
661.808	9.08
661.84	-10.92
661.872	0.08
661.904	0.08
661.936	4.08
661.969	-0.92
662.001	-1.92
662.033	-11.92
662.065	-4.92
662.097	11.08
662.129	18.08
662.162	11.08
662.194	5.08
662.226	5.08
662.258	-4.92
662.29	0.08
662.322	-6.92
662.355	-7.92
662.387	23.08
662.419	1.08
662.451	12.08
662.483	8.08
662.515	10.08
662.547	14.08
662.58	-20.92
662.612	-12.92
662.644	-11.92
662.676	-6.92
662.708	19.08
662.74	-7.92
662.772	-0.92
662.804	-1.92
662.836	2.08
662.869	-3.92
662.901	16.08
662.933	7.08
662.965	19.08
662.997	2.08
663.029	-2.92
663.061	2.08
663.093	-1.92
663.125	9.08
663.157	-2.92
663.189	26.08
663.221	4.08
663.254	9.08
663.286	9.08
663.318	-5.92
663.35	-11.92
663.382	-2.92
663.414	-0.92
663.446	9.08
663.478	2.08
663.51	8.08
663.542	1.08
663.574	-3.92
663.606	-16.92
663.638	-7.92
663.67	3.08
663.702	-4.92
663.734	0.08
663.766	9.08
663.798	-1.92
663.83	3.08
663.862	7.08
663.894	17.08
663.926	-4.92
663.958	8.08
663.99	1.08
664.022	-4.92
664.054	7.08
664.086	-10.92
664.118	-12.92
664.15	-8.92
664.182	3.08
664.214	-6.92
664.246	-2.92
664.278	6.08
664.31	15.08
664.342	8.08
664.374	-6.92
664.406	-6.92
664.438	7.08
664.47	-0.92
664.502	-4.92
664.534	-2.92
664.566	-15.92
664.598	4.08
664.63	3.08
664.662	-0.92
664.693	7.08
664.725	-3.92
664.757	-9.92
664.789	-3.92
664.821	3.08
664.853	7.08
664.885	-0.92
664.917	0.08
664.949	16.08
664.981	5.08
665.013	-8.92
665.045	-2.92
665.076	-1.92
665.108	-4.92
665.14	-3.92
665.172	17.08
665.204	8.08
665.236	-5.92
665.268	12.08
665.3	4.08
665.331	-6.92
665.363	-2.92
665.395	-5.92
665.427	-15.92
665.459	-6.92
665.491	0.08
665.523	-6.92
665.555	4.08
665.586	3.08
665.618	5.08
665.65	-11.92
665.682	7.08
665.714	0.08
665.746	-7.92
665.777	-2.92
665.809	-18.92
665.841	3.08
665.873	-15.92
665.905	14.08
665.937	23.08
665.968	8.08
666	1.08
666.032	8.08
666.064	-4.92
666.096	7.08
666.127	14.08
666.159	15.08
666.191	17.08
666.223	7.08
666.255	0.08
666.286	-3.92
666.318	7.08
666.35	12.08
666.382	20.08
666.413	-12.92
666.445	-21.92
666.477	-16.92
666.509	2.08
666.54	3.08
666.572	-8.92
666.604	-8.92
666.636	-1.92
666.667	6.08
666.699	12.08
666.731	-3.92
666.763	6.08
666.794	17.08
666.826	2.08
666.858	-11.92
666.89	-7.92
666.921	13.08
666.953	18.08
666.985	2.08
667.017	9.08
667.048	3.08
667.08	3.08
667.112	7.08
667.143	-19.92
667.175	-4.92
667.207	7.08
667.238	0.08
667.27	-2.92
667.302	6.08
667.334	-9.92
667.365	18.08
667.397	10.08
667.429	0.08
667.46	14.08
667.492	3.08
667.524	15.08
667.555	5.08
667.587	-2.92
667.619	-10.92
667.65	-3.92
667.682	9.08
667.714	5.08
667.745	-8.92
667.777	-14.92
667.808	10.08
667.84	-1.92
667.872	4.08
667.903	32.08
667.935	4.08
667.967	-6.92
667.998	0.08
668.03	-1.92
668.061	3.08
668.093	2.08
668.125	-2.92
668.156	4.08
668.188	-4.92
668.22	-15.92
668.251	9.08
668.283	2.08
668.314	21.08
668.346	-8.92
668.377	4.08
668.409	2.08
668.441	7.08
668.472	5.08
668.504	2.08
668.535	-2.92
668.567	4.08
668.599	-0.92
668.63	-2.92
668.662	4.08
668.693	4.08
668.725	5.08
668.756	-0.92
668.788	-13.92
668.819	-7.92
668.851	12.08
668.882	7.08
668.914	-3.92
668.946	5.08
668.977	-10.92
669.009	-3.92
669.04	-1.92
669.072	-8.92
669.103	8.08
669.135	-10.92
669.166	-7.92
669.198	-15.92
669.229	8.08
669.261	-2.92
669.292	-9.92
669.324	-3.92
669.355	-4.92
669.387	0.08
669.418	9.08
669.45	0.08
669.481	13.08
669.513	10.08
669.544	2.08
669.576	4.08
669.607	14.08
669.639	22.08
669.67	-13.92
669.701	14.08
669.733	-17.92
669.764	11.08
669.796	-3.92
669.827	-19.92
669.859	-2.92
669.89	5.08
669.922	1.08
669.953	3.08
669.985	-8.92
670.016	13.08
670.047	8.08
670.079	5.08
670.11	16.08
670.142	7.08
670.173	-0.92
670.204	-4.92
670.236	5.08
670.267	6.08
670.299	6.08
670.33	7.08
670.362	0.08
670.393	-3.92
670.424	25.08
670.456	3.08
670.487	-7.92
670.518	-7.92
670.55	9.08
670.581	-10.92
670.613	8.08
670.644	-11.92
670.675	-10.92
670.707	-3.92
670.738	-17.92
670.769	-1.92
670.801	-20.92
670.832	7.08
670.864	4.08
670.895	-3.92
670.926	-0.92
670.958	7.08
670.989	-2.92
671.02	1.08
671.052	0.08
671.083	-1.92
671.114	3.08
671.146	5.08
671.177	1.08
671.208	2.08
671.24	-8.92
671.271	-12.92
671.302	1.08
671.333	-3.92
671.365	-7.92
671.396	-15.92
671.427	1.08
671.459	8.08
671.49	13.08
671.521	5.08
671.553	-4.92
671.584	10.08
671.615	-14.92
671.646	-8.92
671.678	5.08
671.709	-5.92
671.74	-11.92
671.771	-11.92
671.803	-4.92
671.834	0.08
671.865	1.08
671.896	14.08
671.928	5.08
671.959	-8.92
671.99	-9.92
672.021	-15.92
672.053	-15.92
672.084	1.08
672.115	16.08
672.146	8.08
672.178	-7.92
672.209	-8.92
672.24	-18.92
672.271	19.08
672.303	-2.92
672.334	11.08
672.365	3.08
672.396	4.08
672.427	-5.92
672.459	3.08
672.49	32.08
672.521	-2.92
672.552	-14.92
672.583	9.08
672.615	5.08
672.646	5.08
672.677	0.08
672.708	1.08
672.739	0.08
672.77	10.08
672.802	9.08
672.833	-15.92
672.864	0.08
672.895	-2.92
672.926	1.08
672.957	-2.92
672.989	-1.92
673.02	-4.92
673.051	-18.92
673.082	5.08
673.113	4.08
673.144	-2.92
673.175	-9.92
673.206	-21.92
673.238	-14.92
673.269	-2.92
673.3	-4.92
673.331	14.08
673.362	8.08
673.393	-9.92
673.424	16.08
673.455	24.08
673.487	-0.92
673.518	18.08
673.549	13.08
673.58	4.08
673.611	9.08
673.642	10.08
673.673	-17.92
673.704	-21.92
673.735	-2.92
673.766	-7.92
673.797	3.08
673.828	-10.92
673.86	-0.92
673.891	-3.92
673.922	-7.92
673.953	-17.92
673.984	4.08
674.015	3.08
674.046	-11.92
674.077	6.08
674.108	3.08
674.139	-9.92
674.17	-3.92
674.201	-7.92
674.232	-6.92
674.263	-4.92
674.294	-1.92
674.325	-9.92
674.356	4.08
674.387	13.08
674.418	0.08
674.449	1.08
674.48	-7.92
674.511	-1.92
674.542	-1.92
674.573	-27.92
674.604	-5.92
674.635	-10.92
674.666	11.08
674.697	-1.92
674.728	-7.92
674.759	-2.92
674.79	-11.92
674.821	-11.92
674.852	-9.92
674.883	2.08
674.914	8.08
674.945	-4.92
674.976	1.08
675.007	-5.92
675.038	-3.92
675.069	-21.92
675.1	-14.92
675.131	-16.92
675.162	-2.92
675.193	-1.92
675.224	-0.92
675.254	7.08
675.285	0.08
675.316	-2.92
675.347	6.08
675.378	-3.92
675.409	-5.92
675.44	5.08
675.471	7.08
675.502	-5.92
675.533	-6.92
675.564	6.08
675.595	7.08
675.625	7.08
675.656	-7.92
675.687	-5.92
675.718	-11.92
675.749	12.08
675.78	15.08
675.811	1.08
675.842	13.08
675.873	0.08
675.903	-4.92
675.934	-3.92
675.965	-3.92
675.996	-2.92
676.027	10.08
676.058	0.08
676.089	-22.92
676.119	-24.92
676.15	-15.92
676.181	11.08
676.212	1.08
676.243	3.08
676.274	-14.92
676.304	10.08
676.335	-4.92
676.366	-7.92
676.397	0.08
676.428	-3.92
676.459	2.08
676.489	15.08
676.52	9.08
676.551	-7.92
676.582	-7.92
676.613	2.08
676.643	5.08
676.674	-0.92
676.705	-3.92
676.736	-3.92
676.767	3.08
676.797	2.08
676.828	-3.92
676.859	-11.92
676.89	-3.92
676.92	-2.92
676.951	-2.92
676.982	5.08
677.013	7.08
677.044	13.08
677.074	7.08
677.105	-10.92
677.136	3.08
677.167	-6.92
677.197	5.08
677.228	-9.92
677.259	-11.92
677.289	-8.92
677.32	-10.92
677.351	2.08
677.382	-11.92
677.412	6.08
677.443	6.08
677.474	-2.92
677.505	-14.92
677.535	-7.92
677.566	-10.92
677.597	-7.92
677.627	-3.92
677.658	-10.92
677.689	-16.92
677.72	-9.92
677.75	1.08
677.781	13.08
677.812	11.08
677.842	11.08
677.873	7.08
677.904	0.08
677.934	-0.92
677.965	-6.92
677.996	-7.92
678.026	4.08
678.057	14.08
678.088	-6.92
678.118	7.08
678.149	-7.92
678.18	-12.92
678.21	-5.92
678.241	-10.92
678.272	12.08
678.302	-4.92
678.333	-1.92
678.363	9.08
678.394	14.08
678.425	-8.92
678.455	-0.92
678.486	10.08
678.517	0.08
678.547	-11.92
678.578	-22.92
678.608	-13.92
678.639	9.08
678.67	10.08
678.7	-15.92
678.731	1.08
678.761	-2.92
678.792	17.08
678.823	4.08
678.853	-2.92
678.884	-17.92
678.914	-2.92
678.945	-5.92
678.975	-5.92
679.006	-9.92
679.037	-0.92
679.067	13.08
679.098	9.08
679.128	-5.92
679.159	-0.92
679.189	8.08
679.22	-14.92
679.25	-1.92
679.281	-20.92
679.312	2.08
679.342	15.08
679.373	24.08
679.403	8.08
679.434	-4.92
679.464	5.08
679.495	-0.92
679.525	-10.92
679.556	-2.92
679.586	15.08
679.617	-4.92
679.647	6.08
679.678	11.08
679.708	10.08
679.739	9.08
679.769	-8.92
679.8	-8.92
679.83	-5.92
679.861	7.08
679.891	-4.92
679.922	-13.92
679.952	6.08
679.983	13.08
680.013	3.08
680.044	0.08
680.074	-7.92
680.105	-9.92
680.135	-11.92
680.165	4.08
680.196	5.08
680.226	-3.92
680.257	12.08
680.287	-7.92
680.318	-1.92
680.348	-23.92
680.379	10.08
680.409	3.08
680.439	-1.92
680.47	-7.92
680.5	-9.92
680.531	-2.92
680.561	24.08
680.592	22.08
680.622	10.08
680.652	-7.92
680.683	12.08
680.713	5.08
680.744	14.08
680.774	-3.92
680.804	10.08
680.835	-14.92
680.865	-6.92
680.896	16.08
680.926	11.08
680.956	2.08
680.987	10.08
681.017	-3.92
681.047	1.08
681.078	-3.92
681.108	3.08
681.139	-10.92
681.169	7.08
681.199	8.08
681.23	4.08
681.26	1.08
681.29	0.08
681.321	-12.92
681.351	-1.92
681.381	-14.92
681.412	4.08
681.442	10.08
681.472	22.08
681.503	18.08
681.533	4.08
681.563	-11.92
681.594	-9.92
681.624	-2.92
681.654	-19.92
681.685	-6.92
681.715	8.08
681.745	-1.92
681.775	-0.92
681.806	15.08
681.836	11.08
681.866	-0.92
681.897	-0.92
681.927	9.08
681.957	-11.92
681.987	3.08
682.018	0.08
682.048	20.08
682.078	4.08
682.109	5.08
682.139	2.08
682.169	7.08
682.199	0.08
682.23	-9.92
682.26	5.08
682.29	-3.92
682.32	0.08
682.351	3.08
682.381	13.08
682.411	0.08
682.441	-0.92
682.472	-15.92
682.502	-6.92
682.532	1.08
682.562	-0.92
682.592	3.08
682.623	11.08
682.653	-9.92
682.683	-5.92
682.713	7.08
682.743	-2.92
682.774	-6.92
682.804	-2.92
682.834	19.08
682.864	-3.92
682.894	1.08
682.925	-8.92
682.955	-3.92
682.985	-1.92
683.015	5.08
683.045	18.08
683.076	-6.92
683.106	-7.92
683.136	0.08
683.166	-12.92
683.196	-3.92
683.226	-2.92
683.257	-14.92
683.287	-11.92
683.317	-12.92
683.347	-6.92
683.377	0.08
683.407	12.08
683.437	-3.92
683.468	0.08
683.498	-2.92
683.528	6.08
683.558	7.08
683.588	8.08
683.618	-8.92
683.648	5.08
683.678	17.08
683.708	17.08
683.739	-1.92
683.769	1.08
683.799	-2.92
683.829	8.08
683.859	1.08
683.889	6.08
683.919	0.08
683.949	-1.92
683.979	-6.92
684.009	-5.92
684.039	0.08
684.07	4.08
684.1	12.08
684.13	-5.92
684.16	4.08
684.19	-7.92
684.22	-10.92
684.25	-3.92
684.28	-6.92
684.31	-4.92
684.34	23.08
684.37	16.08
684.4	7.08
684.43	-4.92
684.46	-7.92
684.49	8.08
684.52	9.08
684.55	-2.92
684.58	-15.92
684.61	-6.92
684.64	1.08
684.67	5.08
684.7	-4.92
684.73	7.08
684.76	4.08
684.79	16.08
684.82	5.08
684.85	-5.92
684.88	11.08
684.91	-7.92
684.94	-6.92
684.97	11.08
685	-3.92
685.03	4.08
685.06	5.08
685.09	6.08
685.12	11.08
685.15	-17.92
685.18	6.08
685.21	14.08
685.24	3.08
685.27	17.08
685.3	2.08
685.33	17.08
685.36	-2.92
685.39	4.08
685.42	-4.92
685.45	-0.92
685.48	5.08
685.51	-2.92
685.54	21.08
685.569	15.08
685.599	1.08
685.629	14.08
685.659	0.08
685.689	1.08
685.719	8.08
685.749	-3.92
685.779	-2.92
685.809	14.08
685.839	-3.92
685.869	10.08
685.898	9.08
685.928	-9.92
685.958	4.08
685.988	17.08
686.018	11.08
686.048	18.08
686.078	18.08
686.108	29.08
686.137	22.08
686.167	5.08
686.197	-14.92
686.227	-6.92
686.257	21.08
686.287	17.08
686.317	3.08
686.346	-14.92
686.376	-10.92
686.406	3.08
686.436	14.08
686.466	-0.92
686.496	3.08
686.525	-6.92
686.555	-5.92
686.585	4.08
686.615	23.08
686.645	8.08
686.675	8.08
686.704	0.08
686.734	4.08
686.764	2.08
686.794	13.08
686.824	-3.92
686.853	1.08
686.883	14.08
686.913	8.08
686.943	-3.92
686.973	-6.92
687.002	8.08
687.032	4.08
687.062	-9.92
687.092	16.08
687.121	-0.92
687.151	3.08
687.181	6.08
687.211	21.08
687.24	14.08
687.27	1.08
687.3	-2.92
687.33	11.08
687.359	-11.92
687.389	-1.92
687.419	6.08
687.449	2.08
687.478	11.08
687.508	-4.92
687.538	5.08
687.568	2.08
687.597	-16.92
687.627	5.08
687.657	4.08
687.686	5.08
687.716	20.08
687.746	-15.92
687.776	-7.92
687.805	-6.92
687.835	-5.92
687.865	20.08
687.894	11.08
687.924	-2.92
687.954	14.08
687.983	17.08
688.013	-1.92
688.043	8.08
688.072	14.08
688.102	10.08
688.132	-2.92
688.161	5.08
688.191	17.08
688.221	16.08
688.25	-0.92
688.28	8.08
688.31	-1.92
688.339	6.08
688.369	-0.92
688.399	-8.92
688.428	-0.92
688.458	4.08
688.488	4.08
688.517	10.08
688.547	8.08
688.576	26.08
688.606	22.08
688.636	-8.92
688.665	9.08
688.695	-1.92
688.725	13.08
688.754	3.08
688.784	-1.92
688.813	8.08
688.843	23.08
688.873	-0.92
688.902	-3.92
688.932	-3.92
688.961	11.08
688.991	16.08
689.02	18.08
689.05	-2.92
689.08	13.08
689.109	15.08
689.139	-1.92
689.168	1.08
689.198	-5.92
689.227	-12.92
689.257	-1.92
689.287	14.08
689.316	0.08
689.346	-16.92
689.375	-5.92
689.405	11.08
689.434	1.08
689.464	-5.92
689.493	-19.92
689.523	0.08
689.552	-20.92
689.582	4.08
689.611	-4.92
689.641	6.08
689.67	-4.92
689.7	-3.92
689.73	20.08
689.759	6.08
689.789	15.08
689.818	11.08
689.848	5.08
689.877	8.08
689.906	-0.92
689.936	3.08
689.965	17.08
689.995	2.08
690.024	27.08
690.054	-4.92
690.083	10.08
690.113	-3.92
690.142	-12.92
690.172	1.08
690.201	5.08
690.231	7.08
690.26	24.08
690.29	-1.92
690.319	14.08
690.348	-2.92
690.378	13.08
690.407	7.08
690.437	15.08
690.466	9.08
690.496	-1.92
690.525	8.08
690.555	-1.92
690.584	7.08
690.613	-7.92
690.643	5.08
690.672	12.08
690.702	11.08
690.731	3.08
690.76	10.08
690.79	8.08
690.819	-3.92
690.849	0.08
690.878	-8.92
690.907	5.08
690.937	28.08
690.966	8.08
690.996	14.08
691.025	3.08
691.054	13.08
691.084	8.08
691.113	14.08
691.142	9.08
691.172	-0.92
691.201	10.08
691.23	1.08
691.26	-0.92
691.289	9.08
691.319	-17.92
691.348	-0.92
691.377	20.08
691.407	7.08
691.436	4.08
691.465	6.08
691.495	1.08
691.524	4.08
691.553	1.08
691.583	-2.92
691.612	16.08
691.641	14.08
691.67	8.08
691.7	8.08
691.729	-17.92
691.758	-10.92
691.788	4.08
691.817	8.08
691.846	7.08
691.876	7.08
691.905	-1.92
691.934	-10.92
691.963	7.08
691.993	-4.92
692.022	-22.92
692.051	-6.92
692.081	13.08
692.11	7.08
692.139	-3.92
692.168	17.08
692.198	18.08
692.227	7.08
692.256	-3.92
692.285	-4.92
692.315	-0.92
692.344	2.08
692.373	3.08
692.402	-8.92
692.432	-7.92
692.461	-6.92
692.49	-1.92
692.519	-3.92
692.548	7.08
692.578	11.08
692.607	4.08
692.636	4.08
692.665	12.08
692.694	5.08
692.724	8.08
692.753	5.08
692.782	14.08
692.811	-4.92
692.84	8.08
692.87	-2.92
692.899	-0.92
692.928	-11.92
692.957	-1.92
692.986	6.08
693.016	8.08
693.045	4.08
693.074	4.08
693.103	1.08
693.132	-4.92
693.161	3.08
693.191	-8.92
693.22	-11.92
693.249	4.08
693.278	11.08
693.307	10.08
693.336	-15.92
693.365	-9.92
693.395	2.08
693.424	0.08
693.453	20.08
693.482	13.08
693.511	12.08
693.54	8.08
693.569	4.08
693.598	6.08
693.628	5.08
693.657	10.08
693.686	19.08
693.715	7.08
693.744	22.08
693.773	26.08
693.802	9.08
693.831	-5.92
693.86	28.08
693.889	15.08
693.919	4.08
693.948	-17.92
693.977	-6.92
694.006	5.08
694.035	-4.92
694.064	0.08
694.093	8.08
694.122	-9.92
694.151	-3.92
694.18	2.08
694.209	15.08
694.238	-5.92
694.267	29.08
694.296	13.08
694.325	28.08
694.354	27.08
694.383	13.08
694.412	-9.92
694.441	1.08
694.471	-15.92
694.5	-6.92
694.529	-1.92
694.558	8.08
694.587	6.08
694.616	1.08
694.645	8.08
694.674	26.08
694.703	9.08
694.732	-3.92
694.761	1.08
694.79	31.08
694.819	2.08
694.848	7.08
694.877	18.08
694.906	28.08
694.935	10.08
694.963	17.08
694.992	-8.92
695.021	4.08
695.05	17.08
695.079	2.08
695.108	4.08
695.137	37.08
695.166	11.08
695.195	-12.92
695.224	12.08
695.253	7.08
695.282	-7.92
695.311	6.08
695.34	2.08
695.369	12.08
695.398	6.08
695.427	13.08
695.456	7.08
695.485	2.08
695.513	4.08
695.542	0.08
695.571	12.08
695.6	30.08
695.629	17.08
695.658	28.08
695.687	12.08
695.716	2.08
695.745	25.08
695.774	-3.92
695.802	13.08
695.831	9.08
695.86	-0.92
695.889	16.08
695.918	-2.92
695.947	-3.92
695.976	4.08
696.005	-2.92
696.033	8.08
696.062	9.08
696.091	-7.92
696.12	4.08
696.149	5.08
696.178	13.08
696.207	21.08
696.235	2.08
696.264	3.08
696.293	17.08
696.322	12.08
696.351	18.08
696.38	-1.92
696.408	14.08
696.437	-6.92
696.466	-5.92
696.495	11.08
696.524	9.08
696.553	-4.92
696.581	20.08
696.61	-2.92
696.639	-5.92
696.668	-5.92
696.697	-4.92
696.725	10.08
696.754	13.08
696.783	0.08
696.812	6.08
696.84	12.08
696.869	21.08
696.898	-10.92
696.927	4.08
696.956	9.08
696.984	-15.92
697.013	5.08
697.042	1.08
697.071	20.08
697.099	17.08
697.128	2.08
697.157	24.08
697.186	-8.92
697.214	17.08
697.243	14.08
697.272	11.08
697.301	9.08
697.329	13.08
697.358	11.08
697.387	31.08
697.415	5.08
697.444	3.08
697.473	12.08
697.502	0.08
697.53	3.08
697.559	-8.92
697.588	0.08
697.616	6.08
697.645	0.08
697.674	11.08
697.703	16.08
697.731	12.08
697.76	7.08
697.789	3.08
697.817	3.08
697.846	16.08
697.875	2.08
697.903	11.08
697.932	6.08
697.961	14.08
697.989	35.08
698.018	10.08
698.047	-17.92
698.075	7.08
698.104	0.08
698.133	1.08
698.161	-5.92
698.19	4.08
698.218	5.08
698.247	5.08
698.276	-0.92
698.304	10.08
698.333	22.08
698.362	-2.92
698.39	6.08
698.419	13.08
698.447	-0.92
698.476	2.08
698.505	6.08
698.533	2.08
698.562	5.08
698.591	-7.92
698.619	-6.92
698.648	13.08
698.676	1.08
698.705	-11.92
698.733	-9.92
698.762	3.08
698.791	12.08
698.819	5.08
698.848	6.08
698.876	19.08
698.905	-6.92
698.933	-11.92
698.962	-2.92
698.991	2.08
699.019	15.08
699.048	-4.92
699.076	14.08
699.105	-4.92
699.133	7.08
699.162	1.08
699.19	4.08
699.219	9.08
699.248	2.08
699.276	9.08
699.305	-8.92
699.333	7.08
699.362	-2.92
699.39	20.08
699.419	-7.92
699.447	4.08
699.476	18.08
699.504	3.08
699.533	20.08
699.561	-4.92
699.59	4.08
699.618	1.08
699.647	-6.92
699.675	17.08
699.704	7.08
699.732	11.08
699.761	11.08
699.789	1.08
699.818	-2.92
699.846	-7.92
699.874	-3.92
699.903	4.08
699.931	2.08
699.96	9.08
699.988	16.08
700.017	-4.92
700.045	-3.92
700.074	6.08
700.102	-10.92
700.13	11.08
700.159	2.08
700.187	4.08
700.216	-16.92
700.244	-9.92
700.273	5.08
700.301	-8.92
700.329	4.08
700.358	0.08
700.386	0.08
700.415	9.08
700.443	-1.92
700.472	0.08
700.5	8.08
700.528	8.08
700.557	-1.92
700.585	-5.92
700.614	10.08
700.642	1.08
700.67	17.08
700.699	21.08
700.727	3.08
700.755	1.08
700.784	3.08
700.812	-4.92
700.841	21.08
700.869	-0.92
700.897	-37.92
700.926	1.08
700.954	2.08
700.982	3.08
701.011	-1.92
701.039	8.08
701.067	9.08
701.096	14.08
701.124	0.08
701.152	17.08
701.181	-8.92
701.209	-13.92
701.237	-9.92
701.266	-19.92
701.294	3.08
701.322	7.08
701.351	11.08
701.379	11.08
701.407	-3.92
701.435	-4.92
701.464	14.08
701.492	12.08
701.52	13.08
701.549	10.08
701.577	8.08
701.605	1.08
701.634	-9.92
701.662	4.08
701.69	-8.92
701.718	4.08
701.747	16.08
701.775	-3.92
701.803	0.08
701.831	15.08
701.86	0.08
701.888	9.08
701.916	-5.92
701.944	1.08
701.973	-13.92
702.001	-7.92
702.029	5.08
702.057	6.08
702.086	18.08
702.114	8.08
702.142	7.08
702.17	-20.92
702.199	4.08
702.227	-0.92
702.255	7.08
702.283	0.08
702.311	9.08
702.34	6.08
702.368	-17.92
702.396	9.08
702.424	8.08
702.452	0.08
702.481	-10.92
702.509	-2.92
702.537	14.08
702.565	16.08
702.593	1.08
702.621	1.08
702.65	17.08
702.678	-3.92
702.706	7.08
702.734	-5.92
702.762	-2.92
702.79	8.08
702.819	11.08
702.847	11.08
702.875	14.08
702.903	19.08
702.931	-8.92
702.959	-3.92
702.988	-1.92
703.016	-18.92
703.044	3.08
703.072	8.08
703.1	10.08
703.128	-7.92
703.156	-1.92
703.184	2.08
703.212	4.08
703.241	-0.92
703.269	-4.92
703.297	4.08
703.325	11.08
703.353	-4.92
703.381	-10.92
703.409	1.08
703.437	-14.92
703.465	2.08
703.493	-24.92
703.522	1.08
703.55	-4.92
703.578	11.08
703.606	-16.92
703.634	-1.92
703.662	0.08
703.69	-1.92
703.718	8.08
703.746	13.08
703.774	4.08
703.802	8.08
703.83	1.08
703.858	9.08
703.886	5.08
703.914	-8.92
703.942	2.08
703.97	-1.92
703.998	4.08
704.027	17.08
704.055	22.08
704.083	7.08
704.111	-4.92
704.139	-5.92
704.167	-3.92
704.195	4.08
704.223	5.08
704.251	12.08
704.279	19.08
704.307	-4.92
704.335	-11.92
704.363	0.08
704.391	0.08
704.419	1.08
704.447	-11.92
704.475	-0.92
704.503	-1.92
704.531	2.08
704.558	6.08
704.586	2.08
704.614	-3.92
704.642	1.08
704.67	-3.92
704.698	-5.92
704.726	4.08
704.754	-2.92
704.782	0.08
704.81	-2.92
704.838	13.08
704.866	12.08
704.894	-18.92
704.922	3.08
704.95	29.08
704.978	6.08
705.006	12.08
705.034	19.08
705.061	-2.92
705.089	-0.92
705.117	2.08
705.145	7.08
705.173	-10.92
705.201	-3.92
705.229	24.08
705.257	3.08
705.285	0.08
705.313	3.08
705.34	-7.92
705.368	-14.92
705.396	3.08
705.424	11.08
705.452	-5.92
705.48	10.08
705.508	0.08
705.536	3.08
705.563	-4.92
705.591	5.08
705.619	14.08
705.647	-10.92
705.675	7.08
705.703	17.08
705.731	-4.92
705.758	4.08
705.786	-5.92
705.814	16.08
705.842	-7.92
705.87	19.08
705.898	11.08
705.925	-0.92
705.953	6.08
705.981	-8.92
706.009	4.08
706.037	-1.92
706.065	-8.92
706.092	-14.92
706.12	-11.92
706.148	-5.92
706.176	4.08
706.204	11.08
706.231	3.08
706.259	-16.92
706.287	-5.92
706.315	0.08
706.342	4.08
706.37	7.08
706.398	18.08
706.426	-2.92
706.454	1.08
706.481	25.08
706.509	-2.92
706.537	-2.92
706.565	-5.92
706.592	0.08
706.62	9.08
706.648	3.08
706.676	-5.92
706.703	8.08
706.731	9.08
706.759	-5.92
706.787	-4.92
706.814	0.08
706.842	-0.92
706.87	-3.92
706.897	-2.92
706.925	-0.92
706.953	11.08
706.981	11.08
707.008	11.08
707.036	8.08
707.064	13.08
707.091	-7.92
707.119	11.08
707.147	0.08
707.174	-3.92
707.202	10.08
707.23	-2.92
707.258	30.08
707.285	-8.92
707.313	-4.92
707.341	-9.92
707.368	-1.92
707.396	16.08
707.424	25.08
707.451	2.08
707.479	5.08
707.507	-4.92
707.534	0.08
707.562	-9.92
707.59	-16.92
707.617	-3.92
707.645	12.08
707.672	3.08
707.7	3.08
707.728	11.08
707.755	1.08
707.783	-9.92
707.811	15.08
707.838	-10.92
707.866	19.08
707.893	-0.92
707.921	-9.92
707.949	-6.92
707.976	15.08
708.004	5.08
708.031	-4.92
708.059	-7.92
708.087	1.08
708.114	-5.92
708.142	0.08
708.169	6.08
708.197	-12.92
708.225	-4.92
708.252	-6.92
708.28	13.08
708.307	11.08
708.335	3.08
708.362	-10.92
708.39	-8.92
708.418	8.08
708.445	-10.92
708.473	-12.92
708.5	-8.92
708.528	20.08
708.555	-2.92
708.583	-0.92
708.61	3.08
708.638	15.08
708.665	-11.92
708.693	-3.92
708.72	-16.92
708.748	-14.92
708.776	-3.92
708.803	15.08
708.831	19.08
708.858	20.08
708.886	2.08
708.913	4.08
708.941	7.08
708.968	17.08
708.996	-6.92
709.023	24.08
709.051	-4.92
709.078	-9.92
709.105	3.08
709.133	-6.92
709.16	0.08
709.188	3.08
709.215	-0.92
709.243	1.08
709.27	0.08
709.298	-16.92
709.325	-19.92
709.353	-3.92
709.38	4.08
709.408	8.08
709.435	0.08
709.462	-1.92
709.49	-5.92
709.517	6.08
709.545	5.08
709.572	-9.92
709.6	7.08
709.627	8.08
709.655	-3.92
709.682	0.08
709.709	4.08
709.737	-6.92
709.764	-17.92
709.792	0.08
709.819	-1.92
709.846	-11.92
709.874	9.08
709.901	32.08
709.929	29.08
709.956	12.08
709.983	-0.92
710.011	-9.92
710.038	1.08
710.066	-0.92
710.093	14.08
710.12	2.08
710.148	-7.92
710.175	-12.92
710.202	1.08
710.23	9.08
710.257	6.08
710.284	14.08
710.312	4.08
710.339	4.08
710.366	-14.92
710.394	3.08
710.421	0.08
710.448	17.08
710.476	-15.92
710.503	7.08
710.53	15.08
710.558	24.08
710.585	5.08
710.612	-5.92
710.64	0.08
710.667	-15.92
710.694	0.08
710.722	4.08
710.749	0.08
710.776	3.08
710.804	13.08
710.831	3.08
710.858	0.08
710.885	-3.92
710.913	5.08
710.94	13.08
710.967	13.08
710.995	15.08
711.022	-0.92
711.049	2.08
711.076	3.08
711.104	-2.92
711.131	-20.92
711.158	1.08
711.185	9.08
711.213	-7.92
711.24	-22.92
711.267	-20.92
711.294	-2.92
711.322	5.08
711.349	-1.92
711.376	-0.92
711.403	6.08
711.431	-12.92
711.458	2.08
711.485	-0.92
711.512	6.08
711.54	3.08
711.567	0.08
711.594	-1.92
711.621	0.08
711.648	0.08
711.676	-0.92
711.703	-16.92
711.73	-22.92
711.757	9.08
711.784	-7.92
711.812	-6.92
711.839	-4.92
711.866	-11.92
711.893	-12.92
711.92	-2.92
711.947	-2.92
711.975	17.08
712.002	9.08
712.029	3.08
712.056	-2.92
712.083	4.08
712.11	-20.92
712.138	-13.92
712.165	1.08
712.192	-7.92
712.219	-8.92
712.246	-5.92
712.273	1.08
712.3	11.08
712.328	1.08
712.355	-2.92
712.382	-0.92
712.409	19.08
712.436	-7.92
712.463	12.08
712.49	23.08
712.517	7.08
712.544	-5.92
712.572	0.08
712.599	-2.92
712.626	18.08
712.653	0.08
712.68	-11.92
712.707	8.08
712.734	-5.92
712.761	0.08
712.788	-8.92
712.815	5.08
712.842	-1.92
712.87	0.08
712.897	-14.92
712.924	-15.92
712.951	15.08
712.978	0.08
713.005	10.08
713.032	16.08
713.059	4.08
713.086	1.08
713.113	-30.92
713.14	-20.92
713.167	4.08
713.194	1.08
713.221	0.08
713.248	11.08
713.275	-10.92
713.302	-15.92
713.329	10.08
713.356	20.08
713.383	-0.92
713.41	14.08
713.437	-6.92
713.464	7.08
713.491	7.08
713.518	0.08
713.545	-1.92
713.572	2.08
713.599	27.08
713.626	8.08
713.653	8.08
713.68	-19.92
713.707	0.08
713.734	-1.92
713.761	-12.92
713.788	0.08
713.815	4.08
713.842	9.08
713.869	4.08
713.896	1.08
713.923	4.08
713.95	2.08
713.977	9.08
714.004	2.08
714.031	-12.92
714.058	-8.92
714.085	-14.92
714.112	12.08
714.139	2.08
714.165	8.08
714.192	-3.92
714.219	8.08
714.246	-2.92
714.273	-8.92
714.3	-5.92
714.327	-4.92
714.354	3.08
714.381	-2.92
714.408	-12.92
714.435	2.08
714.461	5.08
714.488	12.08
714.515	13.08
714.542	8.08
714.569	-5.92
714.596	-10.92
714.623	-14.92
714.65	-7.92
714.677	4.08
714.703	5.08
714.73	8.08
714.757	5.08
714.784	13.08
714.811	8.08
714.838	6.08
714.865	3.08
714.891	24.08
714.918	-6.92
714.945	-11.92
714.972	-6.92
714.999	-3.92
715.026	-0.92
715.052	24.08
715.079	-6.92
715.106	1.08
715.133	-9.92
715.16	7.08
715.187	11.08
715.213	16.08
715.24	8.08
715.267	3.08
715.294	3.08
715.321	-1.92
715.347	2.08
715.374	-23.92
715.401	-3.92
715.428	-2.92
715.455	-10.92
715.481	-4.92
715.508	8.08
715.535	5.08
715.562	25.08
715.588	-1.92
715.615	-2.92
715.642	3.08
715.669	8.08
715.695	-7.92
715.722	-18.92
715.749	6.08
715.776	4.08
715.802	15.08
715.829	5.08
715.856	2.08
715.883	15.08
715.909	-0.92
715.936	7.08
715.963	-1.92
715.99	-4.92
716.016	11.08
716.043	10.08
716.07	-25.92
716.096	-5.92
716.123	11.08
716.15	6.08
716.177	7.08
716.203	6.08
716.23	20.08
716.257	2.08
716.283	16.08
716.31	9.08
716.337	-12.92
716.363	-5.92
716.39	5.08
716.417	13.08
716.443	4.08
716.47	14.08
716.497	20.08
716.523	11.08
716.55	6.08
716.577	12.08
716.603	-3.92
716.63	2.08
716.657	18.08
716.683	10.08
716.71	-2.92
716.737	-4.92
716.763	-3.92
716.79	12.08
716.817	12.08
716.843	-0.92
716.87	-1.92
716.897	6.08
716.923	24.08
716.95	-0.92
716.976	-19.92
717.003	-10.92
717.03	4.08
717.056	7.08
717.083	11.08
717.109	-5.92
717.136	7.08
717.163	-0.92
717.189	8.08
717.216	-0.92
717.242	-2.92
717.269	0.08
717.296	1.08
717.322	-6.92
717.349	14.08
717.375	24.08
717.402	-20.92
717.428	-8.92
717.455	0.08
717.481	-5.92
717.508	3.08
717.535	1.08
717.561	-12.92
717.588	-3.92
717.614	5.08
717.641	25.08
717.667	7.08
717.694	15.08
717.72	8.08
717.747	-5.92
717.773	4.08
717.8	-1.92
717.826	-2.92
717.853	5.08
717.88	15.08
717.906	-1.92
717.933	5.08
717.959	3.08
717.986	2.08
718.012	-10.92
718.039	12.08
718.065	0.08
718.092	0.08
718.118	-10.92
718.144	-10.92
718.171	5.08
718.197	8.08
718.224	-1.92
718.25	3.08
718.277	-11.92
718.303	-0.92
718.33	13.08
718.356	1.08
718.383	-15.92
718.409	-1.92
718.436	6.08
718.462	-0.92
718.489	-7.92
718.515	3.08
718.541	14.08
718.568	5.08
718.594	1.08
718.621	-6.92
718.647	-2.92
718.674	25.08
718.7	2.08
718.726	-0.92
718.753	6.08
718.779	3.08
718.806	7.08
718.832	-0.92
718.858	8.08
718.885	-10.92
718.911	-12.92
718.938	10.08
718.964	-7.92
718.99	20.08
719.017	-0.92
719.043	0.08
719.07	25.08
719.096	1.08
719.122	5.08
719.149	-0.92
719.175	-0.92
719.201	-5.92
719.228	-4.92
719.254	-4.92
719.281	0.08
719.307	-0.92
719.333	-5.92
719.36	15.08
719.386	-9.92
719.412	-3.92
719.439	-1.92
719.465	0.08
719.491	-11.92
719.518	4.08
719.544	-2.92
719.57	4.08
719.597	5.08
719.623	1.08
719.649	12.08
719.675	6.08
719.702	-0.92
719.728	10.08
719.754	6.08
719.781	-2.92
719.807	-4.92
719.833	-12.92
719.86	7.08
719.886	-6.92
719.912	4.08
719.938	1.08
719.965	11.08
719.991	12.08
720.017	12.08
720.044	-0.92
720.07	-3.92
720.096	11.08
720.122	6.08
720.149	5.08
720.175	30.08
720.201	3.08
720.227	-4.92
720.254	-2.92
720.28	-6.92
720.306	-6.92
720.332	5.08
720.359	10.08
720.385	13.08
720.411	4.08
720.437	6.08
720.463	7.08
720.49	-0.92
720.516	-2.92
720.542	-8.92
720.568	1.08
720.595	3.08
720.621	-5.92
720.647	6.08
720.673	26.08
720.699	11.08
720.725	-0.92
720.752	8.08
720.778	17.08
720.804	4.08
720.83	11.08
720.856	5.08
720.883	-1.92
720.909	7.08
720.935	12.08
720.961	26.08
720.987	3.08
721.013	-0.92
721.04	3.08
721.066	-6.92
721.092	3.08
721.118	23.08
721.144	0.08
721.17	-11.92
721.196	-5.92
721.223	1.08
721.249	-2.92
721.275	18.08
721.301	0.08
721.327	-11.92
721.353	1.08
721.379	0.08
721.405	0.08
721.432	13.08
721.458	-5.92
721.484	9.08
721.51	-6.92
721.536	15.08
721.562	-3.92
721.588	0.08
721.614	0.08
721.64	-4.92
721.666	-3.92
721.693	-0.92
721.719	4.08
721.745	-9.92
721.771	-2.92
721.797	12.08
721.823	6.08
721.849	20.08
721.875	13.08
721.901	15.08
721.927	-3.92
721.953	17.08
721.979	18.08
722.005	18.08
722.031	-3.92
722.057	12.08
722.083	4.08
722.109	1.08
722.135	1.08
722.161	-0.92
722.187	-7.92
722.214	-11.92
722.24	-4.92
722.266	-14.92
722.292	4.08
722.318	0.08
722.344	9.08
722.37	14.08
722.396	18.08
722.422	-1.92
722.448	0.08
722.474	-19.92
722.5	-0.92
722.526	0.08
722.552	-4.92
722.578	-11.92
722.603	6.08
722.629	-8.92
722.655	13.08
722.681	-8.92
722.707	-4.92
722.733	-10.92
722.759	-10.92
722.785	0.08
722.811	5.08
722.837	8.08
722.863	3.08
722.889	-3.92
722.915	-0.92
722.941	7.08
722.967	-5.92
722.993	4.08
723.019	1.08
723.045	10.08
723.071	3.08
723.097	-0.92
723.122	8.08
723.148	-4.92
723.174	4.08
723.2	1.08
723.226	-0.92
723.252	10.08
723.278	-5.92
723.304	-9.92
723.33	5.08
723.356	0.08
723.381	-11.92
723.407	-2.92
723.433	2.08
723.459	-10.92
723.485	3.08
723.511	19.08
723.537	-4.92
723.563	-2.92
723.588	-2.92
723.614	8.08
723.64	-9.92
723.666	-1.92
723.692	24.08
723.718	0.08
723.744	0.08
723.769	3.08
723.795	6.08
723.821	7.08
723.847	4.08
723.873	5.08
723.899	8.08
723.924	3.08
723.95	-2.92
723.976	-9.92
724.002	-1.92
724.028	1.08
724.053	-9.92
724.079	-2.92
724.105	5.08
724.131	3.08
724.157	7.08
724.182	0.08
724.208	-8.92
724.234	3.08
724.26	-5.92
724.286	5.08
724.311	-5.92
724.337	4.08
724.363	-15.92
724.389	1.08
724.415	6.08
724.44	11.08
724.466	-1.92
724.492	-4.92
724.518	9.08
724.543	-6.92
724.569	0.08
724.595	9.08
724.621	-7.92
724.646	-5.92
724.672	-17.92
724.698	1.08
724.723	-4.92
724.749	-7.92
724.775	8.08
724.801	16.08
724.826	-9.92
724.852	-3.92
724.878	-8.92
724.904	-9.92
724.929	-1.92
724.955	-15.92
724.981	-4.92
725.006	-3.92
725.032	-7.92
725.058	12.08
725.083	4.08
725.109	11.08
725.135	-3.92
725.161	8.08
725.186	-2.92
725.212	0.08
725.238	13.08
725.263	4.08
725.289	-2.92
725.315	-21.92
725.34	0.08
725.366	2.08
725.392	0.08
725.417	-0.92
725.443	10.08
725.468	18.08
725.494	4.08
725.52	21.08
725.545	-3.92
725.571	-3.92
725.597	-11.92
725.622	1.08
725.648	4.08
725.674	20.08
725.699	5.08
725.725	-12.92
725.75	23.08
725.776	-6.92
725.802	4.08
725.827	6.08
725.853	14.08
725.878	5.08
725.904	-3.92
725.93	-7.92
725.955	-8.92
725.981	-8.92
726.006	0.08
726.032	-4.92
726.057	-7.92
726.083	9.08
726.109	0.08
726.134	9.08
726.16	-4.92
726.185	-8.92
726.211	-1.92
726.236	16.08
726.262	22.08
726.288	20.08
726.313	5.08
726.339	5.08
726.364	12.08
726.39	12.08
726.415	15.08
726.441	7.08
726.466	2.08
726.492	3.08
726.517	19.08
726.543	9.08
726.568	-16.92
726.594	2.08
726.619	8.08
726.645	-1.92
726.67	18.08
726.696	7.08
726.721	13.08
726.747	-14.92
726.772	-4.92
726.798	-3.92
726.823	7.08
726.849	3.08
726.874	4.08
726.9	15.08
726.925	7.08
726.951	2.08
726.976	-0.92
727.002	-8.92
727.027	12.08
727.053	4.08
727.078	11.08
727.104	5.08
727.129	-0.92
727.155	3.08
727.18	17.08
727.205	0.08
727.231	-5.92
727.256	-7.92
727.282	20.08
727.307	17.08
727.333	-12.92
727.358	-10.92
727.383	5.08
727.409	-3.92
727.434	15.08
727.46	3.08
727.485	-2.92
727.511	-6.92
727.536	-19.92
727.561	-21.92
727.587	-6.92
727.612	8.08
727.637	5.08
727.663	0.08
727.688	7.08
727.714	11.08
727.739	0.08
727.764	10.08
727.79	6.08
727.815	11.08
727.841	-0.92
727.866	-0.92
727.891	8.08
727.917	-5.92
727.942	-12.92
727.967	-10.92
727.993	-16.92
728.018	-0.92
728.043	6.08
728.069	5.08
728.094	15.08
728.119	8.08
728.145	16.08
728.17	2.08
728.195	17.08
728.221	7.08
728.246	9.08
728.271	-12.92
728.297	-4.92
728.322	-1.92
728.347	12.08
728.373	0.08
728.398	9.08
728.423	-6.92
728.448	2.08
728.474	-0.92
728.499	4.08
728.524	-5.92
728.55	-1.92
728.575	-2.92
728.6	-2.92
728.625	3.08
728.651	4.08
728.676	-2.92
728.701	-7.92
728.727	-3.92
728.752	-8.92
728.777	-2.92
728.802	-0.92
728.828	19.08
728.853	12.08
728.878	1.08
728.903	-5.92
728.929	-7.92
728.954	1.08
728.979	16.08
729.004	8.08
729.03	6.08
729.055	15.08
729.08	-4.92
729.105	-6.92
729.13	1.08
729.156	14.08
729.181	7.08
729.206	-5.92
729.231	-6.92
729.256	13.08
729.282	-3.92
729.307	-22.92
729.332	-8.92
729.357	-2.92
729.382	-8.92
729.408	2.08
729.433	12.08
729.458	22.08
729.483	5.08
729.508	16.08
729.533	21.08
729.559	0.08
729.584	1.08
729.609	-1.92
729.634	3.08
729.659	8.08
729.684	-2.92
729.71	12.08
729.735	0.08
729.76	-1.92
729.785	11.08
729.81	11.08
729.835	-4.92
729.86	-20.92
729.886	14.08
729.911	9.08
729.936	3.08
729.961	8.08
729.986	-12.92
730.011	-5.92
730.036	-1.92
730.061	4.08
730.086	12.08
730.112	5.08
730.137	12.08
730.162	-1.92
730.187	-17.92
730.212	3.08
730.237	1.08
730.262	-8.92
730.287	-13.92
730.312	10.08
730.337	2.08
730.362	17.08
730.387	3.08
730.413	-11.92
730.438	1.08
730.463	6.08
730.488	-3.92
730.513	10.08
730.538	1.08
730.563	23.08
730.588	36.08
730.613	9.08
730.638	8.08
730.663	-7.92
730.688	13.08
730.713	5.08
730.738	-0.92
730.763	5.08
730.788	-18.92
730.813	9.08
730.838	15.08
730.863	9.08
730.888	6.08
730.913	-9.92
730.938	-15.92
730.963	-3.92
730.988	-11.92
731.013	18.08
731.038	-3.92
731.063	-1.92
731.088	7.08
731.113	-2.92
731.138	-11.92
731.163	-0.92
731.188	5.08
731.213	6.08
731.238	2.08
731.263	0.08
731.288	0.08
731.313	0.08
731.338	10.08
731.363	2.08
731.388	6.08
731.413	19.08
731.438	29.08
731.463	4.08
731.487	4.08
731.512	-10.92
731.537	0.08
731.562	8.08
731.587	-11.92
731.612	-0.92
731.637	6.08
731.662	-6.92
731.687	2.08
731.712	0.08
731.737	3.08
731.762	-4.92
731.786	4.08
731.811	7.08
731.836	-12.92
731.861	-6.92
731.886	4.08
731.911	6.08
731.936	20.08
731.961	7.08
731.986	5.08
732.01	15.08
732.035	7.08
732.06	20.08
732.085	4.08
732.11	6.08
732.135	-18.92
732.16	0.08
732.184	7.08
732.209	4.08
732.234	8.08
732.259	1.08
732.284	28.08
732.309	1.08
732.334	-5.92
732.358	-17.92
732.383	-2.92
732.408	-3.92
732.433	7.08
732.458	-8.92
732.482	-6.92
732.507	-3.92
732.532	14.08
732.557	24.08
732.582	9.08
732.607	-10.92
732.631	-20.92
732.656	-1.92
732.681	18.08
732.706	11.08
732.73	7.08
732.755	-6.92
732.78	5.08
732.805	11.08
732.83	-5.92
732.854	-1.92
732.879	11.08
732.904	0.08
732.929	-3.92
732.953	5.08
732.978	-8.92
733.003	-12.92
733.028	-15.92
733.052	0.08
733.077	0.08
733.102	9.08
733.127	-0.92
733.151	-1.92
733.176	16.08
733.201	5.08
733.226	1.08
733.25	-1.92
733.275	3.08
733.3	0.08
733.324	15.08
733.349	13.08
733.374	13.08
733.399	4.08
733.423	-9.92
733.448	-14.92
733.473	-4.92
733.497	-14.92
733.522	-2.92
733.547	7.08
733.571	21.08
733.596	-0.92
733.621	5.08
733.646	-3.92
733.67	2.08
733.695	-5.92
733.72	13.08
733.744	8.08
733.769	8.08
733.794	-2.92
733.818	2.08
733.843	-26.92
733.867	0.08
733.892	1.08
733.917	15.08
733.941	3.08
733.966	-4.92
733.991	-8.92
734.015	5.08
734.04	3.08
734.065	7.08
734.089	20.08
734.114	11.08
734.138	19.08
734.163	-6.92
734.188	19.08
734.212	17.08
734.237	25.08
734.261	12.08
734.286	4.08
734.311	5.08
734.335	8.08
734.36	-5.92
734.384	13.08
734.409	8.08
734.434	-0.92
734.458	21.08
734.483	12.08
734.507	6.08
734.532	0.08
734.556	8.08
734.581	-11.92
734.606	-9.92
734.63	0.08
734.655	14.08
734.679	-1.92
734.704	4.08
734.728	8.08
734.753	-0.92
734.777	-8.92
734.802	-10.92
734.826	4.08
734.851	1.08
734.876	6.08
734.9	-6.92
734.925	-6.92
734.949	7.08
734.974	19.08
734.998	18.08
735.023	-6.92
735.047	-16.92
735.072	24.08
735.096	17.08
735.121	17.08
735.145	9.08
735.17	7.08
735.194	1.08
735.219	9.08
735.243	9.08
735.268	15.08
735.292	7.08
735.317	6.08
735.341	-0.92
735.365	-7.92
735.39	-2.92
735.414	11.08
735.439	5.08
735.463	7.08
735.488	5.08
735.512	8.08
735.537	21.08
735.561	5.08
735.586	-4.92
735.61	-1.92
735.634	-2.92
735.659	7.08
735.683	8.08
735.708	6.08
735.732	4.08
735.757	-3.92
735.781	10.08
735.805	1.08
735.83	0.08
735.854	3.08
735.879	3.08
735.903	21.08
735.927	17.08
735.952	20.08
735.976	14.08
736.001	16.08
736.025	1.08
736.049	-5.92
736.074	12.08
736.098	-0.92
736.123	3.08
736.147	-1.92
736.171	6.08
736.196	15.08
736.22	-2.92
736.244	-2.92
736.269	8.08
736.293	-1.92
736.317	0.08
736.342	0.08
736.366	7.08
736.39	3.08
736.415	15.08
736.439	6.08
736.463	13.08
736.488	9.08
736.512	15.08
736.536	5.08
736.561	15.08
736.585	10.08
736.609	-0.92
736.634	-7.92
736.658	-15.92
736.682	-7.92
736.707	2.08
736.731	-3.92
736.755	-2.92
736.78	14.08
736.804	10.08
736.828	3.08
736.852	0.08
736.877	3.08
736.901	-2.92
736.925	-3.92
736.949	8.08
736.974	-15.92
736.998	-15.92
737.022	11.08
737.047	-4.92
737.071	-0.92
737.095	2.08
737.119	20.08
737.144	3.08
737.168	-16.92
737.192	-0.92
737.216	9.08
737.241	-8.92
737.265	8.08
737.289	-2.92
737.313	-1.92
737.337	-12.92
737.362	-0.92
737.386	12.08
737.41	-3.92
737.434	9.08
737.459	1.08
737.483	15.08
737.507	10.08
737.531	12.08
737.555	10.08
737.58	22.08
737.604	12.08
737.628	-3.92
737.652	1.08
737.676	-17.92
737.701	-2.92
737.725	9.08
737.749	-1.92
737.773	9.08
737.797	4.08
737.821	1.08
737.846	-7.92
737.87	16.08
737.894	-1.92
737.918	3.08
737.942	3.08
737.966	15.08
737.99	4.08
738.015	3.08
738.039	11.08
738.063	0.08
738.087	15.08
738.111	-1.92
738.135	20.08
738.159	13.08
738.184	-4.92
738.208	3.08
738.232	-7.92
738.256	11.08
738.28	14.08
738.304	6.08
738.328	-4.92
738.352	17.08
738.376	-0.92
738.4	8.08
738.425	12.08
738.449	-6.92
738.473	10.08
738.497	7.08
738.521	3.08
738.545	23.08
738.569	9.08
738.593	11.08
738.617	3.08
738.641	7.08
738.665	12.08
738.689	1.08
738.713	-6.92
738.737	2.08
738.762	18.08
738.786	14.08
738.81	-15.92
738.834	9.08
738.858	-10.92
738.882	-7.92
738.906	-7.92
738.93	14.08
738.954	11.08
738.978	1.08
739.002	-1.92
739.026	12.08
739.05	13.08
739.074	3.08
739.098	13.08
739.122	11.08
739.146	11.08
739.17	11.08
739.194	16.08
739.218	-10.92
739.242	2.08
739.266	-0.92
739.29	16.08
739.314	13.08
739.338	10.08
739.362	6.08
739.386	12.08
739.41	0.08
739.434	-4.92
739.458	18.08
739.482	7.08
739.506	1.08
739.53	5.08
739.554	21.08
739.577	2.08
739.601	26.08
739.625	9.08
739.649	11.08
739.673	2.08
739.697	12.08
739.721	8.08
739.745	7.08
739.769	4.08
739.793	8.08
739.817	12.08
739.841	-7.92
739.865	3.08
739.889	-6.92
739.912	-0.92
739.936	1.08
739.96	-0.92
739.984	20.08
740.008	-3.92
740.032	-12.92
740.056	1.08
740.08	6.08
740.104	-3.92
740.127	2.08
740.151	3.08
740.175	18.08
740.199	1.08
740.223	39.08
740.247	15.08
740.271	11.08
740.295	-4.92
740.318	0.08
740.342	-15.92
740.366	0.08
740.39	18.08
740.414	-6.92
740.438	7.08
740.461	27.08
740.485	5.08
740.509	2.08
740.533	3.08
740.557	6.08
740.581	-1.92
740.604	7.08
740.628	0.08
740.652	6.08
740.676	7.08
740.7	17.08
740.723	-4.92
740.747	-10.92
740.771	5.08
740.795	-9.92
740.819	-1.92
740.842	0.08
740.866	15.08
740.89	9.08
740.914	14.08
740.938	-8.92
740.961	-4.92
740.985	1.08
741.009	3.08
741.033	19.08
741.056	10.08
741.08	4.08
741.104	9.08
741.128	-8.92
741.151	18.08
741.175	12.08
741.199	8.08
741.223	0.08
741.246	-5.92
741.27	8.08
741.294	10.08
741.318	-10.92
741.341	-10.92
741.365	0.08
741.389	0.08
741.413	20.08
741.436	15.08
741.46	14.08
741.484	28.08
741.507	-12.92
741.531	13.08
741.555	12.08
741.579	14.08
741.602	0.08
741.626	16.08
741.65	13.08
741.673	-1.92
741.697	8.08
741.721	3.08
741.744	-8.92
741.768	-2.92
741.792	-5.92
741.815	1.08
741.839	27.08
741.863	17.08
741.886	11.08
741.91	5.08
741.934	17.08
741.957	-24.92
741.981	11.08
742.005	6.08
742.028	-5.92
742.052	-8.92
742.075	7.08
742.099	21.08
742.123	5.08
742.146	1.08
742.17	-12.92
742.194	-9.92
742.217	-2.92
742.241	5.08
742.264	14.08
742.288	17.08
742.312	-3.92
742.335	2.08
742.359	-3.92
742.382	9.08
742.406	24.08
742.43	-2.92
742.453	-4.92
742.477	-4.92
742.5	-13.92
742.524	-3.92
742.548	-8.92
742.571	-3.92
742.595	-0.92
742.618	-15.92
742.642	-2.92
742.665	15.08
742.689	-0.92
742.712	14.08
742.736	-0.92
742.76	4.08
742.783	-6.92
742.807	7.08
742.83	0.08
742.854	-5.92
742.877	12.08
742.901	-9.92
742.924	-4.92
742.948	-3.92
742.971	11.08
742.995	-2.92
743.018	-16.92
743.042	-0.92
743.065	-7.92
743.089	-0.92
743.112	8.08
743.136	1.08
743.159	6.08
743.183	-0.92
743.206	-19.92
743.23	-19.92
743.253	-12.92
743.277	-1.92
743.3	5.08
743.324	-2.92
743.347	-12.92
743.371	5.08
743.394	-5.92
743.418	6.08
743.441	13.08
743.465	5.08
743.488	-2.92
743.512	-16.92
743.535	4.08
743.558	-6.92
743.582	15.08
743.605	0.08
743.629	5.08
743.652	19.08
743.676	3.08
743.699	1.08
743.723	-5.92
743.746	6.08
743.769	1.08
743.793	8.08
743.816	0.08
743.84	10.08
743.863	0.08
743.886	-2.92
743.91	9.08
743.933	0.08
743.957	5.08
743.98	-12.92
744.003	3.08
744.027	6.08
744.05	-2.92
744.074	11.08
744.097	-6.92
744.12	3.08
744.144	-7.92
744.167	0.08
744.19	-4.92
744.214	-10.92
744.237	-3.92
744.26	12.08
744.284	11.08
744.307	5.08
744.331	6.08
744.354	-6.92
744.377	-0.92
744.401	1.08
744.424	0.08
744.447	-15.92
744.471	3.08
