Data from HighRes_H2D2_15_04_11_07_2024_HR4C61891__94__15-05-43-842.txt Node

Date: Thu Nov 07 15:05:43 EST 2024
User: crc00042
Spectrometer: HR4C6189
Trigger mode: 4
Integration Time (sec): 1.000000E-1
Scans to average: 1
Electric dark correction enabled: true
Nonlinearity correction enabled: false
Boxcar width: 0
XAxis mode: Wavelengths
Number of Pixels in Spectrum: 3648
>>>>>Begin Spectral Data<<<<<
639.567	-92.92
639.602	-92.92
639.636	-92.92
639.67	-40.92
639.704	-31.92
639.738	-13.92
639.773	9.08
639.807	-23.92
639.841	-2.92
639.875	1.08
639.909	2.08
639.943	6.08
639.978	0.08
640.012	4.08
640.046	5.08
640.08	15.08
640.114	5.08
640.148	-6.92
640.182	-0.92
640.217	11.08
640.251	12.08
640.285	6.08
640.319	-19.92
640.353	-3.92
640.387	-23.92
640.421	-4.92
640.455	-11.92
640.49	-10.92
640.524	3.08
640.558	12.08
640.592	2.08
640.626	-6.92
640.66	-2.92
640.694	-23.92
640.728	10.08
640.762	7.08
640.796	11.08
640.83	7.08
640.865	0.08
640.899	7.08
640.933	1.08
640.967	-11.92
641.001	5.08
641.035	-2.92
641.069	-3.92
641.103	-11.92
641.137	-16.92
641.171	-16.92
641.205	4.08
641.239	-4.92
641.273	17.08
641.307	7.08
641.341	10.08
641.375	-6.92
641.409	-5.92
641.443	16.08
641.477	3.08
641.511	10.08
641.545	1.08
641.579	-2.92
641.614	-1.92
641.648	9.08
641.682	-4.92
641.716	18.08
641.75	13.08
641.784	4.08
641.818	5.08
641.852	0.08
641.886	-6.92
641.919	13.08
641.953	0.08
641.987	-18.92
642.021	-11.92
642.055	-0.92
642.089	-5.92
642.123	-12.92
642.157	-16.92
642.191	0.08
642.225	-0.92
642.259	-11.92
642.293	3.08
642.327	9.08
642.361	6.08
642.395	0.08
642.429	16.08
642.463	3.08
642.497	15.08
642.531	-1.92
642.565	-4.92
642.599	20.08
642.633	-4.92
642.666	5.08
642.7	-11.92
642.734	3.08
642.768	-15.92
642.802	-0.92
642.836	6.08
642.87	-12.92
642.904	-2.92
642.938	-1.92
642.972	11.08
643.005	5.08
643.039	16.08
643.073	-1.92
643.107	-2.92
643.141	-0.92
643.175	-5.92
643.209	-9.92
643.243	7.08
643.276	-3.92
643.31	0.08
643.344	-1.92
643.378	-1.92
643.412	-9.92
643.446	-0.92
643.48	-16.92
643.513	14.08
643.547	2.08
643.581	-9.92
643.615	13.08
643.649	-1.92
643.683	-3.92
643.716	-17.92
643.75	-13.92
643.784	-10.92
643.818	-4.92
643.852	7.08
643.886	2.08
643.919	8.08
643.953	0.08
643.987	16.08
644.021	27.08
644.055	-1.92
644.088	0.08
644.122	-5.92
644.156	-7.92
644.19	11.08
644.224	7.08
644.257	4.08
644.291	13.08
644.325	-17.92
644.359	-26.92
644.392	22.08
644.426	14.08
644.46	6.08
644.494	-1.92
644.527	-11.92
644.561	-4.92
644.595	-0.92
644.629	-11.92
644.662	0.08
644.696	3.08
644.73	-8.92
644.764	6.08
644.797	10.08
644.831	5.08
644.865	14.08
644.899	2.08
644.932	21.08
644.966	8.08
645	9.08
645.033	6.08
645.067	-5.92
645.101	2.08
645.135	7.08
645.168	4.08
645.202	-11.92
645.236	-8.92
645.269	12.08
645.303	-1.92
645.337	-22.92
645.37	-2.92
645.404	-0.92
645.438	-0.92
645.471	-3.92
645.505	12.08
645.539	11.08
645.572	-9.92
645.606	-2.92
645.64	4.08
645.673	10.08
645.707	33.08
645.741	4.08
645.774	-8.92
645.808	10.08
645.842	-6.92
645.875	19.08
645.909	4.08
645.943	2.08
645.976	3.08
646.01	18.08
646.043	15.08
646.077	18.08
646.111	13.08
646.144	9.08
646.178	-0.92
646.212	-18.92
646.245	7.08
646.279	-0.92
646.312	10.08
646.346	11.08
646.38	-1.92
646.413	-1.92
646.447	14.08
646.48	2.08
646.514	8.08
646.547	-19.92
646.581	8.08
646.615	-11.92
646.648	3.08
646.682	6.08
646.715	-4.92
646.749	-2.92
646.782	-5.92
646.816	-5.92
646.85	8.08
646.883	-15.92
646.917	6.08
646.95	11.08
646.984	5.08
647.017	0.08
647.051	7.08
647.084	4.08
647.118	-7.92
647.151	-16.92
647.185	-1.92
647.218	-13.92
647.252	-3.92
647.285	-3.92
647.319	-6.92
647.353	-5.92
647.386	22.08
647.42	9.08
647.453	-10.92
647.487	-0.92
647.52	-1.92
647.553	14.08
647.587	-6.92
647.62	-8.92
647.654	5.08
647.687	-8.92
647.721	16.08
647.754	-7.92
647.788	-5.92
647.821	-8.92
647.855	-1.92
647.888	15.08
647.922	24.08
647.955	5.08
647.989	9.08
648.022	-0.92
648.055	-0.92
648.089	-7.92
648.122	22.08
648.156	6.08
648.189	-3.92
648.223	-0.92
648.256	-6.92
648.29	13.08
648.323	-7.92
648.356	20.08
648.39	10.08
648.423	15.08
648.457	5.08
648.49	8.08
648.523	5.08
648.557	-1.92
648.59	-10.92
648.624	7.08
648.657	9.08
648.69	0.08
648.724	8.08
648.757	9.08
648.791	-1.92
648.824	4.08
648.857	14.08
648.891	4.08
648.924	-2.92
648.957	17.08
648.991	-9.92
649.024	16.08
649.057	0.08
649.091	0.08
649.124	16.08
649.158	14.08
649.191	14.08
649.224	-5.92
649.258	8.08
649.291	-3.92
649.324	-3.92
649.358	1.08
649.391	-1.92
649.424	0.08
649.458	-3.92
649.491	15.08
649.524	-9.92
649.557	-25.92
649.591	-16.92
649.624	12.08
649.657	-18.92
649.691	-2.92
649.724	8.08
649.757	-6.92
649.791	3.08
649.824	8.08
649.857	16.08
649.89	12.08
649.924	2.08
649.957	-9.92
649.99	-6.92
650.023	7.08
650.057	6.08
650.09	10.08
650.123	-4.92
650.157	13.08
650.19	16.08
650.223	0.08
650.256	1.08
650.29	-1.92
650.323	-2.92
650.356	-0.92
650.389	3.08
650.423	-1.92
650.456	-0.92
650.489	-5.92
650.522	-4.92
650.555	5.08
650.589	20.08
650.622	15.08
650.655	10.08
650.688	-0.92
650.721	6.08
650.755	-3.92
650.788	-1.92
650.821	-5.92
650.854	-1.92
650.887	2.08
650.921	5.08
650.954	-3.92
650.987	9.08
651.02	-3.92
651.053	-5.92
651.087	-9.92
651.12	37.08
651.153	6.08
651.186	2.08
651.219	-24.92
651.252	7.08
651.286	5.08
651.319	5.08
651.352	-4.92
651.385	7.08
651.418	3.08
651.451	20.08
651.484	18.08
651.518	-4.92
651.551	19.08
651.584	-3.92
651.617	20.08
651.65	13.08
651.683	6.08
651.716	4.08
651.749	-5.92
651.783	6.08
651.816	5.08
651.849	5.08
651.882	11.08
651.915	-3.92
651.948	0.08
651.981	-8.92
652.014	-4.92
652.047	-4.92
652.08	-0.92
652.114	-9.92
652.147	4.08
652.18	21.08
652.213	31.08
652.246	-4.92
652.279	-7.92
652.312	10.08
652.345	5.08
652.378	14.08
652.411	13.08
652.444	3.08
652.477	5.08
652.51	7.08
652.543	-15.92
652.576	0.08
652.609	-5.92
652.642	-8.92
652.675	19.08
652.709	8.08
652.742	7.08
652.775	9.08
652.808	6.08
652.841	10.08
652.874	11.08
652.907	19.08
652.94	-10.92
652.973	-4.92
653.006	22.08
653.039	13.08
653.072	9.08
653.105	-9.92
653.138	-14.92
653.171	-2.92
653.204	-9.92
653.237	6.08
653.27	0.08
653.303	16.08
653.336	6.08
653.368	-2.92
653.401	16.08
653.434	-5.92
653.467	8.08
653.5	-1.92
653.533	9.08
653.566	-5.92
653.599	1.08
653.632	-1.92
653.665	-2.92
653.698	-2.92
653.731	-0.92
653.764	19.08
653.797	1.08
653.83	7.08
653.863	-9.92
653.896	-6.92
653.929	10.08
653.961	22.08
653.994	4.08
654.027	-22.92
654.06	-7.92
654.093	5.08
654.126	17.08
654.159	-5.92
654.192	4.08
654.225	-6.92
654.258	-12.92
654.29	9.08
654.323	-6.92
654.356	-8.92
654.389	5.08
654.422	9.08
654.455	0.08
654.488	5.08
654.521	-21.92
654.553	-6.92
654.586	-0.92
654.619	-10.92
654.652	-8.92
654.685	10.08
654.718	6.08
654.751	20.08
654.783	5.08
654.816	15.08
654.849	-4.92
654.882	-17.92
654.915	-11.92
654.948	4.08
654.98	4.08
655.013	5.08
655.046	-17.92
655.079	-5.92
655.112	10.08
655.144	0.08
655.177	16.08
655.21	27.08
655.243	11.08
655.276	4.08
655.308	-2.92
655.341	-0.92
655.374	16.08
655.407	-3.92
655.44	-6.92
655.472	20.08
655.505	16.08
655.538	2.08
655.571	17.08
655.603	4.08
655.636	9.08
655.669	-3.92
655.702	4.08
655.734	-4.92
655.767	4.08
655.8	0.08
655.833	16.08
655.865	17.08
655.898	10.08
655.931	17.08
655.964	9.08
655.996	12.08
656.029	45.08
656.062	40.08
656.095	48.08
656.127	81.08
656.16	222.08
656.193	636.08
656.225	934.08
656.258	538.08
656.291	214.08
656.324	168.08
656.356	374.08
656.389	756.08
656.422	701.08
656.454	235.08
656.487	70.08
656.52	21.08
656.552	22.08
656.585	11.08
656.618	15.08
656.65	15.08
656.683	5.08
656.716	18.08
656.748	6.08
656.781	-1.92
656.814	-14.92
656.846	-1.92
656.879	-12.92
656.912	-2.92
656.944	-1.92
656.977	-7.92
657.01	1.08
657.042	26.08
657.075	5.08
657.108	13.08
657.14	12.08
657.173	9.08
657.205	30.08
657.238	5.08
657.271	12.08
657.303	23.08
657.336	-1.92
657.369	12.08
657.401	-7.92
657.434	-4.92
657.466	9.08
657.499	-11.92
657.532	4.08
657.564	28.08
657.597	1.08
657.629	3.08
657.662	-2.92
657.694	-4.92
657.727	-21.92
657.76	4.08
657.792	0.08
657.825	4.08
657.857	3.08
657.89	-3.92
657.922	-8.92
657.955	-20.92
657.987	-4.92
658.02	19.08
658.053	13.08
658.085	6.08
658.118	4.08
658.15	13.08
658.183	27.08
658.215	-8.92
658.248	-8.92
658.28	-8.92
658.313	7.08
658.345	12.08
658.378	-7.92
658.41	8.08
658.443	13.08
658.475	-2.92
658.508	-6.92
658.54	-6.92
658.573	-11.92
658.605	-0.92
658.638	-0.92
658.67	3.08
658.703	-2.92
658.735	-14.92
658.768	1.08
658.8	-4.92
658.833	25.08
658.865	5.08
658.898	6.08
658.93	-7.92
658.963	11.08
658.995	-2.92
659.028	-4.92
659.06	-10.92
659.092	1.08
659.125	-3.92
659.157	8.08
659.19	-11.92
659.222	-10.92
659.255	-19.92
659.287	12.08
659.32	6.08
659.352	11.08
659.384	7.08
659.417	10.08
659.449	2.08
659.482	10.08
659.514	-13.92
659.546	-7.92
659.579	-12.92
659.611	-17.92
659.644	-2.92
659.676	-9.92
659.708	-21.92
659.741	-7.92
659.773	-3.92
659.806	-4.92
659.838	12.08
659.87	2.08
659.903	-22.92
659.935	6.08
659.967	6.08
660	2.08
660.032	-20.92
660.065	12.08
660.097	5.08
660.129	-3.92
660.162	-20.92
660.194	13.08
660.226	0.08
660.259	4.08
660.291	-20.92
660.323	-21.92
660.356	-6.92
660.388	-11.92
660.42	-3.92
660.453	-6.92
660.485	7.08
660.517	18.08
660.55	8.08
660.582	-3.92
660.614	5.08
660.647	-4.92
660.679	-8.92
660.711	7.08
660.743	-14.92
660.776	-14.92
660.808	-10.92
660.84	-19.92
660.873	4.08
660.905	-4.92
660.937	-0.92
660.969	-4.92
661.002	8.08
661.034	23.08
661.066	5.08
661.099	0.08
661.131	9.08
661.163	26.08
661.195	1.08
661.228	18.08
661.26	-5.92
661.292	-3.92
661.324	4.08
661.357	3.08
661.389	-4.92
661.421	12.08
661.453	8.08
661.485	16.08
661.518	12.08
661.55	-18.92
661.582	-17.92
661.614	8.08
661.647	0.08
661.679	18.08
661.711	3.08
661.743	-8.92
661.775	9.08
661.808	22.08
661.84	-1.92
661.872	9.08
661.904	-3.92
661.936	1.08
661.969	-7.92
662.001	2.08
662.033	-2.92
662.065	-10.92
662.097	7.08
662.129	9.08
662.162	-12.92
662.194	3.08
662.226	17.08
662.258	1.08
662.29	-3.92
662.322	-2.92
662.355	-10.92
662.387	8.08
662.419	6.08
662.451	18.08
662.483	7.08
662.515	-8.92
662.547	-15.92
662.58	-6.92
662.612	-9.92
662.644	-7.92
662.676	16.08
662.708	6.08
662.74	-23.92
662.772	0.08
662.804	5.08
662.836	10.08
662.869	1.08
662.901	14.08
662.933	1.08
662.965	8.08
662.997	-3.92
663.029	-10.92
663.061	4.08
663.093	-1.92
663.125	3.08
663.157	9.08
663.189	7.08
663.221	21.08
663.254	12.08
663.286	2.08
663.318	-0.92
663.35	8.08
663.382	5.08
663.414	-15.92
663.446	3.08
663.478	-10.92
663.51	21.08
663.542	3.08
663.574	-0.92
663.606	7.08
663.638	4.08
663.67	-0.92
663.702	-18.92
663.734	-5.92
663.766	-4.92
663.798	-2.92
663.83	-0.92
663.862	12.08
663.894	11.08
663.926	3.08
663.958	8.08
663.99	-5.92
664.022	-19.92
664.054	-3.92
664.086	-17.92
664.118	-1.92
664.15	13.08
664.182	6.08
664.214	4.08
664.246	9.08
664.278	4.08
664.31	4.08
664.342	-7.92
664.374	-15.92
664.406	-15.92
664.438	0.08
664.47	9.08
664.502	-12.92
664.534	-10.92
664.566	-11.92
664.598	-0.92
664.63	4.08
664.662	15.08
664.693	-6.92
664.725	-13.92
664.757	-6.92
664.789	-14.92
664.821	4.08
664.853	5.08
664.885	-5.92
664.917	15.08
664.949	12.08
664.981	9.08
665.013	-2.92
665.045	-3.92
665.076	-2.92
665.108	0.08
665.14	-7.92
665.172	12.08
665.204	-17.92
665.236	-9.92
665.268	13.08
665.3	11.08
665.331	-4.92
665.363	-0.92
665.395	-14.92
665.427	-5.92
665.459	7.08
665.491	2.08
665.523	6.08
665.555	5.08
665.586	7.08
665.618	-1.92
665.65	-4.92
665.682	5.08
665.714	8.08
665.746	9.08
665.777	6.08
665.809	-4.92
665.841	3.08
665.873	0.08
665.905	-7.92
665.937	4.08
665.968	12.08
666	1.08
666.032	4.08
666.064	-2.92
666.096	-14.92
666.127	4.08
666.159	6.08
666.191	13.08
666.223	7.08
666.255	7.08
666.286	11.08
666.318	2.08
666.35	22.08
666.382	-0.92
666.413	-15.92
666.445	-20.92
666.477	-27.92
666.509	-5.92
666.54	5.08
666.572	-5.92
666.604	-5.92
666.636	-11.92
666.667	4.08
666.699	10.08
666.731	17.08
666.763	-23.92
666.794	-1.92
666.826	4.08
666.858	-6.92
666.89	11.08
666.921	-12.92
666.953	7.08
666.985	1.08
667.017	18.08
667.048	14.08
667.08	9.08
667.112	0.08
667.143	-12.92
667.175	-5.92
667.207	-1.92
667.238	2.08
667.27	-3.92
667.302	7.08
667.334	3.08
667.365	27.08
667.397	-2.92
667.429	-10.92
667.46	3.08
667.492	7.08
667.524	6.08
667.555	6.08
667.587	-9.92
667.619	-9.92
667.65	-2.92
667.682	-1.92
667.714	1.08
667.745	2.08
667.777	0.08
667.808	25.08
667.84	16.08
667.872	1.08
667.903	12.08
667.935	-5.92
667.967	9.08
667.998	-3.92
668.03	-6.92
668.061	3.08
668.093	1.08
668.125	12.08
668.156	5.08
668.188	8.08
668.22	0.08
668.251	3.08
668.283	2.08
668.314	-0.92
668.346	-0.92
668.377	-0.92
668.409	2.08
668.441	-4.92
668.472	8.08
668.504	1.08
668.535	5.08
668.567	7.08
668.599	8.08
668.63	11.08
668.662	-11.92
668.693	10.08
668.725	12.08
668.756	14.08
668.788	11.08
668.819	-4.92
668.851	-12.92
668.882	-4.92
668.914	-15.92
668.946	17.08
668.977	8.08
669.009	-7.92
669.04	-14.92
669.072	8.08
669.103	-9.92
669.135	-11.92
669.166	-2.92
669.198	0.08
669.229	0.08
669.261	17.08
669.292	-0.92
669.324	-1.92
669.355	7.08
669.387	-11.92
669.418	13.08
669.45	-12.92
669.481	3.08
669.513	11.08
669.544	7.08
669.576	4.08
669.607	14.08
669.639	10.08
669.67	-19.92
669.701	11.08
669.733	-10.92
669.764	3.08
669.796	-13.92
669.827	-10.92
669.859	1.08
669.89	5.08
669.922	6.08
669.953	-3.92
669.985	-5.92
670.016	10.08
670.047	-3.92
670.079	2.08
670.11	16.08
670.142	-3.92
670.173	6.08
670.204	6.08
670.236	-4.92
670.267	-7.92
670.299	18.08
670.33	-2.92
670.362	10.08
670.393	-12.92
670.424	-3.92
670.456	-14.92
670.487	-1.92
670.518	5.08
670.55	-3.92
670.581	0.08
670.613	5.08
670.644	-3.92
670.675	-31.92
670.707	-16.92
670.738	12.08
670.769	-1.92
670.801	0.08
670.832	12.08
670.864	-9.92
670.895	12.08
670.926	3.08
670.958	3.08
670.989	0.08
671.02	2.08
671.052	-0.92
671.083	-11.92
671.114	7.08
671.146	17.08
671.177	3.08
671.208	-2.92
671.24	0.08
671.271	-2.92
671.302	-0.92
671.333	-8.92
671.365	-18.92
671.396	-21.92
671.427	2.08
671.459	8.08
671.49	8.08
671.521	15.08
671.553	-6.92
671.584	19.08
671.615	-10.92
671.646	8.08
671.678	-1.92
671.709	-10.92
671.74	-11.92
671.771	-5.92
671.803	15.08
671.834	3.08
671.865	-28.92
671.896	7.08
671.928	-2.92
671.959	-10.92
671.99	-4.92
672.021	-3.92
672.053	5.08
672.084	-1.92
672.115	6.08
672.146	5.08
672.178	-2.92
672.209	-13.92
672.24	-4.92
672.271	21.08
672.303	16.08
672.334	7.08
672.365	-7.92
672.396	3.08
672.427	-0.92
672.459	13.08
672.49	12.08
672.521	1.08
672.552	5.08
672.583	-6.92
672.615	7.08
672.646	12.08
672.677	-12.92
672.708	-0.92
672.739	0.08
672.77	1.08
672.802	16.08
672.833	3.08
672.864	-6.92
672.895	-18.92
672.926	15.08
672.957	-4.92
672.989	0.08
673.02	6.08
673.051	-3.92
673.082	11.08
673.113	1.08
673.144	7.08
673.175	19.08
673.206	-0.92
673.238	4.08
673.269	3.08
673.3	-1.92
673.331	13.08
673.362	1.08
673.393	2.08
673.424	16.08
673.455	14.08
673.487	9.08
673.518	7.08
673.549	-4.92
673.58	-7.92
673.611	8.08
673.642	8.08
673.673	-9.92
673.704	-3.92
673.735	-7.92
673.766	-8.92
673.797	-0.92
673.828	9.08
673.86	-15.92
673.891	-6.92
673.922	-10.92
673.953	-8.92
673.984	1.08
674.015	4.08
674.046	3.08
674.077	7.08
674.108	3.08
674.139	-14.92
674.17	-9.92
674.201	-5.92
674.232	-6.92
674.263	-10.92
674.294	-5.92
674.325	-9.92
674.356	2.08
674.387	0.08
674.418	6.08
674.449	6.08
674.48	-3.92
674.511	-5.92
674.542	2.08
674.573	-18.92
674.604	10.08
674.635	7.08
674.666	10.08
674.697	5.08
674.728	6.08
674.759	5.08
674.79	-7.92
674.821	0.08
674.852	7.08
674.883	-6.92
674.914	2.08
674.945	1.08
674.976	1.08
675.007	6.08
675.038	-26.92
675.069	-19.92
675.1	-11.92
675.131	11.08
675.162	0.08
675.193	-9.92
675.224	-7.92
675.254	-1.92
675.285	-6.92
675.316	19.08
675.347	-11.92
675.378	1.08
675.409	-12.92
675.44	0.08
675.471	-5.92
675.502	-8.92
675.533	8.08
675.564	11.08
675.595	4.08
675.625	34.08
675.656	-2.92
675.687	6.08
675.718	-16.92
675.749	6.08
675.78	7.08
675.811	5.08
675.842	8.08
675.873	6.08
675.903	12.08
675.934	5.08
675.965	-19.92
675.996	-17.92
676.027	20.08
676.058	17.08
676.089	-16.92
676.119	-9.92
676.15	2.08
676.181	5.08
676.212	-8.92
676.243	13.08
676.274	-1.92
676.304	21.08
676.335	-1.92
676.366	0.08
676.397	-3.92
676.428	-1.92
676.459	14.08
676.489	3.08
676.52	-13.92
676.551	4.08
676.582	-2.92
676.613	3.08
676.643	-2.92
676.674	7.08
676.705	2.08
676.736	-7.92
676.767	9.08
676.797	6.08
676.828	0.08
676.859	5.08
676.89	7.08
676.92	13.08
676.951	9.08
676.982	-14.92
677.013	-5.92
677.044	18.08
677.074	16.08
677.105	-0.92
677.136	8.08
677.167	6.08
677.197	14.08
677.228	13.08
677.259	-4.92
677.289	-14.92
677.32	-11.92
677.351	-2.92
677.382	-6.92
677.412	2.08
677.443	-5.92
677.474	-6.92
677.505	-14.92
677.535	1.08
677.566	7.08
677.597	-10.92
677.627	6.08
677.658	0.08
677.689	-7.92
677.72	-10.92
677.75	-3.92
677.781	-2.92
677.812	0.08
677.842	4.08
677.873	2.08
677.904	0.08
677.934	5.08
677.965	6.08
677.996	0.08
678.026	2.08
678.057	-2.92
678.088	-17.92
678.118	-16.92
678.149	-12.92
678.18	7.08
678.21	4.08
678.241	0.08
678.272	-8.92
678.302	-3.92
678.333	7.08
678.363	19.08
678.394	-10.92
678.425	3.08
678.455	-4.92
678.486	13.08
678.517	-8.92
678.547	-5.92
678.578	-14.92
678.608	-16.92
678.639	-2.92
678.67	10.08
678.7	-4.92
678.731	-8.92
678.761	11.08
678.792	6.08
678.823	19.08
678.853	0.08
678.884	-0.92
678.914	-2.92
678.945	0.08
678.975	-5.92
679.006	1.08
679.037	-9.92
679.067	22.08
679.098	1.08
679.128	2.08
679.159	-0.92
679.189	20.08
679.22	-18.92
679.25	17.08
679.281	6.08
679.312	7.08
679.342	11.08
679.373	33.08
679.403	7.08
679.434	3.08
679.464	2.08
679.495	10.08
679.525	9.08
679.556	7.08
679.586	21.08
679.617	6.08
679.647	6.08
679.678	13.08
679.708	-17.92
679.739	-8.92
679.769	-2.92
679.8	1.08
679.83	-3.92
679.861	-2.92
679.891	0.08
679.922	0.08
679.952	2.08
679.983	-3.92
680.013	-7.92
680.044	-12.92
680.074	1.08
680.105	-5.92
680.135	-12.92
680.165	1.08
680.196	6.08
680.226	3.08
680.257	3.08
680.287	-12.92
680.318	5.08
680.348	1.08
680.379	14.08
680.409	12.08
680.439	-2.92
680.47	1.08
680.5	13.08
680.531	13.08
680.561	8.08
680.592	-2.92
680.622	14.08
680.652	11.08
680.683	13.08
680.713	8.08
680.744	-5.92
680.774	0.08
680.804	12.08
680.835	-7.92
680.865	9.08
680.896	16.08
680.926	22.08
680.956	12.08
680.987	6.08
681.017	-16.92
681.047	-8.92
681.078	-18.92
681.108	-2.92
681.139	-6.92
681.169	-9.92
681.199	-5.92
681.23	10.08
681.26	-7.92
681.29	5.08
681.321	-25.92
681.351	1.08
681.381	-2.92
681.412	3.08
681.442	12.08
681.472	19.08
681.503	20.08
681.533	10.08
681.563	0.08
681.594	-0.92
681.624	18.08
681.654	-9.92
681.685	-11.92
681.715	-8.92
681.745	-6.92
681.775	-7.92
681.806	18.08
681.836	-7.92
681.866	-7.92
681.897	3.08
681.927	1.08
681.957	-27.92
681.987	-4.92
682.018	-13.92
682.048	3.08
682.078	13.08
682.109	18.08
682.139	5.08
682.169	4.08
682.199	6.08
682.23	-4.92
682.26	12.08
682.29	10.08
682.32	13.08
682.351	3.08
682.381	-3.92
682.411	4.08
682.441	-9.92
682.472	9.08
682.502	12.08
682.532	5.08
682.562	-2.92
682.592	6.08
682.623	17.08
682.653	-2.92
682.683	-1.92
682.713	7.08
682.743	-0.92
682.774	4.08
682.804	10.08
682.834	8.08
682.864	-12.92
682.894	-11.92
682.925	-5.92
682.955	-15.92
682.985	-6.92
683.015	11.08
683.045	11.08
683.076	-14.92
683.106	4.08
683.136	6.08
683.166	-7.92
683.196	1.08
683.226	-2.92
683.257	15.08
683.287	-1.92
683.317	-18.92
683.347	-14.92
683.377	2.08
683.407	7.08
683.437	5.08
683.468	7.08
683.498	-8.92
683.528	-5.92
683.558	4.08
683.588	0.08
683.618	-21.92
683.648	1.08
683.678	-0.92
683.708	13.08
683.739	9.08
683.769	0.08
683.799	7.08
683.829	-2.92
683.859	-2.92
683.889	10.08
683.919	-1.92
683.949	12.08
683.979	-13.92
684.009	0.08
684.039	10.08
684.07	-7.92
684.1	17.08
684.13	5.08
684.16	21.08
684.19	4.08
684.22	9.08
684.25	9.08
684.28	7.08
684.31	20.08
684.34	11.08
684.37	-4.92
684.4	-5.92
684.43	-1.92
684.46	8.08
684.49	13.08
684.52	8.08
684.55	1.08
684.58	-8.92
684.61	-1.92
684.64	0.08
684.67	-0.92
684.7	7.08
684.73	5.08
684.76	-7.92
684.79	7.08
684.82	8.08
684.85	-4.92
684.88	16.08
684.91	10.08
684.94	1.08
684.97	-4.92
685	2.08
685.03	-19.92
685.06	-8.92
685.09	4.08
685.12	17.08
685.15	8.08
685.18	20.08
685.21	14.08
685.24	6.08
685.27	10.08
685.3	7.08
685.33	10.08
685.36	5.08
685.39	10.08
685.42	0.08
685.45	-2.92
685.48	-15.92
685.51	0.08
685.54	5.08
685.569	15.08
685.599	8.08
685.629	2.08
685.659	5.08
685.689	8.08
685.719	11.08
685.749	-0.92
685.779	3.08
685.809	9.08
685.839	10.08
685.869	9.08
685.898	14.08
685.928	5.08
685.958	-9.92
685.988	5.08
686.018	12.08
686.048	6.08
686.078	19.08
686.108	22.08
686.137	4.08
686.167	18.08
686.197	-16.92
686.227	-3.92
686.257	15.08
686.287	3.08
686.317	4.08
686.346	-16.92
686.376	-11.92
686.406	-18.92
686.436	6.08
686.466	3.08
686.496	4.08
686.525	-2.92
686.555	1.08
686.585	13.08
686.615	22.08
686.645	9.08
686.675	4.08
686.704	11.08
686.734	7.08
686.764	8.08
686.794	0.08
686.824	6.08
686.853	20.08
686.883	12.08
686.913	19.08
686.943	-1.92
686.973	6.08
687.002	-6.92
687.032	8.08
687.062	17.08
687.092	7.08
687.121	-0.92
687.151	12.08
687.181	13.08
687.211	5.08
687.24	-1.92
687.27	4.08
687.3	3.08
687.33	-4.92
687.359	-7.92
687.389	3.08
687.419	2.08
687.449	-1.92
687.478	13.08
687.508	13.08
687.538	7.08
687.568	11.08
687.597	-12.92
687.627	10.08
687.657	-3.92
687.686	0.08
687.716	20.08
687.746	-9.92
687.776	-3.92
687.805	-0.92
687.835	6.08
687.865	12.08
687.894	0.08
687.924	-7.92
687.954	-2.92
687.983	-4.92
688.013	11.08
688.043	17.08
688.072	0.08
688.102	-3.92
688.132	-14.92
688.161	-1.92
688.191	-5.92
688.221	22.08
688.25	-5.92
688.28	7.08
688.31	-0.92
688.339	6.08
688.369	-2.92
688.399	4.08
688.428	4.08
688.458	21.08
688.488	3.08
688.517	11.08
688.547	2.08
688.576	29.08
688.606	9.08
688.636	-7.92
688.665	-4.92
688.695	9.08
688.725	11.08
688.754	10.08
688.784	15.08
688.813	28.08
688.843	6.08
688.873	7.08
688.902	-4.92
688.932	1.08
688.961	6.08
688.991	18.08
689.02	23.08
689.05	4.08
689.08	-1.92
689.109	19.08
689.139	8.08
689.168	13.08
689.198	-9.92
689.227	-6.92
689.257	1.08
689.287	11.08
689.316	11.08
689.346	1.08
689.375	9.08
689.405	6.08
689.434	-10.92
689.464	5.08
689.493	4.08
689.523	-11.92
689.552	-14.92
689.582	8.08
689.611	-10.92
689.641	-4.92
689.67	0.08
689.7	6.08
689.73	14.08
689.759	15.08
689.789	29.08
689.818	10.08
689.848	1.08
689.877	16.08
689.906	-3.92
689.936	-15.92
689.965	-4.92
689.995	8.08
690.024	-3.92
690.054	5.08
690.083	10.08
690.113	-0.92
690.142	0.08
690.172	-6.92
690.201	22.08
690.231	0.08
690.26	6.08
690.29	1.08
690.319	17.08
690.348	5.08
690.378	12.08
690.407	16.08
690.437	-0.92
690.466	12.08
690.496	-1.92
690.525	14.08
690.555	-9.92
690.584	-2.92
690.613	2.08
690.643	5.08
690.672	-2.92
690.702	4.08
690.731	8.08
690.76	0.08
690.79	-2.92
690.819	-9.92
690.849	-1.92
690.878	4.08
690.907	0.08
690.937	22.08
690.966	18.08
690.996	-3.92
691.025	7.08
691.054	-10.92
691.084	-3.92
691.113	4.08
691.142	13.08
691.172	5.08
691.201	21.08
691.23	13.08
691.26	6.08
691.289	1.08
691.319	-4.92
691.348	-0.92
691.377	11.08
691.407	0.08
691.436	24.08
691.465	5.08
691.495	4.08
691.524	-15.92
691.553	-1.92
691.583	-23.92
691.612	19.08
691.641	1.08
691.67	0.08
691.7	5.08
691.729	-7.92
691.758	23.08
691.788	-0.92
691.817	-1.92
691.846	4.08
691.876	-7.92
691.905	12.08
691.934	5.08
691.963	8.08
691.993	9.08
692.022	12.08
692.051	-6.92
692.081	11.08
692.11	16.08
692.139	10.08
692.168	-3.92
692.198	10.08
692.227	-0.92
692.256	-4.92
692.285	-10.92
692.315	1.08
692.344	9.08
692.373	11.08
692.402	-10.92
692.432	-5.92
692.461	-7.92
692.49	6.08
692.519	-7.92
692.548	19.08
692.578	7.08
692.607	-7.92
692.636	-1.92
692.665	13.08
692.694	-4.92
692.724	-1.92
692.753	-0.92
692.782	20.08
692.811	-3.92
692.84	-3.92
692.87	-0.92
692.899	3.08
692.928	2.08
692.957	-2.92
692.986	6.08
693.016	9.08
693.045	10.08
693.074	9.08
693.103	11.08
693.132	16.08
693.161	22.08
693.191	-3.92
693.22	-1.92
693.249	2.08
693.278	1.08
693.307	7.08
693.336	-7.92
693.365	-3.92
693.395	1.08
693.424	-2.92
693.453	13.08
693.482	-2.92
693.511	10.08
693.54	21.08
693.569	21.08
693.598	9.08
693.628	7.08
693.657	12.08
693.686	18.08
693.715	17.08
693.744	13.08
693.773	16.08
693.802	7.08
693.831	5.08
693.86	23.08
693.889	7.08
693.919	4.08
693.948	0.08
693.977	10.08
694.006	13.08
694.035	10.08
694.064	-10.92
694.093	13.08
694.122	5.08
694.151	-18.92
694.18	12.08
694.209	13.08
694.238	4.08
694.267	19.08
694.296	4.08
694.325	11.08
694.354	7.08
694.383	17.08
694.412	8.08
694.441	-9.92
694.471	-13.92
694.5	-9.92
694.529	2.08
694.558	18.08
694.587	9.08
694.616	8.08
694.645	10.08
694.674	23.08
694.703	11.08
694.732	18.08
694.761	18.08
694.79	2.08
694.819	-5.92
694.848	10.08
694.877	8.08
694.906	39.08
694.935	-4.92
694.963	20.08
694.992	12.08
695.021	9.08
695.05	3.08
695.079	-0.92
695.108	-0.92
695.137	7.08
695.166	4.08
695.195	5.08
695.224	15.08
695.253	-2.92
695.282	-3.92
695.311	15.08
695.34	9.08
695.369	9.08
695.398	9.08
695.427	12.08
695.456	18.08
695.485	14.08
695.513	13.08
695.542	-15.92
695.571	0.08
695.6	24.08
695.629	9.08
695.658	21.08
695.687	3.08
695.716	15.08
695.745	14.08
695.774	-12.92
695.802	-8.92
695.831	17.08
695.86	26.08
695.889	25.08
695.918	-0.92
695.947	2.08
695.976	4.08
696.005	2.08
696.033	-0.92
696.062	13.08
696.091	-1.92
696.12	-7.92
696.149	18.08
696.178	9.08
696.207	6.08
696.235	-16.92
696.264	9.08
696.293	-3.92
696.322	16.08
696.351	16.08
696.38	10.08
696.408	3.08
696.437	1.08
696.466	7.08
696.495	30.08
696.524	12.08
696.553	1.08
696.581	18.08
696.61	0.08
696.639	1.08
696.668	1.08
696.697	-1.92
696.725	4.08
696.754	-2.92
696.783	12.08
696.812	-1.92
696.84	-4.92
696.869	13.08
696.898	-7.92
696.927	-10.92
696.956	4.08
696.984	-12.92
697.013	10.08
697.042	6.08
697.071	1.08
697.099	15.08
697.128	-0.92
697.157	6.08
697.186	7.08
697.214	0.08
697.243	-6.92
697.272	2.08
697.301	22.08
697.329	-4.92
697.358	10.08
697.387	28.08
697.415	14.08
697.444	7.08
697.473	-7.92
697.502	1.08
697.53	4.08
697.559	3.08
697.588	11.08
697.616	13.08
697.645	-0.92
697.674	23.08
697.703	-0.92
697.731	9.08
697.76	17.08
697.789	8.08
697.817	11.08
697.846	17.08
697.875	0.08
697.903	18.08
697.932	10.08
697.961	8.08
697.989	11.08
698.018	9.08
698.047	6.08
698.075	13.08
698.104	10.08
698.133	-3.92
698.161	10.08
698.19	22.08
698.218	2.08
698.247	9.08
698.276	5.08
698.304	4.08
698.333	-0.92
698.362	0.08
698.39	4.08
698.419	14.08
698.447	14.08
698.476	18.08
698.505	24.08
698.533	12.08
698.562	19.08
698.591	10.08
698.619	16.08
698.648	9.08
698.676	3.08
698.705	-3.92
698.733	-16.92
698.762	-2.92
698.791	-2.92
698.819	-11.92
698.848	0.08
698.876	7.08
698.905	0.08
698.933	18.08
698.962	4.08
698.991	10.08
699.019	30.08
699.048	11.08
699.076	24.08
699.105	-1.92
699.133	-4.92
699.162	14.08
699.19	21.08
699.219	9.08
699.248	6.08
699.276	-3.92
699.305	-0.92
699.333	5.08
699.362	-1.92
699.39	16.08
699.419	-3.92
699.447	7.08
699.476	13.08
699.504	5.08
699.533	-4.92
699.561	-8.92
699.59	9.08
699.618	-1.92
699.647	-8.92
699.675	3.08
699.704	9.08
699.732	10.08
699.761	2.08
699.789	15.08
699.818	13.08
699.846	4.08
699.874	3.08
699.903	-0.92
699.931	2.08
699.96	6.08
699.988	-9.92
700.017	-5.92
700.045	-2.92
700.074	1.08
700.102	-3.92
700.13	0.08
700.159	-6.92
700.187	9.08
700.216	3.08
700.244	-8.92
700.273	-9.92
700.301	-1.92
700.329	15.08
700.358	3.08
700.386	8.08
700.415	3.08
700.443	-7.92
700.472	5.08
700.5	-3.92
700.528	-3.92
700.557	14.08
700.585	0.08
700.614	3.08
700.642	14.08
700.67	37.08
700.699	6.08
700.727	6.08
700.755	14.08
700.784	3.08
700.812	-3.92
700.841	23.08
700.869	3.08
700.897	-8.92
700.926	2.08
700.954	13.08
700.982	11.08
701.011	-4.92
701.039	6.08
701.067	15.08
701.096	3.08
701.124	-5.92
701.152	0.08
701.181	0.08
701.209	-2.92
701.237	5.08
701.266	-10.92
701.294	4.08
701.322	5.08
701.351	10.08
701.379	15.08
701.407	6.08
701.435	5.08
701.464	5.08
701.492	21.08
701.52	-5.92
701.549	6.08
701.577	1.08
701.605	2.08
701.634	-1.92
701.662	11.08
701.69	-4.92
701.718	-8.92
701.747	9.08
701.775	-0.92
701.803	-1.92
701.831	13.08
701.86	12.08
701.888	12.08
701.916	-1.92
701.944	16.08
701.973	16.08
702.001	-23.92
702.029	3.08
702.057	-1.92
702.086	-7.92
702.114	-7.92
702.142	-0.92
702.17	-19.92
702.199	4.08
702.227	-14.92
702.255	4.08
702.283	5.08
702.311	15.08
702.34	6.08
702.368	-9.92
702.396	-1.92
702.424	13.08
702.452	11.08
702.481	6.08
702.509	-2.92
702.537	3.08
702.565	-3.92
702.593	-28.92
702.621	1.08
702.65	17.08
702.678	6.08
702.706	1.08
702.734	-1.92
702.762	1.08
702.79	4.08
702.819	5.08
702.847	-5.92
702.875	11.08
702.903	18.08
702.931	5.08
702.959	8.08
702.988	10.08
703.016	-17.92
703.044	-0.92
703.072	9.08
703.1	0.08
703.128	5.08
703.156	4.08
703.184	5.08
703.212	8.08
703.241	8.08
703.269	1.08
703.297	3.08
703.325	-2.92
703.353	-7.92
703.381	-6.92
703.409	7.08
703.437	-3.92
703.465	-6.92
703.493	-5.92
703.522	-3.92
703.55	-2.92
703.578	-1.92
703.606	-12.92
703.634	12.08
703.662	-2.92
703.69	-5.92
703.718	24.08
703.746	21.08
703.774	12.08
703.802	18.08
703.83	0.08
703.858	18.08
703.886	3.08
703.914	-4.92
703.942	16.08
703.97	-10.92
703.998	-1.92
704.027	29.08
704.055	13.08
704.083	10.08
704.111	6.08
704.139	18.08
704.167	2.08
704.195	6.08
704.223	-1.92
704.251	-3.92
704.279	0.08
704.307	8.08
704.335	-11.92
704.363	-2.92
704.391	0.08
704.419	-11.92
704.447	-4.92
704.475	-2.92
704.503	-10.92
704.531	7.08
704.558	0.08
704.586	1.08
704.614	7.08
704.642	10.08
704.67	-9.92
704.698	-8.92
704.726	12.08
704.754	4.08
704.782	1.08
704.81	-3.92
704.838	30.08
704.866	17.08
704.894	-5.92
704.922	2.08
704.95	16.08
704.978	2.08
705.006	2.08
705.034	19.08
705.061	12.08
705.089	-4.92
705.117	-28.92
705.145	-7.92
705.173	1.08
705.201	-4.92
705.229	21.08
705.257	12.08
705.285	25.08
705.313	6.08
705.34	4.08
705.368	5.08
705.396	4.08
705.424	11.08
705.452	1.08
705.48	3.08
705.508	-6.92
705.536	5.08
705.563	3.08
705.591	5.08
705.619	-4.92
705.647	-1.92
705.675	12.08
705.703	3.08
705.731	4.08
705.758	-0.92
705.786	10.08
705.814	13.08
705.842	6.08
705.87	-0.92
705.898	15.08
705.925	-14.92
705.953	16.08
705.981	-2.92
706.009	6.08
706.037	4.08
706.065	-4.92
706.092	-1.92
706.12	6.08
706.148	-12.92
706.176	3.08
706.204	3.08
706.231	-8.92
706.259	4.08
706.287	2.08
706.315	12.08
706.342	9.08
706.37	3.08
706.398	14.08
706.426	5.08
706.454	-4.92
706.481	2.08
706.509	11.08
706.537	14.08
706.565	1.08
706.592	7.08
706.62	12.08
706.648	19.08
706.676	4.08
706.703	12.08
706.731	5.08
706.759	0.08
706.787	3.08
706.814	4.08
706.842	-1.92
706.87	3.08
706.897	1.08
706.925	-14.92
706.953	6.08
706.981	31.08
707.008	23.08
707.036	13.08
707.064	7.08
707.091	-20.92
707.119	9.08
707.147	-5.92
707.174	-1.92
707.202	7.08
707.23	7.08
707.258	9.08
707.285	1.08
707.313	-1.92
707.341	-6.92
707.368	4.08
707.396	13.08
707.424	4.08
707.451	18.08
707.479	14.08
707.507	-8.92
707.534	-4.92
707.562	4.08
707.59	-1.92
707.617	-12.92
707.645	0.08
707.672	-1.92
707.7	5.08
707.728	4.08
707.755	8.08
707.783	5.08
707.811	16.08
707.838	4.08
707.866	13.08
707.893	6.08
707.921	-3.92
707.949	-8.92
707.976	11.08
708.004	14.08
708.031	-11.92
708.059	-0.92
708.087	14.08
708.114	0.08
708.142	-14.92
708.169	5.08
708.197	-2.92
708.225	10.08
708.252	-12.92
708.28	-0.92
708.307	-1.92
708.335	15.08
708.362	3.08
708.39	1.08
708.418	4.08
708.445	1.08
708.473	-11.92
708.5	-6.92
708.528	11.08
708.555	12.08
708.583	5.08
708.61	5.08
708.638	8.08
708.665	2.08
708.693	-3.92
708.72	-8.92
708.748	-3.92
708.776	-1.92
708.803	-0.92
708.831	13.08
708.858	13.08
708.886	5.08
708.913	-16.92
708.941	2.08
708.968	17.08
708.996	6.08
709.023	37.08
709.051	-2.92
709.078	0.08
709.105	10.08
709.133	13.08
709.16	8.08
709.188	13.08
709.215	15.08
709.243	4.08
709.27	-1.92
709.298	-2.92
709.325	-2.92
709.353	-6.92
709.38	-0.92
709.408	13.08
709.435	16.08
709.462	-3.92
709.49	7.08
709.517	7.08
709.545	5.08
709.572	-5.92
709.6	-4.92
709.627	5.08
709.655	0.08
709.682	4.08
709.709	3.08
709.737	8.08
709.764	-4.92
709.792	0.08
709.819	3.08
709.846	4.08
709.874	7.08
709.901	22.08
709.929	20.08
709.956	17.08
709.983	17.08
710.011	-2.92
710.038	-4.92
710.066	8.08
710.093	9.08
710.12	2.08
710.148	0.08
710.175	0.08
710.202	1.08
710.23	7.08
710.257	7.08
710.284	16.08
710.312	9.08
710.339	-7.92
710.366	1.08
710.394	-1.92
710.421	9.08
710.448	-10.92
710.476	-24.92
710.503	-3.92
710.53	8.08
710.558	19.08
710.585	6.08
710.612	0.08
710.64	9.08
710.667	2.08
710.694	3.08
710.722	0.08
710.749	8.08
710.776	-5.92
710.804	37.08
710.831	7.08
710.858	7.08
710.885	5.08
710.913	8.08
710.94	18.08
710.967	13.08
710.995	13.08
711.022	-3.92
711.049	3.08
711.076	-0.92
711.104	-2.92
711.131	-11.92
711.158	-3.92
711.185	10.08
711.213	6.08
711.24	-9.92
711.267	11.08
711.294	-2.92
711.322	8.08
711.349	2.08
711.376	2.08
711.403	7.08
711.431	2.08
711.458	-4.92
711.485	-3.92
711.512	0.08
711.54	7.08
711.567	5.08
711.594	3.08
711.621	11.08
711.648	8.08
711.676	4.08
711.703	1.08
711.73	-18.92
711.757	1.08
711.784	-8.92
711.812	-3.92
711.839	0.08
711.866	5.08
711.893	-3.92
711.92	9.08
711.947	-8.92
711.975	17.08
712.002	4.08
712.029	10.08
712.056	20.08
712.083	0.08
712.11	-11.92
712.138	2.08
712.165	11.08
712.192	5.08
712.219	-0.92
712.246	5.08
712.273	4.08
712.3	-13.92
712.328	1.08
712.355	-0.92
712.382	-9.92
712.409	15.08
712.436	0.08
712.463	8.08
712.49	13.08
712.517	3.08
712.544	7.08
712.572	3.08
712.599	-17.92
712.626	13.08
712.653	5.08
712.68	-1.92
712.707	5.08
712.734	-3.92
712.761	-4.92
712.788	9.08
712.815	7.08
712.842	15.08
712.87	13.08
712.897	-0.92
712.924	2.08
712.951	10.08
712.978	18.08
713.005	11.08
713.032	10.08
713.059	-1.92
713.086	-3.92
713.113	-12.92
713.14	-2.92
713.167	15.08
713.194	8.08
713.221	-7.92
713.248	20.08
713.275	9.08
713.302	4.08
713.329	11.08
713.356	6.08
713.383	16.08
713.41	0.08
713.437	-11.92
713.464	4.08
713.491	1.08
713.518	25.08
713.545	-4.92
713.572	1.08
713.599	22.08
713.626	-1.92
713.653	15.08
713.68	-7.92
713.707	-8.92
713.734	7.08
713.761	4.08
713.788	4.08
713.815	3.08
713.842	4.08
713.869	7.08
713.896	7.08
713.923	-0.92
713.95	-11.92
713.977	-1.92
714.004	3.08
714.031	-2.92
714.058	9.08
714.085	0.08
714.112	6.08
714.139	6.08
714.165	2.08
714.192	-10.92
714.219	-2.92
714.246	0.08
714.273	-4.92
714.3	-15.92
714.327	4.08
714.354	4.08
714.381	-7.92
714.408	0.08
714.435	14.08
714.461	-8.92
714.488	-0.92
714.515	21.08
714.542	-5.92
714.569	-10.92
714.596	-9.92
714.623	4.08
714.65	-2.92
714.677	7.08
714.703	4.08
714.73	11.08
714.757	16.08
714.784	7.08
714.811	-11.92
714.838	4.08
714.865	-20.92
714.891	-3.92
714.918	1.08
714.945	-23.92
714.972	4.08
714.999	9.08
715.026	0.08
715.052	14.08
715.079	-4.92
715.106	11.08
715.133	2.08
715.16	-2.92
715.187	7.08
715.213	4.08
715.24	0.08
715.267	2.08
715.294	1.08
715.321	-0.92
715.347	-2.92
715.374	-10.92
715.401	-1.92
715.428	12.08
715.455	1.08
715.481	-2.92
715.508	8.08
715.535	14.08
715.562	38.08
715.588	28.08
715.615	7.08
715.642	-1.92
715.669	13.08
715.695	-7.92
715.722	1.08
715.749	0.08
715.776	22.08
715.802	10.08
715.829	9.08
715.856	-9.92
715.883	25.08
715.909	0.08
715.936	-14.92
715.963	4.08
715.99	0.08
716.016	7.08
716.043	-4.92
716.07	-11.92
716.096	-6.92
716.123	5.08
716.15	10.08
716.177	18.08
716.203	3.08
716.23	13.08
716.257	3.08
716.283	2.08
716.31	-6.92
716.337	-3.92
716.363	9.08
716.39	6.08
716.417	7.08
716.443	-5.92
716.47	13.08
716.497	13.08
716.523	19.08
716.55	-15.92
716.577	19.08
716.603	1.08
716.63	-7.92
716.657	8.08
716.683	-15.92
716.71	8.08
716.737	1.08
716.763	3.08
716.79	13.08
716.817	8.08
716.843	22.08
716.87	-3.92
716.897	-10.92
716.923	11.08
716.95	-1.92
716.976	7.08
717.003	7.08
717.03	9.08
717.056	10.08
717.083	-10.92
717.109	14.08
717.136	-2.92
717.163	-8.92
717.189	3.08
717.216	0.08
717.242	8.08
717.269	-1.92
717.296	16.08
717.322	15.08
717.349	6.08
717.375	12.08
717.402	9.08
717.428	3.08
717.455	3.08
717.481	4.08
717.508	18.08
717.535	7.08
717.561	6.08
717.588	-9.92
717.614	-0.92
717.641	1.08
717.667	-5.92
717.694	28.08
717.72	10.08
717.747	14.08
717.773	7.08
717.8	-1.92
717.826	5.08
717.853	3.08
717.88	5.08
717.906	5.08
717.933	-0.92
717.959	14.08
717.986	8.08
718.012	-4.92
718.039	17.08
718.065	14.08
718.092	7.08
718.118	-11.92
718.144	-7.92
718.171	11.08
718.197	20.08
718.224	1.08
718.25	-9.92
718.277	2.08
718.303	-0.92
718.33	-8.92
718.356	-16.92
718.383	-8.92
718.409	6.08
718.436	-3.92
718.462	-0.92
718.489	1.08
718.515	12.08
718.541	31.08
718.568	14.08
718.594	9.08
718.621	17.08
718.647	-8.92
718.674	4.08
718.7	7.08
718.726	-2.92
718.753	-1.92
718.779	13.08
718.806	-5.92
718.832	3.08
718.858	1.08
718.885	-3.92
718.911	5.08
718.938	10.08
718.964	-1.92
718.99	-7.92
719.017	14.08
719.043	7.08
719.07	7.08
719.096	-1.92
719.122	16.08
719.149	11.08
719.175	7.08
719.201	-2.92
719.228	-10.92
719.254	1.08
719.281	10.08
719.307	6.08
719.333	7.08
719.36	22.08
719.386	-1.92
719.412	14.08
719.439	0.08
719.465	-2.92
719.491	-1.92
719.518	9.08
719.544	17.08
719.57	19.08
719.597	23.08
719.623	-1.92
719.649	-4.92
719.675	-3.92
719.702	8.08
719.728	12.08
719.754	-8.92
719.781	1.08
719.807	4.08
719.833	-9.92
719.86	-15.92
719.886	6.08
719.912	12.08
719.938	-9.92
719.965	1.08
719.991	10.08
720.017	-0.92
720.044	1.08
720.07	0.08
720.096	10.08
720.122	3.08
720.149	12.08
720.175	32.08
720.201	5.08
720.227	8.08
720.254	4.08
720.28	-3.92
720.306	4.08
720.332	-10.92
720.359	5.08
720.385	-8.92
720.411	12.08
720.437	14.08
720.463	-4.92
720.49	0.08
720.516	-0.92
720.542	3.08
720.568	-5.92
720.595	6.08
720.621	13.08
720.647	3.08
720.673	12.08
720.699	9.08
720.725	0.08
720.752	12.08
720.778	14.08
720.804	8.08
720.83	-1.92
720.856	5.08
720.883	6.08
720.909	11.08
720.935	1.08
720.961	8.08
720.987	4.08
721.013	4.08
721.04	-3.92
721.066	-12.92
721.092	-1.92
721.118	3.08
721.144	0.08
721.17	-1.92
721.196	7.08
721.223	-3.92
721.249	-9.92
721.275	19.08
721.301	4.08
721.327	7.08
721.353	-3.92
721.379	-2.92
721.405	14.08
721.432	4.08
721.458	3.08
721.484	14.08
721.51	-3.92
721.536	-1.92
721.562	-11.92
721.588	7.08
721.614	5.08
721.64	1.08
721.666	0.08
721.693	-10.92
721.719	-16.92
721.745	-15.92
721.771	-9.92
721.797	4.08
721.823	7.08
721.849	12.08
721.875	5.08
721.901	-3.92
721.927	-4.92
721.953	-9.92
721.979	4.08
722.005	4.08
722.031	-5.92
722.057	-3.92
722.083	3.08
722.109	-4.92
722.135	17.08
722.161	6.08
722.187	1.08
722.214	-12.92
722.24	-8.92
722.266	-2.92
722.292	12.08
722.318	7.08
722.344	0.08
722.37	7.08
722.396	6.08
722.422	-10.92
722.448	6.08
722.474	-18.92
722.5	11.08
722.526	0.08
722.552	4.08
722.578	-2.92
722.603	1.08
722.629	-12.92
722.655	7.08
722.681	-2.92
722.707	-2.92
722.733	-11.92
722.759	-10.92
722.785	1.08
722.811	5.08
722.837	11.08
722.863	15.08
722.889	8.08
722.915	1.08
722.941	0.08
722.967	-0.92
722.993	0.08
723.019	3.08
723.045	-4.92
723.071	5.08
723.097	6.08
723.122	-0.92
723.148	1.08
723.174	-7.92
723.2	5.08
723.226	-4.92
723.252	9.08
723.278	-4.92
723.304	-4.92
723.33	-5.92
723.356	-6.92
723.381	12.08
723.407	-3.92
723.433	-2.92
723.459	7.08
723.485	7.08
723.511	11.08
723.537	-4.92
723.563	1.08
723.588	3.08
723.614	12.08
723.64	8.08
723.666	4.08
723.692	12.08
723.718	9.08
723.744	-6.92
723.769	-0.92
723.795	-8.92
723.821	-0.92
723.847	-5.92
723.873	-10.92
723.899	-3.92
723.924	1.08
723.95	-12.92
723.976	-7.92
724.002	5.08
724.028	12.08
724.053	-4.92
724.079	-7.92
724.105	-2.92
724.131	5.08
724.157	6.08
724.182	6.08
724.208	18.08
724.234	3.08
724.26	-3.92
724.286	17.08
724.311	4.08
724.337	-13.92
724.363	-13.92
724.389	8.08
724.415	-3.92
724.44	10.08
724.466	3.08
724.492	5.08
724.518	-0.92
724.543	-3.92
724.569	1.08
724.595	6.08
724.621	-5.92
724.646	7.08
724.672	-15.92
724.698	-6.92
724.723	1.08
724.749	2.08
724.775	0.08
724.801	3.08
724.826	-11.92
724.852	-4.92
724.878	0.08
724.904	-8.92
724.929	9.08
724.955	-8.92
724.981	-7.92
725.006	5.08
725.032	-1.92
725.058	6.08
725.083	-4.92
725.109	-4.92
725.135	4.08
725.161	3.08
725.186	-2.92
725.212	4.08
725.238	6.08
725.263	12.08
725.289	-4.92
725.315	-4.92
725.34	-0.92
725.366	14.08
725.392	-3.92
725.417	4.08
725.443	14.08
725.468	13.08
725.494	23.08
725.52	4.08
725.545	-17.92
725.571	7.08
725.597	-0.92
725.622	10.08
725.648	4.08
725.674	-5.92
725.699	18.08
725.725	-7.92
725.75	25.08
725.776	-3.92
725.802	0.08
725.827	9.08
725.853	9.08
725.878	-4.92
725.904	2.08
725.93	15.08
725.955	-5.92
725.981	-3.92
726.006	-7.92
726.032	7.08
726.057	-9.92
726.083	10.08
726.109	-3.92
726.134	-3.92
726.16	-3.92
726.185	-2.92
726.211	-4.92
726.236	11.08
726.262	9.08
726.288	14.08
726.313	4.08
726.339	21.08
726.364	19.08
726.39	13.08
726.415	-5.92
726.441	-10.92
726.466	-10.92
726.492	-0.92
726.517	9.08
726.543	13.08
726.568	-4.92
726.594	2.08
726.619	4.08
726.645	9.08
726.67	3.08
726.696	18.08
726.721	15.08
726.747	0.08
726.772	-7.92
726.798	-2.92
726.823	15.08
726.849	4.08
726.874	3.08
726.9	21.08
726.925	18.08
726.951	-3.92
726.976	10.08
727.002	3.08
727.027	11.08
727.053	23.08
727.078	4.08
727.104	19.08
727.129	-8.92
727.155	-4.92
727.18	13.08
727.205	0.08
727.231	-6.92
727.256	-2.92
727.282	3.08
727.307	9.08
727.333	-0.92
727.358	-9.92
727.383	-1.92
727.409	-7.92
727.434	23.08
727.46	3.08
727.485	-7.92
727.511	15.08
727.536	-18.92
727.561	-4.92
727.587	-2.92
727.612	-15.92
727.637	5.08
727.663	3.08
727.688	23.08
727.714	-0.92
727.739	-2.92
727.764	7.08
727.79	12.08
727.815	22.08
727.841	21.08
727.866	19.08
727.891	13.08
727.917	-0.92
727.942	-5.92
727.967	-10.92
727.993	-11.92
728.018	0.08
728.043	-1.92
728.069	13.08
728.094	16.08
728.119	-9.92
728.145	16.08
728.17	5.08
728.195	3.08
728.221	7.08
728.246	5.08
728.271	-7.92
728.297	2.08
728.322	10.08
728.347	12.08
728.373	6.08
728.398	18.08
728.423	-2.92
728.448	-2.92
728.474	-4.92
728.499	18.08
728.524	-10.92
728.55	-5.92
728.575	-5.92
728.6	-0.92
728.625	-6.92
728.651	11.08
728.676	-8.92
728.701	-10.92
728.727	-5.92
728.752	-16.92
728.777	-12.92
728.802	3.08
728.828	3.08
728.853	8.08
728.878	5.08
728.903	-5.92
728.929	-8.92
728.954	-4.92
728.979	14.08
729.004	-7.92
729.03	-7.92
729.055	7.08
729.08	1.08
729.105	1.08
729.13	12.08
729.156	10.08
729.181	11.08
729.206	-15.92
729.231	-0.92
729.256	12.08
729.282	6.08
729.307	-26.92
729.332	-7.92
729.357	4.08
729.382	-0.92
729.408	-6.92
729.433	-7.92
729.458	24.08
729.483	13.08
729.508	12.08
729.533	9.08
729.559	7.08
729.584	-9.92
729.609	17.08
729.634	15.08
729.659	3.08
729.684	-0.92
729.71	14.08
729.735	-5.92
729.76	5.08
729.785	0.08
729.81	13.08
729.835	0.08
729.86	-14.92
729.886	11.08
729.911	12.08
729.936	0.08
729.961	9.08
729.986	-10.92
730.011	8.08
730.036	-0.92
730.061	4.08
730.086	10.08
730.112	6.08
730.137	20.08
730.162	13.08
730.187	1.08
730.212	-1.92
730.237	-6.92
730.262	-1.92
730.287	14.08
730.312	10.08
730.337	-13.92
730.362	6.08
730.387	8.08
730.413	-10.92
730.438	-7.92
730.463	6.08
730.488	-2.92
730.513	5.08
730.538	11.08
730.563	7.08
730.588	14.08
730.613	28.08
730.638	2.08
730.663	-3.92
730.688	19.08
730.713	5.08
730.738	2.08
730.763	9.08
730.788	-21.92
730.813	19.08
730.838	6.08
730.863	-1.92
730.888	-0.92
730.913	-8.92
730.938	-14.92
730.963	-12.92
730.988	-7.92
731.013	8.08
731.038	3.08
731.063	7.08
731.088	21.08
731.113	11.08
731.138	2.08
731.163	4.08
731.188	-3.92
731.213	9.08
731.238	8.08
731.263	9.08
731.288	6.08
731.313	6.08
731.338	4.08
731.363	12.08
731.388	-6.92
731.413	3.08
731.438	20.08
731.463	23.08
731.487	9.08
731.512	-6.92
731.537	11.08
731.562	-2.92
731.587	-2.92
731.612	-2.92
731.637	-3.92
731.662	-10.92
731.687	-11.92
731.712	-5.92
731.737	14.08
731.762	2.08
731.786	5.08
731.811	11.08
731.836	7.08
731.861	21.08
731.886	22.08
731.911	6.08
731.936	9.08
731.961	0.08
731.986	0.08
732.01	-0.92
732.035	1.08
732.06	2.08
732.085	-5.92
732.11	1.08
732.135	-9.92
732.16	-0.92
732.184	8.08
732.209	13.08
732.234	1.08
732.259	-2.92
732.284	19.08
732.309	0.08
732.334	-8.92
732.358	-12.92
732.383	-18.92
732.408	1.08
732.433	-3.92
732.458	-6.92
732.482	-9.92
732.507	-7.92
732.532	9.08
732.557	8.08
732.582	0.08
732.607	0.08
732.631	-22.92
732.656	-6.92
732.681	4.08
732.706	11.08
732.73	-2.92
732.755	-10.92
732.78	-4.92
732.805	6.08
732.83	5.08
732.854	6.08
732.879	14.08
732.904	4.08
732.929	6.08
732.953	7.08
732.978	0.08
733.003	0.08
733.028	5.08
733.052	9.08
733.077	5.08
733.102	18.08
733.127	1.08
733.151	1.08
733.176	-5.92
733.201	-5.92
733.226	-5.92
733.25	-7.92
733.275	-0.92
733.3	-5.92
733.324	16.08
733.349	1.08
733.374	11.08
733.399	-0.92
733.423	8.08
733.448	-1.92
733.473	0.08
733.497	-0.92
733.522	-4.92
733.547	15.08
733.571	18.08
733.596	9.08
733.621	11.08
733.646	3.08
733.67	14.08
733.695	-1.92
733.72	-2.92
733.744	3.08
733.769	7.08
733.794	13.08
733.818	18.08
733.843	-2.92
733.867	2.08
733.892	4.08
733.917	0.08
733.941	-5.92
733.966	-0.92
733.991	-3.92
734.015	16.08
734.04	-1.92
734.065	9.08
734.089	17.08
734.114	15.08
734.138	6.08
734.163	2.08
734.188	15.08
734.212	6.08
734.237	14.08
734.261	4.08
734.286	-1.92
734.311	-2.92
734.335	0.08
734.36	-7.92
734.384	9.08
734.409	-3.92
734.434	-10.92
734.458	-7.92
734.483	2.08
734.507	-6.92
734.532	11.08
734.556	14.08
734.581	-2.92
734.606	-5.92
734.63	-11.92
734.655	0.08
734.679	2.08
734.704	24.08
734.728	-6.92
734.753	-6.92
734.777	10.08
734.802	2.08
734.826	14.08
734.851	0.08
734.876	22.08
734.9	2.08
734.925	7.08
734.949	1.08
734.974	1.08
734.998	15.08
735.023	-5.92
735.047	-7.92
735.072	8.08
735.096	6.08
735.121	10.08
735.145	10.08
735.17	18.08
735.194	-5.92
735.219	1.08
735.243	11.08
735.268	7.08
735.292	15.08
735.317	10.08
735.341	-2.92
735.365	-16.92
735.39	-1.92
735.414	12.08
735.439	14.08
735.463	15.08
735.488	18.08
735.512	24.08
735.537	4.08
735.561	-7.92
735.586	-2.92
735.61	10.08
735.634	3.08
735.659	0.08
735.683	8.08
735.708	-2.92
735.732	-11.92
735.757	0.08
735.781	16.08
735.805	4.08
735.83	-9.92
735.854	7.08
735.879	1.08
735.903	4.08
735.927	-1.92
735.952	0.08
735.976	-6.92
736.001	-1.92
736.025	0.08
736.049	4.08
736.074	-5.92
736.098	1.08
736.123	8.08
736.147	-0.92
736.171	-18.92
736.196	3.08
736.22	-9.92
736.244	4.08
736.269	15.08
736.293	11.08
736.317	4.08
736.342	21.08
736.366	31.08
736.39	13.08
736.415	3.08
736.439	13.08
736.463	17.08
736.488	3.08
736.512	6.08
736.536	25.08
736.561	21.08
736.585	0.08
736.609	-9.92
736.634	-3.92
736.658	-8.92
736.682	-1.92
736.707	-8.92
736.731	-12.92
736.755	0.08
736.78	31.08
736.804	11.08
736.828	6.08
736.852	1.08
736.877	-3.92
736.901	8.08
736.925	4.08
736.949	3.08
736.974	-0.92
736.998	-0.92
737.022	5.08
737.047	-2.92
737.071	-1.92
737.095	15.08
737.119	20.08
737.144	18.08
737.168	6.08
737.192	8.08
737.216	-0.92
737.241	-8.92
737.265	-1.92
737.289	-2.92
737.313	0.08
737.337	3.08
737.362	11.08
737.386	-7.92
737.41	-3.92
737.434	-2.92
737.459	25.08
737.483	20.08
737.507	20.08
737.531	21.08
737.555	4.08
737.58	12.08
737.604	10.08
737.628	-0.92
737.652	5.08
737.676	2.08
737.701	12.08
737.725	-1.92
737.749	0.08
737.773	5.08
737.797	-3.92
737.821	14.08
737.846	6.08
737.87	27.08
737.894	10.08
737.918	-8.92
737.942	-1.92
737.966	19.08
737.99	-3.92
738.015	3.08
738.039	-3.92
738.063	-3.92
738.087	4.08
738.111	-6.92
738.135	9.08
738.159	-7.92
738.184	11.08
738.208	0.08
738.232	1.08
738.256	16.08
738.28	14.08
738.304	4.08
738.328	6.08
738.352	7.08
738.376	11.08
738.4	8.08
738.425	1.08
738.449	-9.92
738.473	16.08
738.497	0.08
738.521	4.08
738.545	7.08
738.569	-1.92
738.593	17.08
738.617	13.08
738.641	8.08
738.665	13.08
738.689	14.08
738.713	-6.92
738.737	-6.92
738.762	-5.92
738.786	0.08
738.81	-8.92
738.834	17.08
738.858	-1.92
738.882	11.08
738.906	-11.92
738.93	-0.92
738.954	-2.92
738.978	3.08
739.002	-4.92
739.026	11.08
739.05	8.08
739.074	9.08
739.098	24.08
739.122	17.08
739.146	9.08
739.17	11.08
739.194	6.08
739.218	-9.92
739.242	-0.92
739.266	-3.92
739.29	8.08
739.314	23.08
739.338	-2.92
739.362	-8.92
739.386	-12.92
739.41	-0.92
739.434	-12.92
739.458	17.08
739.482	8.08
739.506	13.08
739.53	8.08
739.554	21.08
739.577	8.08
739.601	15.08
739.625	6.08
739.649	11.08
739.673	3.08
739.697	16.08
739.721	-4.92
739.745	24.08
739.769	10.08
739.793	14.08
739.817	6.08
739.841	-6.92
739.865	-0.92
739.889	-12.92
739.912	12.08
739.936	-9.92
739.96	-1.92
739.984	10.08
740.008	8.08
740.032	-0.92
740.056	-2.92
740.08	0.08
740.104	-8.92
740.127	10.08
740.151	17.08
740.175	16.08
740.199	12.08
740.223	38.08
740.247	3.08
740.271	1.08
740.295	1.08
740.318	-0.92
740.342	3.08
740.366	13.08
740.39	10.08
740.414	1.08
740.438	7.08
740.461	11.08
740.485	1.08
740.509	-3.92
740.533	24.08
740.557	-6.92
740.581	7.08
740.604	-11.92
740.628	-1.92
740.652	9.08
740.676	-6.92
740.7	11.08
740.723	-4.92
740.747	-4.92
740.771	2.08
740.795	-4.92
740.819	10.08
740.842	14.08
740.866	17.08
740.89	20.08
740.914	-0.92
740.938	-4.92
740.961	3.08
740.985	-1.92
741.009	12.08
741.033	-1.92
741.056	-2.92
741.08	0.08
741.104	9.08
741.128	6.08
741.151	19.08
741.175	1.08
741.199	3.08
741.223	5.08
741.246	-1.92
741.27	5.08
741.294	12.08
741.318	10.08
741.341	4.08
741.365	1.08
741.389	5.08
741.413	-8.92
741.436	14.08
741.46	9.08
741.484	13.08
741.507	10.08
741.531	29.08
741.555	13.08
741.579	9.08
741.602	-2.92
741.626	14.08
741.65	-1.92
741.673	0.08
741.697	9.08
741.721	-3.92
741.744	-7.92
741.768	0.08
741.792	6.08
741.815	6.08
741.839	13.08
741.863	11.08
741.886	20.08
741.91	12.08
741.934	7.08
741.957	1.08
741.981	11.08
742.005	1.08
742.028	-7.92
742.052	-11.92
742.075	16.08
742.099	4.08
742.123	-2.92
742.146	2.08
742.17	-5.92
742.194	-2.92
742.217	-6.92
742.241	1.08
742.264	0.08
742.288	10.08
742.312	0.08
742.335	-6.92
742.359	-9.92
742.382	8.08
742.406	-1.92
742.43	1.08
742.453	13.08
742.477	-5.92
742.5	-10.92
742.524	-8.92
742.548	-1.92
742.571	13.08
742.595	13.08
742.618	8.08
742.642	-19.92
742.665	0.08
742.689	3.08
742.712	6.08
742.736	1.08
742.76	-11.92
742.783	2.08
742.807	5.08
742.83	15.08
742.854	3.08
742.877	-8.92
742.901	10.08
742.924	-2.92
742.948	3.08
742.971	15.08
742.995	1.08
743.018	-0.92
743.042	-15.92
743.065	-6.92
743.089	-21.92
743.112	9.08
743.136	4.08
743.159	-3.92
743.183	7.08
743.206	6.08
743.23	-5.92
743.253	6.08
743.277	25.08
743.3	-6.92
743.324	0.08
743.347	-7.92
743.371	12.08
743.394	9.08
743.418	13.08
743.441	3.08
743.465	-1.92
743.488	-1.92
743.512	-7.92
743.535	8.08
743.558	-1.92
743.582	4.08
743.605	12.08
743.629	3.08
743.652	14.08
743.676	7.08
743.699	4.08
743.723	8.08
743.746	9.08
743.769	1.08
743.793	10.08
743.816	12.08
743.84	21.08
743.863	8.08
743.886	10.08
743.91	5.08
743.933	14.08
743.957	16.08
743.98	5.08
744.003	7.08
744.027	5.08
744.05	-5.92
744.074	6.08
744.097	-14.92
744.12	-4.92
744.144	1.08
744.167	9.08
744.19	12.08
744.214	-4.92
744.237	-7.92
744.26	11.08
744.284	-2.92
744.307	0.08
744.331	-1.92
744.354	-1.92
744.377	-8.92
744.401	11.08
744.424	5.08
744.447	-6.92
744.471	-5.92
