Data from HighRes_H2D2_15_04_11_07_2024_HR4C61891__33__15-05-37-743.txt Node

Date: Thu Nov 07 15:05:37 EST 2024
User: crc00042
Spectrometer: HR4C6189
Trigger mode: 4
Integration Time (sec): 1.000000E-1
Scans to average: 1
Electric dark correction enabled: true
Nonlinearity correction enabled: false
Boxcar width: 0
XAxis mode: Wavelengths
Number of Pixels in Spectrum: 3648
>>>>>Begin Spectral Data<<<<<
639.567	-17.31
639.602	-17.31
639.636	-17.31
639.67	-36.31
639.704	-11.31
639.738	0.69
639.773	6.69
639.807	-14.31
639.841	18.69
639.875	7.69
639.909	-9.31
639.943	-3.31
639.978	2.69
640.012	-2.31
640.046	5.69
640.08	5.69
640.114	-4.31
640.148	-14.31
640.182	1.69
640.217	-10.31
640.251	15.69
640.285	15.69
640.319	-13.31
640.353	-3.31
640.387	-13.31
640.421	-17.31
640.455	-2.31
640.49	-8.31
640.524	-6.31
640.558	5.69
640.592	-8.31
640.626	-6.31
640.66	6.69
640.694	-3.31
640.728	9.69
640.762	13.69
640.796	27.69
640.83	-0.31
640.865	-3.31
640.899	5.69
640.933	12.69
640.967	-5.31
641.001	9.69
641.035	11.69
641.069	-7.31
641.103	-10.31
641.137	-3.31
641.171	-10.31
641.205	-2.31
641.239	7.69
641.273	18.69
641.307	15.69
641.341	11.69
641.375	9.69
641.409	-9.31
641.443	-7.31
641.477	9.69
641.511	23.69
641.545	7.69
641.579	0.69
641.614	4.69
641.648	9.69
641.682	2.69
641.716	10.69
641.75	27.69
641.784	4.69
641.818	-17.31
641.852	-5.31
641.886	-20.31
641.919	8.69
641.953	-13.31
641.987	-13.31
642.021	6.69
642.055	7.69
642.089	6.69
642.123	3.69
642.157	2.69
642.191	-0.31
642.225	14.69
642.259	-0.31
642.293	13.69
642.327	5.69
642.361	-9.31
642.395	7.69
642.429	17.69
642.463	8.69
642.497	9.69
642.531	-13.31
642.565	-4.31
642.599	17.69
642.633	3.69
642.666	11.69
642.7	6.69
642.734	18.69
642.768	3.69
642.802	8.69
642.836	8.69
642.87	6.69
642.904	6.69
642.938	10.69
642.972	-4.31
643.005	9.69
643.039	17.69
643.073	13.69
643.107	14.69
643.141	4.69
643.175	-3.31
643.209	-7.31
643.243	-0.31
643.276	4.69
643.31	9.69
643.344	-4.31
643.378	4.69
643.412	9.69
643.446	10.69
643.48	6.69
643.513	3.69
643.547	0.69
643.581	-4.31
643.615	-0.31
643.649	-7.31
643.683	1.69
643.716	2.69
643.75	-3.31
643.784	-5.31
643.818	-11.31
643.852	-9.31
643.886	2.69
643.919	4.69
643.953	-1.31
643.987	5.69
644.021	21.69
644.055	15.69
644.088	14.69
644.122	5.69
644.156	10.69
644.19	5.69
644.224	11.69
644.257	16.69
644.291	7.69
644.325	5.69
644.359	19.69
644.392	25.69
644.426	24.69
644.46	-6.31
644.494	4.69
644.527	-28.31
644.561	0.69
644.595	0.69
644.629	-10.31
644.662	-7.31
644.696	20.69
644.73	10.69
644.764	-0.31
644.797	-2.31
644.831	0.69
644.865	11.69
644.899	19.69
644.932	20.69
644.966	-10.31
645	13.69
645.033	7.69
645.067	-8.31
645.101	6.69
645.135	6.69
645.168	-4.31
645.202	-5.31
645.236	-1.31
645.269	9.69
645.303	10.69
645.337	-11.31
645.37	-11.31
645.404	10.69
645.438	-5.31
645.471	-2.31
645.505	4.69
645.539	-13.31
645.572	-16.31
645.606	-2.31
645.64	7.69
645.673	6.69
645.707	35.69
645.741	5.69
645.774	-11.31
645.808	-4.31
645.842	-10.31
645.875	6.69
645.909	-1.31
645.943	-2.31
645.976	-4.31
646.01	-1.31
646.043	5.69
646.077	5.69
646.111	18.69
646.144	13.69
646.178	8.69
646.212	-10.31
646.245	-5.31
646.279	7.69
646.312	9.69
646.346	25.69
646.38	-0.31
646.413	18.69
646.447	2.69
646.48	-2.31
646.514	8.69
646.547	-0.31
646.581	-2.31
646.615	-0.31
646.648	5.69
646.682	0.69
646.715	-2.31
646.749	14.69
646.782	14.69
646.816	7.69
646.85	11.69
646.883	-2.31
646.917	12.69
646.95	4.69
646.984	-8.31
647.017	-19.31
647.051	-5.31
647.084	-3.31
647.118	-10.31
647.151	-14.31
647.185	-5.31
647.218	-11.31
647.252	14.69
647.285	-2.31
647.319	-10.31
647.353	-1.31
647.386	24.69
647.42	4.69
647.453	3.69
647.487	14.69
647.52	-9.31
647.553	0.69
647.587	-3.31
647.62	4.69
647.654	-1.31
647.687	3.69
647.721	14.69
647.754	-9.31
647.788	-10.31
647.821	-1.31
647.855	19.69
647.888	13.69
647.922	10.69
647.955	6.69
647.989	-1.31
648.022	-0.31
648.055	-2.31
648.089	12.69
648.122	35.69
648.156	0.69
648.189	-0.31
648.223	8.69
648.256	16.69
648.29	18.69
648.323	1.69
648.356	17.69
648.39	13.69
648.423	-2.31
648.457	-7.31
648.49	5.69
648.523	5.69
648.557	0.69
648.59	-5.31
648.624	-2.31
648.657	10.69
648.69	0.69
648.724	5.69
648.757	18.69
648.791	5.69
648.824	14.69
648.857	10.69
648.891	2.69
648.924	2.69
648.957	19.69
648.991	-6.31
649.024	13.69
649.057	6.69
649.091	-5.31
649.124	12.69
649.158	-1.31
649.191	16.69
649.224	-0.31
649.258	7.69
649.291	7.69
649.324	1.69
649.358	-4.31
649.391	6.69
649.424	1.69
649.458	6.69
649.491	-8.31
649.524	-7.31
649.557	-2.31
649.591	-29.31
649.624	6.69
649.657	-6.31
649.691	-21.31
649.724	21.69
649.757	7.69
649.791	1.69
649.824	23.69
649.857	25.69
649.89	11.69
649.924	-7.31
649.957	1.69
649.99	-15.31
650.023	13.69
650.057	0.69
650.09	-3.31
650.123	7.69
650.157	27.69
650.19	12.69
650.223	-3.31
650.256	-3.31
650.29	5.69
650.323	7.69
650.356	10.69
650.389	7.69
650.423	-9.31
650.456	13.69
650.489	11.69
650.522	9.69
650.555	11.69
650.589	16.69
650.622	8.69
650.655	17.69
650.688	4.69
650.721	-7.31
650.755	5.69
650.788	9.69
650.821	-7.31
650.854	-4.31
650.887	6.69
650.921	7.69
650.954	5.69
650.987	4.69
651.02	1.69
651.053	-26.31
651.087	1.69
651.12	13.69
651.153	9.69
651.186	4.69
651.219	-21.31
651.252	-0.31
651.286	24.69
651.319	12.69
651.352	-4.31
651.385	1.69
651.418	10.69
651.451	14.69
651.484	12.69
651.518	-14.31
651.551	0.69
651.584	-5.31
651.617	14.69
651.65	-4.31
651.683	27.69
651.716	7.69
651.749	-10.31
651.783	-3.31
651.816	-18.31
651.849	9.69
651.882	11.69
651.915	13.69
651.948	11.69
651.981	6.69
652.014	0.69
652.047	-0.31
652.08	-7.31
652.114	11.69
652.147	-10.31
652.18	25.69
652.213	30.69
652.246	11.69
652.279	4.69
652.312	-3.31
652.345	8.69
652.378	-2.31
652.411	9.69
652.444	18.69
652.477	16.69
652.51	3.69
652.543	-6.31
652.576	2.69
652.609	-11.31
652.642	4.69
652.675	5.69
652.709	-3.31
652.742	9.69
652.775	5.69
652.808	11.69
652.841	1.69
652.874	5.69
652.907	5.69
652.94	9.69
652.973	-9.31
653.006	9.69
653.039	-7.31
653.072	1.69
653.105	-18.31
653.138	-10.31
653.171	6.69
653.204	13.69
653.237	15.69
653.27	-4.31
653.303	10.69
653.336	17.69
653.368	-13.31
653.401	2.69
653.434	-12.31
653.467	6.69
653.5	-10.31
653.533	-1.31
653.566	2.69
653.599	5.69
653.632	2.69
653.665	3.69
653.698	-3.31
653.731	-3.31
653.764	0.69
653.797	7.69
653.83	2.69
653.863	-0.31
653.896	-11.31
653.929	-18.31
653.961	20.69
653.994	1.69
654.027	-5.31
654.06	-1.31
654.093	15.69
654.126	5.69
654.159	14.69
654.192	2.69
654.225	4.69
654.258	-6.31
654.29	9.69
654.323	8.69
654.356	12.69
654.389	6.69
654.422	-3.31
654.455	2.69
654.488	-7.31
654.521	-0.31
654.553	-10.31
654.586	15.69
654.619	16.69
654.652	12.69
654.685	12.69
654.718	12.69
654.751	10.69
654.783	-3.31
654.816	2.69
654.849	7.69
654.882	-1.31
654.915	-0.31
654.948	-1.31
654.98	8.69
655.013	11.69
655.046	8.69
655.079	3.69
655.112	18.69
655.144	3.69
655.177	-1.31
655.21	19.69
655.243	19.69
655.276	14.69
655.308	-2.31
655.341	-4.31
655.374	9.69
655.407	13.69
655.44	9.69
655.472	19.69
655.505	9.69
655.538	14.69
655.571	22.69
655.603	0.69
655.636	-10.31
655.669	8.69
655.702	-1.31
655.734	-0.31
655.767	17.69
655.8	7.69
655.833	11.69
655.865	22.69
655.898	18.69
655.931	13.69
655.964	18.69
655.996	13.69
656.029	22.69
656.062	24.69
656.095	49.69
656.127	67.69
656.16	206.69
656.193	642.69
656.225	964.69
656.258	555.69
656.291	222.69
656.324	180.69
656.356	346.69
656.389	754.69
656.422	664.69
656.454	218.69
656.487	57.69
656.52	32.69
656.552	10.69
656.585	12.69
656.618	17.69
656.65	22.69
656.683	0.69
656.716	10.69
656.748	-13.31
656.781	7.69
656.814	0.69
656.846	3.69
656.879	-4.31
656.912	17.69
656.944	2.69
656.977	-7.31
657.01	-1.31
657.042	14.69
657.075	1.69
657.108	-21.31
657.14	1.69
657.173	16.69
657.205	27.69
657.238	13.69
657.271	12.69
657.303	-16.31
657.336	-0.31
657.369	-2.31
657.401	-5.31
657.434	16.69
657.466	3.69
657.499	12.69
657.532	-3.31
657.564	11.69
657.597	0.69
657.629	0.69
657.662	11.69
657.694	2.69
657.727	-20.31
657.76	13.69
657.792	4.69
657.825	-8.31
657.857	-7.31
657.89	5.69
657.922	9.69
657.955	-3.31
657.987	6.69
658.02	11.69
658.053	20.69
658.085	1.69
658.118	-1.31
658.15	7.69
658.183	13.69
658.215	-8.31
658.248	12.69
658.28	-2.31
658.313	15.69
658.345	12.69
658.378	14.69
658.41	11.69
658.443	5.69
658.475	9.69
658.508	2.69
658.54	-19.31
658.573	-10.31
658.605	18.69
658.638	15.69
658.67	-8.31
658.703	15.69
658.735	2.69
658.768	22.69
658.8	13.69
658.833	36.69
658.865	4.69
658.898	-1.31
658.93	7.69
658.963	-3.31
658.995	-2.31
659.028	-0.31
659.06	-9.31
659.092	-10.31
659.125	11.69
659.157	22.69
659.19	-0.31
659.222	10.69
659.255	-7.31
659.287	11.69
659.32	5.69
659.352	3.69
659.384	2.69
659.417	13.69
659.449	4.69
659.482	11.69
659.514	3.69
659.546	-2.31
659.579	-10.31
659.611	8.69
659.644	5.69
659.676	9.69
659.708	-22.31
659.741	-9.31
659.773	11.69
659.806	7.69
659.838	-2.31
659.87	-3.31
659.903	-1.31
659.935	13.69
659.967	-1.31
660	2.69
660.032	-25.31
660.065	13.69
660.097	5.69
660.129	4.69
660.162	-6.31
660.194	16.69
660.226	2.69
660.259	27.69
660.291	-9.31
660.323	-11.31
660.356	-8.31
660.388	-7.31
660.42	0.69
660.453	9.69
660.485	-0.31
660.517	16.69
660.55	19.69
660.582	9.69
660.614	6.69
660.647	-2.31
660.679	-7.31
660.711	-11.31
660.743	2.69
660.776	3.69
660.808	-7.31
660.84	-15.31
660.873	6.69
660.905	-6.31
660.937	4.69
660.969	-8.31
661.002	9.69
661.034	15.69
661.066	11.69
661.099	-1.31
661.131	9.69
661.163	13.69
661.195	10.69
661.228	4.69
661.26	-4.31
661.292	11.69
661.324	13.69
661.357	2.69
661.389	12.69
661.421	23.69
661.453	12.69
661.485	26.69
661.518	11.69
661.55	-17.31
661.582	-7.31
661.614	-20.31
661.647	2.69
661.679	3.69
661.711	2.69
661.743	1.69
661.775	9.69
661.808	18.69
661.84	-7.31
661.872	-10.31
661.904	-7.31
661.936	-8.31
661.969	-9.31
662.001	6.69
662.033	10.69
662.065	-4.31
662.097	8.69
662.129	1.69
662.162	-10.31
662.194	-0.31
662.226	-4.31
662.258	1.69
662.29	2.69
662.322	-17.31
662.355	-13.31
662.387	20.69
662.419	22.69
662.451	6.69
662.483	-7.31
662.515	1.69
662.547	-3.31
662.58	-7.31
662.612	-5.31
662.644	3.69
662.676	-5.31
662.708	23.69
662.74	9.69
662.772	4.69
662.804	2.69
662.836	0.69
662.869	-5.31
662.901	4.69
662.933	10.69
662.965	2.69
662.997	7.69
663.029	-14.31
663.061	-2.31
663.093	14.69
663.125	12.69
663.157	9.69
663.189	3.69
663.221	4.69
663.254	1.69
663.286	-8.31
663.318	-5.31
663.35	-5.31
663.382	5.69
663.414	11.69
663.446	12.69
663.478	-10.31
663.51	16.69
663.542	-13.31
663.574	-5.31
663.606	10.69
663.638	1.69
663.67	6.69
663.702	-0.31
663.734	11.69
663.766	10.69
663.798	-7.31
663.83	1.69
663.862	16.69
663.894	13.69
663.926	-17.31
663.958	6.69
663.99	-1.31
664.022	-21.31
664.054	10.69
664.086	-6.31
664.118	-7.31
664.15	-10.31
664.182	1.69
664.214	-4.31
664.246	-1.31
664.278	-2.31
664.31	26.69
664.342	6.69
664.374	-20.31
664.406	-16.31
664.438	-16.31
664.47	5.69
664.502	-6.31
664.534	-14.31
664.566	-10.31
664.598	8.69
664.63	-9.31
664.662	3.69
664.693	-4.31
664.725	-14.31
664.757	-5.31
664.789	-8.31
664.821	1.69
664.853	17.69
664.885	2.69
664.917	-0.31
664.949	19.69
664.981	20.69
665.013	9.69
665.045	-20.31
665.076	-0.31
665.108	-0.31
665.14	-3.31
665.172	0.69
665.204	8.69
665.236	-3.31
665.268	6.69
665.3	3.69
665.331	-14.31
665.363	-2.31
665.395	-10.31
665.427	-4.31
665.459	3.69
665.491	8.69
665.523	6.69
665.555	-13.31
665.586	-1.31
665.618	0.69
665.65	-6.31
665.682	10.69
665.714	13.69
665.746	-4.31
665.777	8.69
665.809	6.69
665.841	17.69
665.873	4.69
665.905	0.69
665.937	15.69
665.968	6.69
666	1.69
666.032	12.69
666.064	1.69
666.096	6.69
666.127	-2.31
666.159	3.69
666.191	5.69
666.223	7.69
666.255	0.69
666.286	-0.31
666.318	-15.31
666.35	17.69
666.382	4.69
666.413	-7.31
666.445	-5.31
666.477	-0.31
666.509	-9.31
666.54	0.69
666.572	-6.31
666.604	4.69
666.636	-9.31
666.667	22.69
666.699	19.69
666.731	-2.31
666.763	-10.31
666.794	-3.31
666.826	10.69
666.858	-6.31
666.89	-2.31
666.921	-0.31
666.953	-5.31
666.985	5.69
667.017	17.69
667.048	1.69
667.08	-5.31
667.112	-2.31
667.143	-3.31
667.175	7.69
667.207	8.69
667.238	15.69
667.27	-4.31
667.302	2.69
667.334	-0.31
667.365	12.69
667.397	2.69
667.429	-14.31
667.46	15.69
667.492	12.69
667.524	3.69
667.555	-14.31
667.587	-2.31
667.619	-10.31
667.65	-28.31
667.682	8.69
667.714	1.69
667.745	4.69
667.777	-9.31
667.808	9.69
667.84	11.69
667.872	-4.31
667.903	26.69
667.935	4.69
667.967	-12.31
667.998	-0.31
668.03	0.69
668.061	6.69
668.093	0.69
668.125	10.69
668.156	17.69
668.188	-23.31
668.22	-17.31
668.251	-3.31
668.283	9.69
668.314	13.69
668.346	-5.31
668.377	1.69
668.409	-7.31
668.441	6.69
668.472	9.69
668.504	5.69
668.535	5.69
668.567	18.69
668.599	10.69
668.63	8.69
668.662	-8.31
668.693	23.69
668.725	18.69
668.756	9.69
668.788	-2.31
668.819	8.69
668.851	16.69
668.882	12.69
668.914	5.69
668.946	16.69
668.977	0.69
669.009	4.69
669.04	-0.31
669.072	2.69
669.103	-6.31
669.135	-10.31
669.166	7.69
669.198	6.69
669.229	14.69
669.261	2.69
669.292	-7.31
669.324	12.69
669.355	4.69
669.387	8.69
669.418	7.69
669.45	-18.31
669.481	5.69
669.513	7.69
669.544	5.69
669.576	5.69
669.607	11.69
669.639	-0.31
669.67	-16.31
669.701	8.69
669.733	-15.31
669.764	0.69
669.796	-5.31
669.827	-12.31
669.859	-13.31
669.89	26.69
669.922	12.69
669.953	10.69
669.985	12.69
670.016	12.69
670.047	18.69
670.079	7.69
670.11	-2.31
670.142	2.69
670.173	-5.31
670.204	-6.31
670.236	14.69
670.267	0.69
670.299	-14.31
670.33	0.69
670.362	6.69
670.393	-20.31
670.424	2.69
670.456	-20.31
670.487	1.69
670.518	6.69
670.55	-3.31
670.581	10.69
670.613	5.69
670.644	-1.31
670.675	-3.31
670.707	-9.31
670.738	-2.31
670.769	-6.31
670.801	-3.31
670.832	1.69
670.864	-5.31
670.895	-5.31
670.926	-0.31
670.958	4.69
670.989	-2.31
671.02	2.69
671.052	9.69
671.083	4.69
671.114	-9.31
671.146	8.69
671.177	1.69
671.208	-7.31
671.24	-0.31
671.271	-2.31
671.302	3.69
671.333	-11.31
671.365	1.69
671.396	-2.31
671.427	-0.31
671.459	5.69
671.49	5.69
671.521	1.69
671.553	5.69
671.584	15.69
671.615	4.69
671.646	-2.31
671.678	-3.31
671.709	-17.31
671.74	-18.31
671.771	-12.31
671.803	-6.31
671.834	-4.31
671.865	-4.31
671.896	2.69
671.928	-12.31
671.959	-3.31
671.99	-8.31
672.021	-14.31
672.053	0.69
672.084	7.69
672.115	-5.31
672.146	2.69
672.178	1.69
672.209	3.69
672.24	1.69
672.271	28.69
672.303	13.69
672.334	-0.31
672.365	-3.31
672.396	-3.31
672.427	12.69
672.459	19.69
672.49	24.69
672.521	-3.31
672.552	16.69
672.583	10.69
672.615	-9.31
672.646	-5.31
672.677	-6.31
672.708	5.69
672.739	8.69
672.77	17.69
672.802	14.69
672.833	-3.31
672.864	8.69
672.895	11.69
672.926	10.69
672.957	-10.31
672.989	3.69
673.02	7.69
673.051	-7.31
673.082	3.69
673.113	9.69
673.144	10.69
673.175	8.69
673.206	-7.31
673.238	6.69
673.269	9.69
673.3	-7.31
673.331	-6.31
673.362	11.69
673.393	6.69
673.424	20.69
673.455	27.69
673.487	-5.31
673.518	27.69
673.549	8.69
673.58	16.69
673.611	5.69
673.642	4.69
673.673	-17.31
673.704	5.69
673.735	7.69
673.766	-4.31
673.797	-12.31
673.828	10.69
673.86	-21.31
673.891	0.69
673.922	-1.31
673.953	-0.31
673.984	-1.31
674.015	12.69
674.046	0.69
674.077	3.69
674.108	-4.31
674.139	1.69
674.17	3.69
674.201	-14.31
674.232	-12.31
674.263	-10.31
674.294	-5.31
674.325	-9.31
674.356	19.69
674.387	25.69
674.418	6.69
674.449	1.69
674.48	-9.31
674.511	0.69
674.542	18.69
674.573	-13.31
674.604	9.69
674.635	4.69
674.666	6.69
674.697	7.69
674.728	-0.31
674.759	-10.31
674.79	-0.31
674.821	4.69
674.852	6.69
674.883	3.69
674.914	5.69
674.945	-6.31
674.976	1.69
675.007	-5.31
675.038	-13.31
675.069	-10.31
675.1	-0.31
675.131	8.69
675.162	-18.31
675.193	-7.31
675.224	-5.31
675.254	10.69
675.285	-0.31
675.316	7.69
675.347	1.69
675.378	-15.31
675.409	-20.31
675.44	2.69
675.471	-2.31
675.502	-17.31
675.533	2.69
675.564	-7.31
675.595	1.69
675.625	16.69
675.656	10.69
675.687	6.69
675.718	0.69
675.749	16.69
675.78	23.69
675.811	-10.31
675.842	9.69
675.873	4.69
675.903	-4.31
675.934	1.69
675.965	9.69
675.996	-7.31
676.027	13.69
676.058	-8.31
676.089	-6.31
676.119	-1.31
676.15	-5.31
676.181	0.69
676.212	-6.31
676.243	8.69
676.274	-15.31
676.304	16.69
676.335	-8.31
676.366	0.69
676.397	8.69
676.428	5.69
676.459	-5.31
676.489	10.69
676.52	6.69
676.551	-2.31
676.582	-4.31
676.613	8.69
676.643	-2.31
676.674	17.69
676.705	1.69
676.736	6.69
676.767	20.69
676.797	5.69
676.828	7.69
676.859	-5.31
676.89	2.69
676.92	-2.31
676.951	-3.31
676.982	3.69
677.013	5.69
677.044	7.69
677.074	-7.31
677.105	-14.31
677.136	-0.31
677.167	5.69
677.197	10.69
677.228	-5.31
677.259	-1.31
677.289	10.69
677.32	-12.31
677.351	0.69
677.382	-2.31
677.412	9.69
677.443	12.69
677.474	-8.31
677.505	-9.31
677.535	-1.31
677.566	13.69
677.597	0.69
677.627	-1.31
677.658	-0.31
677.689	13.69
677.72	-2.31
677.75	5.69
677.781	-1.31
677.812	10.69
677.842	24.69
677.873	12.69
677.904	1.69
677.934	11.69
677.965	-6.31
677.996	-14.31
678.026	7.69
678.057	9.69
678.088	-7.31
678.118	-12.31
678.149	-8.31
678.18	2.69
678.21	-0.31
678.241	8.69
678.272	-4.31
678.302	2.69
678.333	1.69
678.363	10.69
678.394	0.69
678.425	2.69
678.455	-3.31
678.486	13.69
678.517	-9.31
678.547	2.69
678.578	-1.31
678.608	-9.31
678.639	6.69
678.67	0.69
678.7	1.69
678.731	-3.31
678.761	-3.31
678.792	21.69
678.823	21.69
678.853	-6.31
678.884	-10.31
678.914	4.69
678.945	18.69
678.975	2.69
679.006	6.69
679.037	-9.31
679.067	21.69
679.098	-21.31
679.128	-2.31
679.159	-4.31
679.189	9.69
679.22	-2.31
679.25	7.69
679.281	3.69
679.312	3.69
679.342	6.69
679.373	19.69
679.403	14.69
679.434	6.69
679.464	-3.31
679.495	-9.31
679.525	9.69
679.556	-2.31
679.586	9.69
679.617	2.69
679.647	14.69
679.678	-7.31
679.708	-2.31
679.739	4.69
679.769	10.69
679.8	5.69
679.83	5.69
679.861	7.69
679.891	1.69
679.922	-11.31
679.952	3.69
679.983	-1.31
680.013	-12.31
680.044	-8.31
680.074	15.69
680.105	23.69
680.135	-3.31
680.165	19.69
680.196	1.69
680.226	-5.31
680.257	8.69
680.287	-10.31
680.318	5.69
680.348	-4.31
680.379	7.69
680.409	4.69
680.439	6.69
680.47	-6.31
680.5	-10.31
680.531	3.69
680.561	-2.31
680.592	-1.31
680.622	15.69
680.652	2.69
680.683	6.69
680.713	2.69
680.744	1.69
680.774	-9.31
680.804	19.69
680.835	-11.31
680.865	-13.31
680.896	27.69
680.926	16.69
680.956	-0.31
680.987	11.69
681.017	-2.31
681.047	9.69
681.078	-10.31
681.108	2.69
681.139	17.69
681.169	-7.31
681.199	-1.31
681.23	1.69
681.26	-10.31
681.29	-10.31
681.321	-1.31
681.351	4.69
681.381	-0.31
681.412	1.69
681.442	9.69
681.472	21.69
681.503	-6.31
681.533	-0.31
681.563	15.69
681.594	-1.31
681.624	16.69
681.654	-7.31
681.685	-11.31
681.715	-3.31
681.745	7.69
681.775	-7.31
681.806	-2.31
681.836	6.69
681.866	-10.31
681.897	5.69
681.927	-6.31
681.957	-11.31
681.987	8.69
682.018	1.69
682.048	-7.31
682.078	10.69
682.109	19.69
682.139	3.69
682.169	10.69
682.199	1.69
682.23	-15.31
682.26	1.69
682.29	-15.31
682.32	-4.31
682.351	-11.31
682.381	5.69
682.411	0.69
682.441	-5.31
682.472	5.69
682.502	-1.31
682.532	4.69
682.562	-0.31
682.592	5.69
682.623	7.69
682.653	5.69
682.683	7.69
682.713	7.69
682.743	9.69
682.774	2.69
682.804	9.69
682.834	3.69
682.864	-0.31
682.894	2.69
682.925	-3.31
682.955	-3.31
682.985	-16.31
683.015	-7.31
683.045	-4.31
683.076	-8.31
683.106	-10.31
683.136	3.69
683.166	-1.31
683.196	-2.31
683.226	8.69
683.257	-12.31
683.287	-7.31
683.317	-6.31
683.347	-2.31
683.377	-2.31
683.407	8.69
683.437	-2.31
683.468	28.69
683.498	-19.31
683.528	-12.31
683.558	-7.31
683.588	-10.31
683.618	10.69
683.648	-6.31
683.678	17.69
683.708	8.69
683.739	-5.31
683.769	0.69
683.799	1.69
683.829	1.69
683.859	1.69
683.889	7.69
683.919	0.69
683.949	15.69
683.979	10.69
684.009	2.69
684.039	0.69
684.07	-12.31
684.1	10.69
684.13	10.69
684.16	-6.31
684.19	-14.31
684.22	-4.31
684.25	0.69
684.28	11.69
684.31	17.69
684.34	-7.31
684.37	1.69
684.4	7.69
684.43	12.69
684.46	13.69
684.49	10.69
684.52	2.69
684.55	12.69
684.58	4.69
684.61	5.69
684.64	5.69
684.67	14.69
684.7	18.69
684.73	3.69
684.76	2.69
684.79	15.69
684.82	-1.31
684.85	-10.31
684.88	2.69
684.91	15.69
684.94	7.69
684.97	-6.31
685	-7.31
685.03	-17.31
685.06	2.69
685.09	14.69
685.12	19.69
685.15	-13.31
685.18	5.69
685.21	2.69
685.24	21.69
685.27	8.69
685.3	7.69
685.33	25.69
685.36	1.69
685.39	-7.31
685.42	-6.31
685.45	-5.31
685.48	14.69
685.51	-2.31
685.54	-2.31
685.569	23.69
685.599	5.69
685.629	-3.31
685.659	3.69
685.689	13.69
685.719	-2.31
685.749	-0.31
685.779	6.69
685.809	16.69
685.839	0.69
685.869	15.69
685.898	9.69
685.928	13.69
685.958	6.69
685.988	-2.31
686.018	9.69
686.048	5.69
686.078	8.69
686.108	16.69
686.137	24.69
686.167	35.69
686.197	-7.31
686.227	7.69
686.257	16.69
686.287	10.69
686.317	2.69
686.346	-5.31
686.376	-6.31
686.406	1.69
686.436	19.69
686.466	-1.31
686.496	-7.31
686.525	-3.31
686.555	11.69
686.585	2.69
686.615	27.69
686.645	12.69
686.675	7.69
686.704	12.69
686.734	4.69
686.764	-10.31
686.794	17.69
686.824	5.69
686.853	26.69
686.883	1.69
686.913	18.69
686.943	-17.31
686.973	3.69
687.002	16.69
687.032	12.69
687.062	-0.31
687.092	17.69
687.121	-2.31
687.151	-6.31
687.181	-1.31
687.211	4.69
687.24	-11.31
687.27	10.69
687.3	5.69
687.33	4.69
687.359	-9.31
687.389	6.69
687.419	-0.31
687.449	-9.31
687.478	-14.31
687.508	9.69
687.538	12.69
687.568	-0.31
687.597	-9.31
687.627	3.69
687.657	1.69
687.686	-0.31
687.716	25.69
687.746	-6.31
687.776	-3.31
687.805	7.69
687.835	1.69
687.865	17.69
687.894	19.69
687.924	-5.31
687.954	-5.31
687.983	3.69
688.013	11.69
688.043	2.69
688.072	-23.31
688.102	7.69
688.132	-6.31
688.161	15.69
688.191	11.69
688.221	18.69
688.25	5.69
688.28	5.69
688.31	-3.31
688.339	11.69
688.369	8.69
688.399	-4.31
688.428	-2.31
688.458	2.69
688.488	-3.31
688.517	6.69
688.547	-1.31
688.576	22.69
688.606	13.69
688.636	-9.31
688.665	18.69
688.695	12.69
688.725	23.69
688.754	7.69
688.784	-6.31
688.813	11.69
688.843	-15.31
688.873	-8.31
688.902	1.69
688.932	-5.31
688.961	-5.31
688.991	17.69
689.02	7.69
689.05	-2.31
689.08	19.69
689.109	13.69
689.139	24.69
689.168	11.69
689.198	1.69
689.227	-4.31
689.257	9.69
689.287	11.69
689.316	12.69
689.346	-3.31
689.375	-5.31
689.405	10.69
689.434	-3.31
689.464	-2.31
689.493	-4.31
689.523	-1.31
689.552	6.69
689.582	-7.31
689.611	-9.31
689.641	-0.31
689.67	-1.31
689.7	8.69
689.73	5.69
689.759	13.69
689.789	27.69
689.818	8.69
689.848	-3.31
689.877	21.69
689.906	9.69
689.936	-2.31
689.965	8.69
689.995	7.69
690.024	8.69
690.054	13.69
690.083	-6.31
690.113	10.69
690.142	14.69
690.172	-2.31
690.201	-2.31
690.231	-1.31
690.26	1.69
690.29	-1.31
690.319	13.69
690.348	10.69
690.378	1.69
690.407	14.69
690.437	4.69
690.466	4.69
690.496	-3.31
690.525	2.69
690.555	-6.31
690.584	18.69
690.613	14.69
690.643	9.69
690.672	22.69
690.702	7.69
690.731	2.69
690.76	4.69
690.79	6.69
690.819	0.69
690.849	-0.31
690.878	9.69
690.907	12.69
690.937	20.69
690.966	13.69
690.996	10.69
691.025	8.69
691.054	-1.31
691.084	-9.31
691.113	-0.31
691.142	4.69
691.172	1.69
691.201	9.69
691.23	-0.31
691.26	20.69
691.289	7.69
691.319	-6.31
691.348	15.69
691.377	19.69
691.407	9.69
691.436	12.69
691.465	14.69
691.495	7.69
691.524	4.69
691.553	7.69
691.583	5.69
691.612	10.69
691.641	-1.31
691.67	5.69
691.7	6.69
691.729	-7.31
691.758	5.69
691.788	-4.31
691.817	-8.31
691.846	6.69
691.876	9.69
691.905	-4.31
691.934	-4.31
691.963	1.69
691.993	1.69
692.022	-5.31
692.051	-6.31
692.081	8.69
692.11	9.69
692.139	9.69
692.168	18.69
692.198	5.69
692.227	4.69
692.256	0.69
692.285	-3.31
692.315	2.69
692.344	5.69
692.373	-3.31
692.402	-8.31
692.432	-6.31
692.461	-7.31
692.49	-9.31
692.519	17.69
692.548	8.69
692.578	23.69
692.607	2.69
692.636	-7.31
692.665	6.69
692.694	7.69
692.724	10.69
692.753	5.69
692.782	12.69
692.811	-0.31
692.84	17.69
692.87	7.69
692.899	-10.31
692.928	-15.31
692.957	1.69
692.986	3.69
693.016	10.69
693.045	8.69
693.074	12.69
693.103	10.69
693.132	22.69
693.161	2.69
693.191	-12.31
693.22	-11.31
693.249	7.69
693.278	7.69
693.307	20.69
693.336	-0.31
693.365	-15.31
693.395	4.69
693.424	12.69
693.453	13.69
693.482	6.69
693.511	5.69
693.54	13.69
693.569	9.69
693.598	10.69
693.628	21.69
693.657	23.69
693.686	18.69
693.715	8.69
693.744	12.69
693.773	9.69
693.802	6.69
693.831	-2.31
693.86	27.69
693.889	5.69
693.919	-3.31
693.948	-5.31
693.977	10.69
694.006	0.69
694.035	-5.31
694.064	-1.31
694.093	-1.31
694.122	4.69
694.151	0.69
694.18	5.69
694.209	27.69
694.238	5.69
694.267	15.69
694.296	9.69
694.325	0.69
694.354	17.69
694.383	3.69
694.412	-7.31
694.441	8.69
694.471	-1.31
694.5	-2.31
694.529	12.69
694.558	31.69
694.587	18.69
694.616	-3.31
694.645	3.69
694.674	5.69
694.703	10.69
694.732	-5.31
694.761	19.69
694.79	5.69
694.819	-6.31
694.848	9.69
694.877	11.69
694.906	14.69
694.935	10.69
694.963	24.69
694.992	13.69
695.021	16.69
695.05	11.69
695.079	4.69
695.108	-5.31
695.137	20.69
695.166	4.69
695.195	0.69
695.224	3.69
695.253	8.69
695.282	11.69
695.311	11.69
695.34	17.69
695.369	8.69
695.398	10.69
695.427	17.69
695.456	6.69
695.485	7.69
695.513	8.69
695.542	6.69
695.571	6.69
695.6	18.69
695.629	11.69
695.658	18.69
695.687	3.69
695.716	-2.31
695.745	29.69
695.774	7.69
695.802	-11.31
695.831	21.69
695.86	17.69
695.889	19.69
695.918	2.69
695.947	5.69
695.976	-7.31
696.005	7.69
696.033	12.69
696.062	20.69
696.091	-3.31
696.12	1.69
696.149	9.69
696.178	4.69
696.207	13.69
696.235	-21.31
696.264	15.69
696.293	7.69
696.322	-3.31
696.351	27.69
696.38	-10.31
696.408	-14.31
696.437	-1.31
696.466	17.69
696.495	8.69
696.524	16.69
696.553	8.69
696.581	14.69
696.61	2.69
696.639	-5.31
696.668	0.69
696.697	-7.31
696.725	16.69
696.754	-2.31
696.783	-9.31
696.812	1.69
696.84	4.69
696.869	-1.31
696.898	4.69
696.927	-0.31
696.956	19.69
696.984	3.69
697.013	0.69
697.042	5.69
697.071	1.69
697.099	20.69
697.128	24.69
697.157	11.69
697.186	-3.31
697.214	-5.31
697.243	-8.31
697.272	12.69
697.301	15.69
697.329	13.69
697.358	2.69
697.387	14.69
697.415	29.69
697.444	9.69
697.473	19.69
697.502	5.69
697.53	3.69
697.559	6.69
697.588	15.69
697.616	14.69
697.645	-2.31
697.674	11.69
697.703	2.69
697.731	11.69
697.76	13.69
697.789	29.69
697.817	6.69
697.846	25.69
697.875	10.69
697.903	27.69
697.932	9.69
697.961	7.69
697.989	17.69
698.018	14.69
698.047	21.69
698.075	11.69
698.104	3.69
698.133	-11.31
698.161	1.69
698.19	-6.31
698.218	4.69
698.247	8.69
698.276	-1.31
698.304	10.69
698.333	2.69
698.362	21.69
698.39	6.69
698.419	15.69
698.447	-1.31
698.476	-1.31
698.505	2.69
698.533	13.69
698.562	3.69
698.591	-5.31
698.619	-0.31
698.648	2.69
698.676	8.69
698.705	5.69
698.733	-12.31
698.762	0.69
698.791	-19.31
698.819	7.69
698.848	7.69
698.876	12.69
698.905	18.69
698.933	16.69
698.962	8.69
698.991	16.69
699.019	13.69
699.048	-2.31
699.076	16.69
699.105	-6.31
699.133	3.69
699.162	6.69
699.19	9.69
699.219	21.69
699.248	0.69
699.276	3.69
699.305	0.69
699.333	1.69
699.362	-14.31
699.39	4.69
699.419	-0.31
699.447	11.69
699.476	13.69
699.504	-1.31
699.533	1.69
699.561	-14.31
699.59	2.69
699.618	-9.31
699.647	-1.31
699.675	-2.31
699.704	14.69
699.732	-6.31
699.761	-16.31
699.789	-4.31
699.818	18.69
699.846	0.69
699.874	2.69
699.903	-3.31
699.931	8.69
699.96	5.69
699.988	3.69
700.017	-2.31
700.045	10.69
700.074	8.69
700.102	6.69
700.13	1.69
700.159	0.69
700.187	16.69
700.216	0.69
700.244	-6.31
700.273	-18.31
700.301	-2.31
700.329	8.69
700.358	15.69
700.386	11.69
700.415	1.69
700.443	11.69
700.472	-3.31
700.5	-5.31
700.528	-4.31
700.557	6.69
700.585	1.69
700.614	0.69
700.642	17.69
700.67	22.69
700.699	19.69
700.727	24.69
700.755	-12.31
700.784	10.69
700.812	6.69
700.841	-1.31
700.869	-3.31
700.897	-9.31
700.926	-3.31
700.954	2.69
700.982	12.69
701.011	-3.31
701.039	-4.31
701.067	2.69
701.096	16.69
701.124	-25.31
701.152	-7.31
701.181	5.69
701.209	3.69
701.237	10.69
701.266	12.69
701.294	4.69
701.322	17.69
701.351	14.69
701.379	4.69
701.407	-4.31
701.435	3.69
701.464	6.69
701.492	12.69
701.52	-8.31
701.549	-10.31
701.577	-17.31
701.605	-5.31
701.634	1.69
701.662	12.69
701.69	-3.31
701.718	4.69
701.747	4.69
701.775	21.69
701.803	0.69
701.831	10.69
701.86	-5.31
701.888	5.69
701.916	2.69
701.944	-11.31
701.973	-6.31
702.001	-12.31
702.029	-8.31
702.057	-12.31
702.086	-15.31
702.114	-16.31
702.142	0.69
702.17	-8.31
702.199	-2.31
702.227	-3.31
702.255	9.69
702.283	-8.31
702.311	0.69
702.34	4.69
702.368	2.69
702.396	5.69
702.424	5.69
702.452	2.69
702.481	2.69
702.509	2.69
702.537	16.69
702.565	4.69
702.593	-25.31
702.621	-3.31
702.65	15.69
702.678	9.69
702.706	23.69
702.734	16.69
702.762	-0.31
702.79	2.69
702.819	4.69
702.847	1.69
702.875	11.69
702.903	7.69
702.931	6.69
702.959	8.69
702.988	20.69
703.016	2.69
703.044	-5.31
703.072	-12.31
703.1	-2.31
703.128	-11.31
703.156	8.69
703.184	-1.31
703.212	8.69
703.241	-2.31
703.269	5.69
703.297	13.69
703.325	2.69
703.353	-14.31
703.381	-16.31
703.409	6.69
703.437	-1.31
703.465	-4.31
703.493	-14.31
703.522	0.69
703.55	10.69
703.578	4.69
703.606	-13.31
703.634	5.69
703.662	5.69
703.69	-5.31
703.718	20.69
703.746	10.69
703.774	11.69
703.802	18.69
703.83	12.69
703.858	5.69
703.886	-2.31
703.914	5.69
703.942	10.69
703.97	0.69
703.998	-6.31
704.027	25.69
704.055	3.69
704.083	-1.31
704.111	1.69
704.139	5.69
704.167	-0.31
704.195	7.69
704.223	-6.31
704.251	6.69
704.279	14.69
704.307	6.69
704.335	-2.31
704.363	0.69
704.391	4.69
704.419	-1.31
704.447	-6.31
704.475	-2.31
704.503	2.69
704.531	12.69
704.558	3.69
704.586	4.69
704.614	7.69
704.642	-1.31
704.67	-10.31
704.698	2.69
704.726	-1.31
704.754	0.69
704.782	-3.31
704.81	-10.31
704.838	16.69
704.866	9.69
704.894	-11.31
704.922	-5.31
704.95	17.69
704.978	11.69
705.006	-3.31
705.034	0.69
705.061	-7.31
705.089	4.69
705.117	1.69
705.145	5.69
705.173	1.69
705.201	4.69
705.229	14.69
705.257	7.69
705.285	10.69
705.313	14.69
705.34	10.69
705.368	4.69
705.396	7.69
705.424	-1.31
705.452	-7.31
705.48	6.69
705.508	8.69
705.536	3.69
705.563	1.69
705.591	3.69
705.619	-1.31
705.647	0.69
705.675	4.69
705.703	9.69
705.731	-3.31
705.758	0.69
705.786	2.69
705.814	6.69
705.842	12.69
705.87	16.69
705.898	15.69
705.925	12.69
705.953	17.69
705.981	-6.31
706.009	2.69
706.037	1.69
706.065	2.69
706.092	-0.31
706.12	18.69
706.148	6.69
706.176	6.69
706.204	16.69
706.231	16.69
706.259	-5.31
706.287	-2.31
706.315	9.69
706.342	-3.31
706.37	8.69
706.398	-0.31
706.426	2.69
706.454	-7.31
706.481	4.69
706.509	9.69
706.537	-1.31
706.565	0.69
706.592	-1.31
706.62	6.69
706.648	24.69
706.676	-4.31
706.703	-4.31
706.731	-8.31
706.759	5.69
706.787	1.69
706.814	4.69
706.842	-3.31
706.87	0.69
706.897	-2.31
706.925	1.69
706.953	16.69
706.981	43.69
707.008	15.69
707.036	5.69
707.064	10.69
707.091	-11.31
707.119	7.69
707.147	3.69
707.174	2.69
707.202	13.69
707.23	-3.31
707.258	4.69
707.285	-17.31
707.313	8.69
707.341	-6.31
707.368	-3.31
707.396	-3.31
707.424	12.69
707.451	9.69
707.479	1.69
707.507	-2.31
707.534	2.69
707.562	8.69
707.59	-11.31
707.617	-11.31
707.645	2.69
707.672	1.69
707.7	1.69
707.728	3.69
707.755	-9.31
707.783	2.69
707.811	7.69
707.838	1.69
707.866	15.69
707.893	0.69
707.921	5.69
707.949	-2.31
707.976	-4.31
708.004	6.69
708.031	-0.31
708.059	5.69
708.087	-4.31
708.114	3.69
708.142	-6.31
708.169	-10.31
708.197	-14.31
708.225	1.69
708.252	-6.31
708.28	3.69
708.307	-11.31
708.335	7.69
708.362	-4.31
708.39	10.69
708.418	-6.31
708.445	-13.31
708.473	4.69
708.5	-9.31
708.528	7.69
708.555	14.69
708.583	5.69
708.61	-5.31
708.638	16.69
708.665	0.69
708.693	9.69
708.72	-5.31
708.748	8.69
708.776	1.69
708.803	16.69
708.831	24.69
708.858	14.69
708.886	2.69
708.913	3.69
708.941	6.69
708.968	15.69
708.996	2.69
709.023	25.69
709.051	0.69
709.078	-1.31
709.105	11.69
709.133	2.69
709.16	-4.31
709.188	8.69
709.215	-0.31
709.243	0.69
709.27	-15.31
709.298	-13.31
709.325	-0.31
709.353	0.69
709.38	-2.31
709.408	20.69
709.435	-0.31
709.462	15.69
709.49	8.69
709.517	0.69
709.545	-0.31
709.572	-5.31
709.6	7.69
709.627	14.69
709.655	-6.31
709.682	0.69
709.709	5.69
709.737	3.69
709.764	0.69
709.792	12.69
709.819	0.69
709.846	5.69
709.874	13.69
709.901	12.69
709.929	6.69
709.956	18.69
709.983	-2.31
710.011	8.69
710.038	4.69
710.066	18.69
710.093	9.69
710.12	14.69
710.148	14.69
710.175	-4.31
710.202	2.69
710.23	8.69
710.257	-0.31
710.284	4.69
710.312	-2.31
710.339	-7.31
710.366	7.69
710.394	-1.31
710.421	21.69
710.448	1.69
710.476	-8.31
710.503	12.69
710.53	5.69
710.558	21.69
710.585	0.69
710.612	0.69
710.64	2.69
710.667	10.69
710.694	8.69
710.722	-0.31
710.749	2.69
710.776	7.69
710.804	15.69
710.831	8.69
710.858	2.69
710.885	-6.31
710.913	-1.31
710.94	19.69
710.967	17.69
710.995	9.69
711.022	1.69
711.049	-11.31
711.076	5.69
711.104	4.69
711.131	-19.31
711.158	4.69
711.185	8.69
711.213	-13.31
711.24	0.69
711.267	11.69
711.294	12.69
711.322	11.69
711.349	-2.31
711.376	-13.31
711.403	3.69
711.431	-0.31
711.458	1.69
711.485	8.69
711.512	-1.31
711.54	-10.31
711.567	5.69
711.594	-8.31
711.621	3.69
711.648	5.69
711.676	2.69
711.703	7.69
711.73	-15.31
711.757	-3.31
711.784	6.69
711.812	4.69
711.839	6.69
711.866	-6.31
711.893	-8.31
711.92	4.69
711.947	9.69
711.975	15.69
712.002	-6.31
712.029	17.69
712.056	0.69
712.083	12.69
712.11	-9.31
712.138	6.69
712.165	-6.31
712.192	-2.31
712.219	-1.31
712.246	-7.31
712.273	4.69
712.3	11.69
712.328	0.69
712.355	-3.31
712.382	5.69
712.409	13.69
712.436	-3.31
712.463	17.69
712.49	20.69
712.517	18.69
712.544	-4.31
712.572	-2.31
712.599	4.69
712.626	7.69
712.653	-1.31
712.68	-1.31
712.707	18.69
712.734	8.69
712.761	-4.31
712.788	-7.31
712.815	3.69
712.842	9.69
712.87	10.69
712.897	-3.31
712.924	-7.31
712.951	1.69
712.978	20.69
713.005	13.69
713.032	12.69
713.059	3.69
713.086	-6.31
713.113	3.69
713.14	-8.31
713.167	8.69
713.194	10.69
713.221	6.69
713.248	12.69
713.275	2.69
713.302	-7.31
713.329	4.69
713.356	3.69
713.383	-4.31
713.41	-1.31
713.437	-13.31
713.464	7.69
713.491	19.69
713.518	6.69
713.545	5.69
713.572	4.69
713.599	9.69
713.626	2.69
713.653	10.69
713.68	-9.31
713.707	6.69
713.734	0.69
713.761	-1.31
713.788	-9.31
713.815	18.69
713.842	-0.31
713.869	2.69
713.896	-8.31
713.923	-11.31
713.95	-3.31
713.977	0.69
714.004	6.69
714.031	-8.31
714.058	2.69
714.085	12.69
714.112	17.69
714.139	-6.31
714.165	-3.31
714.192	7.69
714.219	4.69
714.246	-14.31
714.273	-7.31
714.3	-1.31
714.327	-2.31
714.354	18.69
714.381	7.69
714.408	-0.31
714.435	-8.31
714.461	-0.31
714.488	-1.31
714.515	-10.31
714.542	-1.31
714.569	-3.31
714.596	-11.31
714.623	0.69
714.65	-10.31
714.677	7.69
714.703	5.69
714.73	13.69
714.757	7.69
714.784	2.69
714.811	-2.31
714.838	17.69
714.865	-6.31
714.891	5.69
714.918	1.69
714.945	-6.31
714.972	0.69
714.999	5.69
715.026	-9.31
715.052	5.69
715.079	-4.31
715.106	9.69
715.133	2.69
715.16	-2.31
715.187	-0.31
715.213	14.69
715.24	-1.31
715.267	2.69
715.294	3.69
715.321	6.69
715.347	-3.31
715.374	-2.31
715.401	-2.31
715.428	1.69
715.455	4.69
715.481	-1.31
715.508	-7.31
715.535	4.69
715.562	24.69
715.588	3.69
715.615	8.69
715.642	0.69
715.669	7.69
715.695	-5.31
715.722	5.69
715.749	-2.31
715.776	7.69
715.802	4.69
715.829	13.69
715.856	-8.31
715.883	19.69
715.909	-2.31
715.936	12.69
715.963	2.69
715.99	-18.31
716.016	10.69
716.043	11.69
716.07	-1.31
716.096	-3.31
716.123	0.69
716.15	5.69
716.177	11.69
716.203	12.69
716.23	22.69
716.257	7.69
716.283	9.69
716.31	5.69
716.337	-2.31
716.363	-6.31
716.39	11.69
716.417	19.69
716.443	-1.31
716.47	1.69
716.497	18.69
716.523	22.69
716.55	18.69
716.577	9.69
716.603	5.69
716.63	2.69
716.657	13.69
716.683	-7.31
716.71	-2.31
716.737	16.69
716.763	1.69
716.79	4.69
716.817	24.69
716.843	15.69
716.87	-6.31
716.897	8.69
716.923	7.69
716.95	5.69
716.976	4.69
717.003	3.69
717.03	8.69
717.056	5.69
717.083	-2.31
717.109	3.69
717.136	0.69
717.163	-6.31
717.189	13.69
717.216	-10.31
717.242	-4.31
717.269	13.69
717.296	17.69
717.322	9.69
717.349	7.69
717.375	20.69
717.402	0.69
717.428	1.69
717.455	14.69
717.481	9.69
717.508	17.69
717.535	4.69
717.561	2.69
717.588	-18.31
717.614	-5.31
717.641	10.69
717.667	-3.31
717.694	-3.31
717.72	7.69
717.747	8.69
717.773	-2.31
717.8	2.69
717.826	13.69
717.853	8.69
717.88	8.69
717.906	9.69
717.933	25.69
717.959	-2.31
717.986	6.69
718.012	6.69
718.039	12.69
718.065	-7.31
718.092	27.69
718.118	-13.31
718.144	-5.31
718.171	21.69
718.197	3.69
718.224	-6.31
718.25	10.69
718.277	5.69
718.303	7.69
718.33	4.69
718.356	-13.31
718.383	-12.31
718.409	5.69
718.436	-2.31
718.462	-11.31
718.489	5.69
718.515	8.69
718.541	7.69
718.568	0.69
718.594	-2.31
718.621	7.69
718.647	14.69
718.674	11.69
718.7	8.69
718.726	0.69
718.753	4.69
718.779	9.69
718.806	-1.31
718.832	4.69
718.858	5.69
718.885	0.69
718.911	3.69
718.938	-2.31
718.964	-3.31
718.99	8.69
719.017	-2.31
719.043	1.69
719.07	1.69
719.096	-10.31
719.122	3.69
719.149	5.69
719.175	21.69
719.201	-0.31
719.228	0.69
719.254	-3.31
719.281	-12.31
719.307	-13.31
719.333	-10.31
719.36	12.69
719.386	4.69
719.412	-0.31
719.439	-14.31
719.465	-12.31
719.491	-3.31
719.518	-9.31
719.544	3.69
719.57	2.69
719.597	13.69
719.623	4.69
719.649	-1.31
719.675	4.69
719.702	3.69
719.728	19.69
719.754	-4.31
719.781	1.69
719.807	4.69
719.833	-15.31
719.86	-4.31
719.886	-0.31
719.912	24.69
719.938	0.69
719.965	-2.31
719.991	10.69
720.017	4.69
720.044	0.69
720.07	2.69
720.096	-1.31
720.122	2.69
720.149	9.69
720.175	16.69
720.201	5.69
720.227	17.69
720.254	-7.31
720.28	0.69
720.306	-0.31
720.332	10.69
720.359	9.69
720.385	4.69
720.411	5.69
720.437	19.69
720.463	8.69
720.49	19.69
720.516	-1.31
720.542	-6.31
720.568	6.69
720.595	9.69
720.621	9.69
720.647	4.69
720.673	5.69
720.699	-0.31
720.725	5.69
720.752	4.69
720.778	4.69
720.804	8.69
720.83	2.69
720.856	-1.31
720.883	7.69
720.909	7.69
720.935	9.69
720.961	25.69
720.987	-6.31
721.013	1.69
721.04	4.69
721.066	-1.31
721.092	3.69
721.118	17.69
721.144	-2.31
721.17	-2.31
721.196	5.69
721.223	-2.31
721.249	8.69
721.275	15.69
721.301	0.69
721.327	21.69
721.353	4.69
721.379	5.69
721.405	2.69
721.432	18.69
721.458	6.69
721.484	17.69
721.51	-7.31
721.536	9.69
721.562	9.69
721.588	-1.31
721.614	0.69
721.64	-3.31
721.666	5.69
721.693	8.69
721.719	2.69
721.745	2.69
721.771	-2.31
721.797	1.69
721.823	3.69
721.849	18.69
721.875	9.69
721.901	10.69
721.927	-9.31
721.953	-0.31
721.979	10.69
722.005	23.69
722.031	0.69
722.057	5.69
722.083	-2.31
722.109	9.69
722.135	14.69
722.161	6.69
722.187	-5.31
722.214	-9.31
722.24	9.69
722.266	-0.31
722.292	1.69
722.318	18.69
722.344	10.69
722.37	1.69
722.396	14.69
722.422	13.69
722.448	11.69
722.474	2.69
722.5	12.69
722.526	6.69
722.552	9.69
722.578	11.69
722.603	12.69
722.629	-10.31
722.655	16.69
722.681	4.69
722.707	-6.31
722.733	-9.31
722.759	-4.31
722.785	-16.31
722.811	7.69
722.837	12.69
722.863	4.69
722.889	10.69
722.915	-1.31
722.941	5.69
722.967	9.69
722.993	6.69
723.019	0.69
723.045	-4.31
723.071	-1.31
723.097	4.69
723.122	-3.31
723.148	-7.31
723.174	-7.31
723.2	20.69
723.226	3.69
723.252	10.69
723.278	-3.31
723.304	-14.31
723.33	0.69
723.356	-8.31
723.381	-17.31
723.407	-0.31
723.433	6.69
723.459	1.69
723.485	-5.31
723.511	4.69
723.537	-2.31
723.563	7.69
723.588	11.69
723.614	14.69
723.64	9.69
723.666	0.69
723.692	15.69
723.718	4.69
723.744	16.69
723.769	1.69
723.795	-1.31
723.821	0.69
723.847	-3.31
723.873	-6.31
723.899	-2.31
723.924	-4.31
723.95	2.69
723.976	-2.31
724.002	8.69
724.028	9.69
724.053	-1.31
724.079	-2.31
724.105	7.69
724.131	11.69
724.157	3.69
724.182	9.69
724.208	4.69
724.234	4.69
724.26	-3.31
724.286	15.69
724.311	10.69
724.337	-14.31
724.363	-12.31
724.389	2.69
724.415	-15.31
724.44	9.69
724.466	1.69
724.492	6.69
724.518	5.69
724.543	7.69
724.569	-1.31
724.595	-1.31
724.621	1.69
724.646	2.69
724.672	-4.31
724.698	5.69
724.723	-1.31
724.749	-14.31
724.775	10.69
724.801	10.69
724.826	-13.31
724.852	5.69
724.878	-4.31
724.904	-15.31
724.929	11.69
724.955	-1.31
724.981	-9.31
725.006	2.69
725.032	6.69
725.058	14.69
725.083	-6.31
725.109	0.69
725.135	5.69
725.161	20.69
725.186	-2.31
725.212	-7.31
725.238	2.69
725.263	-9.31
725.289	-22.31
725.315	-7.31
725.34	4.69
725.366	14.69
725.392	17.69
725.417	5.69
725.443	6.69
725.468	9.69
725.494	24.69
725.52	1.69
725.545	2.69
725.571	1.69
725.597	-11.31
725.622	-6.31
725.648	5.69
725.674	21.69
725.699	8.69
725.725	7.69
725.75	9.69
725.776	1.69
725.802	0.69
725.827	2.69
725.853	7.69
725.878	1.69
725.904	12.69
725.93	-7.31
725.955	0.69
725.981	3.69
726.006	3.69
726.032	-0.31
726.057	-2.31
726.083	-11.31
726.109	3.69
726.134	6.69
726.16	7.69
726.185	-5.31
726.211	6.69
726.236	7.69
726.262	1.69
726.288	4.69
726.313	13.69
726.339	13.69
726.364	3.69
726.39	8.69
726.415	1.69
726.441	-2.31
726.466	-2.31
726.492	2.69
726.517	9.69
726.543	3.69
726.568	-6.31
726.594	-4.31
726.619	8.69
726.645	10.69
726.67	-3.31
726.696	0.69
726.721	11.69
726.747	-15.31
726.772	6.69
726.798	15.69
726.823	4.69
726.849	1.69
726.874	14.69
726.9	18.69
726.925	-1.31
726.951	0.69
726.976	5.69
727.002	-5.31
727.027	9.69
727.053	-1.31
727.078	-8.31
727.104	5.69
727.129	-20.31
727.155	2.69
727.18	13.69
727.205	11.69
727.231	0.69
727.256	13.69
727.282	8.69
727.307	21.69
727.333	0.69
727.358	-2.31
727.383	-1.31
727.409	-5.31
727.434	6.69
727.46	5.69
727.485	-8.31
727.511	-6.31
727.536	-19.31
727.561	-6.31
727.587	-10.31
727.612	-11.31
727.637	-17.31
727.663	3.69
727.688	29.69
727.714	-3.31
727.739	-7.31
727.764	-1.31
727.79	0.69
727.815	6.69
727.841	-1.31
727.866	-2.31
727.891	-9.31
727.917	-14.31
727.942	-19.31
727.967	-10.31
727.993	-4.31
728.018	2.69
728.043	5.69
728.069	11.69
728.094	14.69
728.119	4.69
728.145	29.69
728.17	2.69
728.195	-4.31
728.221	16.69
728.246	-2.31
728.271	2.69
728.297	6.69
728.322	7.69
728.347	-0.31
728.373	5.69
728.398	3.69
728.423	10.69
728.448	-6.31
728.474	5.69
728.499	7.69
728.524	-11.31
728.55	-8.31
728.575	5.69
728.6	-11.31
728.625	-8.31
728.651	-4.31
728.676	-10.31
728.701	1.69
728.727	26.69
728.752	-7.31
728.777	-5.31
728.802	0.69
728.828	10.69
728.853	4.69
728.878	9.69
728.903	-10.31
728.929	9.69
728.954	-2.31
728.979	4.69
729.004	-11.31
729.03	-5.31
729.055	16.69
729.08	1.69
729.105	-11.31
729.13	6.69
729.156	-1.31
729.181	6.69
729.206	-2.31
729.231	-1.31
729.256	10.69
729.282	18.69
729.307	-3.31
729.332	7.69
729.357	-1.31
729.382	2.69
729.408	5.69
729.433	0.69
729.458	6.69
729.483	22.69
729.508	23.69
729.533	13.69
729.559	5.69
729.584	-7.31
729.609	7.69
729.634	17.69
729.659	7.69
729.684	-4.31
729.71	7.69
729.735	5.69
729.76	9.69
729.785	3.69
729.81	2.69
729.835	-0.31
729.86	-4.31
729.886	8.69
729.911	4.69
729.936	-3.31
729.961	4.69
729.986	-16.31
730.011	-3.31
730.036	0.69
730.061	-8.31
730.086	8.69
730.112	9.69
730.137	-8.31
730.162	5.69
730.187	-3.31
730.212	4.69
730.237	-6.31
730.262	-0.31
730.287	5.69
730.312	8.69
730.337	4.69
730.362	14.69
730.387	2.69
730.413	-9.31
730.438	-2.31
730.463	2.69
730.488	-0.31
730.513	5.69
730.538	0.69
730.563	13.69
730.588	33.69
730.613	16.69
730.638	0.69
730.663	4.69
730.688	17.69
730.713	8.69
730.738	4.69
730.763	0.69
730.788	-4.31
730.813	11.69
730.838	-6.31
730.863	-3.31
730.888	5.69
730.913	-0.31
730.938	-17.31
730.963	5.69
730.988	1.69
731.013	15.69
731.038	9.69
731.063	9.69
731.088	10.69
731.113	9.69
731.138	5.69
731.163	7.69
731.188	-6.31
731.213	13.69
731.238	-1.31
731.263	-6.31
731.288	1.69
731.313	4.69
731.338	2.69
731.363	8.69
731.388	18.69
731.413	10.69
731.438	19.69
731.463	26.69
731.487	17.69
731.512	-10.31
731.537	-6.31
731.562	9.69
731.587	29.69
731.612	8.69
731.637	-2.31
731.662	12.69
731.687	7.69
731.712	-5.31
731.737	-10.31
731.762	3.69
731.786	10.69
731.811	6.69
731.836	-7.31
731.861	10.69
731.886	-7.31
731.911	2.69
731.936	16.69
731.961	8.69
731.986	0.69
732.01	13.69
732.035	13.69
732.06	20.69
732.085	5.69
732.11	10.69
732.135	-10.31
732.16	6.69
732.184	8.69
732.209	-0.31
732.234	5.69
732.259	-1.31
732.284	29.69
732.309	-4.31
732.334	-6.31
732.358	-1.31
732.383	-3.31
732.408	-7.31
732.433	6.69
732.458	6.69
732.482	11.69
732.507	-0.31
732.532	7.69
732.557	10.69
732.582	-6.31
732.607	-3.31
732.631	-9.31
732.656	0.69
732.681	4.69
732.706	8.69
732.73	6.69
732.755	5.69
732.78	13.69
732.805	19.69
732.83	-4.31
732.854	4.69
732.879	21.69
732.904	-5.31
732.929	2.69
732.953	12.69
732.978	2.69
733.003	-4.31
733.028	0.69
733.052	1.69
733.077	4.69
733.102	-2.31
733.127	6.69
733.151	-3.31
733.176	10.69
733.201	4.69
733.226	-20.31
733.25	3.69
733.275	19.69
733.3	16.69
733.324	11.69
733.349	-2.31
733.374	5.69
733.399	-9.31
733.423	6.69
733.448	-11.31
733.473	-9.31
733.497	6.69
733.522	-9.31
733.547	29.69
733.571	21.69
733.596	-6.31
733.621	5.69
733.646	2.69
733.67	19.69
733.695	1.69
733.72	18.69
733.744	28.69
733.769	10.69
733.794	10.69
733.818	6.69
733.843	-0.31
733.867	-1.31
733.892	-3.31
733.917	6.69
733.941	22.69
733.966	-10.31
733.991	4.69
734.015	27.69
734.04	14.69
734.065	10.69
734.089	28.69
734.114	6.69
734.138	0.69
734.163	6.69
734.188	8.69
734.212	15.69
734.237	24.69
734.261	18.69
734.286	6.69
734.311	8.69
734.335	9.69
734.36	-1.31
734.384	10.69
734.409	-0.31
734.434	0.69
734.458	10.69
734.483	3.69
734.507	-1.31
734.532	0.69
734.556	8.69
734.581	-9.31
734.606	-5.31
734.63	-10.31
734.655	4.69
734.679	17.69
734.704	4.69
734.728	-17.31
734.753	-1.31
734.777	-7.31
734.802	7.69
734.826	6.69
734.851	-10.31
734.876	-4.31
734.9	11.69
734.925	11.69
734.949	22.69
734.974	4.69
734.998	-0.31
735.023	-1.31
735.047	-6.31
735.072	21.69
735.096	4.69
735.121	1.69
735.145	15.69
735.17	4.69
735.194	19.69
735.219	4.69
735.243	16.69
735.268	19.69
735.292	11.69
735.317	1.69
735.341	-0.31
735.365	-4.31
735.39	12.69
735.414	9.69
735.439	4.69
735.463	9.69
735.488	10.69
735.512	0.69
735.537	0.69
735.561	10.69
735.586	4.69
735.61	2.69
735.634	0.69
735.659	11.69
735.683	26.69
735.708	9.69
735.732	5.69
735.757	8.69
735.781	3.69
735.805	-8.31
735.83	4.69
735.854	18.69
735.879	-3.31
735.903	12.69
735.927	-1.31
735.952	11.69
735.976	16.69
736.001	17.69
736.025	10.69
736.049	-10.31
736.074	-6.31
736.098	4.69
736.123	10.69
736.147	9.69
736.171	1.69
736.196	10.69
736.22	-11.31
736.244	7.69
736.269	2.69
736.293	5.69
736.317	1.69
736.342	-4.31
736.366	7.69
736.39	11.69
736.415	0.69
736.439	2.69
736.463	21.69
736.488	1.69
736.512	0.69
736.536	-3.31
736.561	17.69
736.585	12.69
736.609	17.69
736.634	-7.31
736.658	9.69
736.682	0.69
736.707	-7.31
736.731	-9.31
736.755	-7.31
736.78	9.69
736.804	9.69
736.828	6.69
736.852	-5.31
736.877	8.69
736.901	14.69
736.925	1.69
736.949	4.69
736.974	0.69
736.998	10.69
737.022	9.69
737.047	-7.31
737.071	-6.31
737.095	12.69
737.119	21.69
737.144	4.69
737.168	3.69
737.192	14.69
737.216	20.69
737.241	1.69
737.265	2.69
737.289	-11.31
737.313	-3.31
737.337	6.69
737.362	5.69
737.386	3.69
737.41	-7.31
737.434	14.69
737.459	2.69
737.483	6.69
737.507	20.69
737.531	11.69
737.555	22.69
737.58	13.69
737.604	9.69
737.628	-2.31
737.652	-0.31
737.676	-2.31
737.701	6.69
737.725	-5.31
737.749	20.69
737.773	14.69
737.797	-7.31
737.821	2.69
737.846	-2.31
737.87	24.69
737.894	-6.31
737.918	-2.31
737.942	6.69
737.966	9.69
737.99	12.69
738.015	-4.31
738.039	16.69
738.063	-6.31
738.087	24.69
738.111	5.69
738.135	9.69
738.159	-1.31
738.184	3.69
738.208	2.69
738.232	9.69
738.256	0.69
738.28	10.69
738.304	17.69
738.328	8.69
738.352	12.69
738.376	-3.31
738.4	1.69
738.425	1.69
738.449	-3.31
738.473	9.69
738.497	-2.31
738.521	0.69
738.545	9.69
738.569	-2.31
738.593	6.69
738.617	13.69
738.641	6.69
738.665	1.69
738.689	-7.31
738.713	-0.31
738.737	8.69
738.762	12.69
738.786	11.69
738.81	-4.31
738.834	10.69
738.858	-6.31
738.882	5.69
738.906	5.69
738.93	-0.31
738.954	-7.31
738.978	-3.31
739.002	-23.31
739.026	9.69
739.05	5.69
739.074	8.69
739.098	33.69
739.122	16.69
739.146	12.69
739.17	10.69
739.194	4.69
739.218	-11.31
739.242	-4.31
739.266	6.69
739.29	5.69
739.314	10.69
739.338	-5.31
739.362	7.69
739.386	18.69
739.41	7.69
739.434	-3.31
739.458	21.69
739.482	22.69
739.506	2.69
739.53	0.69
739.554	11.69
739.577	7.69
739.601	8.69
739.625	-3.31
739.649	-5.31
739.673	-3.31
739.697	6.69
739.721	8.69
739.745	7.69
739.769	16.69
739.793	14.69
739.817	19.69
739.841	-14.31
739.865	-3.31
739.889	-3.31
739.912	6.69
739.936	-6.31
739.96	2.69
739.984	7.69
740.008	6.69
740.032	3.69
740.056	-6.31
740.08	-1.31
740.104	2.69
740.127	21.69
740.151	13.69
740.175	5.69
740.199	17.69
740.223	61.69
740.247	23.69
740.271	8.69
740.295	4.69
740.318	-9.31
740.342	-2.31
740.366	10.69
740.39	2.69
740.414	9.69
740.438	1.69
740.461	15.69
740.485	23.69
740.509	1.69
740.533	0.69
740.557	4.69
740.581	0.69
740.604	-7.31
740.628	-9.31
740.652	8.69
740.676	-3.31
740.7	13.69
740.723	-0.31
740.747	6.69
740.771	-3.31
740.795	-0.31
740.819	12.69
740.842	12.69
740.866	13.69
740.89	1.69
740.914	2.69
740.938	-7.31
740.961	4.69
740.985	1.69
741.009	9.69
741.033	13.69
741.056	8.69
741.08	21.69
741.104	-8.31
741.128	-2.31
741.151	13.69
741.175	20.69
741.199	6.69
741.223	20.69
741.246	0.69
741.27	6.69
741.294	9.69
741.318	2.69
741.341	-2.31
741.365	2.69
741.389	10.69
741.413	13.69
741.436	12.69
741.46	-10.31
741.484	21.69
741.507	2.69
741.531	14.69
741.555	9.69
741.579	5.69
741.602	3.69
741.626	5.69
741.65	2.69
741.673	2.69
741.697	-2.31
741.721	-9.31
741.744	-1.31
741.768	-18.31
741.792	-3.31
741.815	-0.31
741.839	13.69
741.863	24.69
741.886	16.69
741.91	6.69
741.934	-9.31
741.957	-7.31
741.981	8.69
742.005	4.69
742.028	-9.31
742.052	2.69
742.075	11.69
742.099	16.69
742.123	11.69
742.146	-4.31
742.17	9.69
742.194	-10.31
742.217	1.69
742.241	-1.31
742.264	0.69
742.288	20.69
742.312	13.69
742.335	4.69
742.359	-0.31
742.382	36.69
742.406	22.69
742.43	-4.31
742.453	-3.31
742.477	-2.31
742.5	-8.31
742.524	-3.31
742.548	5.69
742.571	3.69
742.595	4.69
742.618	0.69
742.642	-0.31
742.665	-1.31
742.689	-6.31
742.712	-2.31
742.736	-15.31
742.76	0.69
742.783	6.69
742.807	15.69
742.83	22.69
742.854	-7.31
742.877	1.69
742.901	-2.31
742.924	-14.31
742.948	-1.31
742.971	-1.31
742.995	10.69
743.018	1.69
743.042	-1.31
743.065	-0.31
743.089	-8.31
743.112	-2.31
743.136	6.69
743.159	-0.31
743.183	0.69
743.206	2.69
743.23	-15.31
743.253	-2.31
743.277	-0.31
743.3	0.69
743.324	-0.31
743.347	0.69
743.371	25.69
743.394	12.69
743.418	24.69
743.441	9.69
743.465	14.69
743.488	1.69
743.512	-7.31
743.535	-2.31
743.558	11.69
743.582	-8.31
743.605	-7.31
743.629	13.69
743.652	-1.31
743.676	6.69
743.699	10.69
743.723	15.69
743.746	15.69
743.769	12.69
743.793	10.69
743.816	3.69
743.84	1.69
743.863	-1.31
743.886	9.69
743.91	18.69
743.933	2.69
743.957	13.69
743.98	5.69
744.003	6.69
744.027	-3.31
744.05	-6.31
744.074	7.69
744.097	-4.31
744.12	-9.31
744.144	-12.31
744.167	9.69
744.19	-2.31
744.214	-3.31
744.237	-14.31
744.26	5.69
744.284	6.69
744.307	-1.31
744.331	-3.31
744.354	-8.31
744.377	-0.31
744.401	-2.31
744.424	7.69
744.447	7.69
744.471	-5.31
