Data from HighRes_H2D2_15_04_11_07_2024_HR4C61891__40__15-05-38-443.txt Node

Date: Thu Nov 07 15:05:38 EST 2024
User: crc00042
Spectrometer: HR4C6189
Trigger mode: 4
Integration Time (sec): 1.000000E-1
Scans to average: 1
Electric dark correction enabled: true
Nonlinearity correction enabled: false
Boxcar width: 0
XAxis mode: Wavelengths
Number of Pixels in Spectrum: 3648
>>>>>Begin Spectral Data<<<<<
639.567	-73.69
639.602	-73.69
639.636	-73.69
639.67	-42.69
639.704	-17.69
639.738	17.31
639.773	8.31
639.807	-5.69
639.841	-2.69
639.875	16.31
639.909	-7.69
639.943	-29.69
639.978	-3.69
640.012	-0.69
640.046	12.31
640.08	7.31
640.114	-5.69
640.148	-5.69
640.182	-4.69
640.217	-0.69
640.251	16.31
640.285	11.31
640.319	-7.69
640.353	5.31
640.387	17.31
640.421	13.31
640.455	-4.69
640.49	8.31
640.524	2.31
640.558	6.31
640.592	-3.69
640.626	-4.69
640.66	-0.69
640.694	-17.69
640.728	1.31
640.762	9.31
640.796	16.31
640.83	14.31
640.865	-13.69
640.899	8.31
640.933	-2.69
640.967	-6.69
641.001	-3.69
641.035	12.31
641.069	-14.69
641.103	-21.69
641.137	-12.69
641.171	-13.69
641.205	-4.69
641.239	-0.69
641.273	20.31
641.307	14.31
641.341	-6.69
641.375	-3.69
641.409	8.31
641.443	10.31
641.477	4.31
641.511	15.31
641.545	7.31
641.579	2.31
641.614	-11.69
641.648	10.31
641.682	-6.69
641.716	3.31
641.75	24.31
641.784	-7.69
641.818	3.31
641.852	6.31
641.886	-5.69
641.919	30.31
641.953	1.31
641.987	-18.69
642.021	7.31
642.055	4.31
642.089	3.31
642.123	-20.69
642.157	-6.69
642.191	-3.69
642.225	-10.69
642.259	-2.69
642.293	3.31
642.327	-2.69
642.361	5.31
642.395	1.31
642.429	-3.69
642.463	8.31
642.497	20.31
642.531	10.31
642.565	-11.69
642.599	10.31
642.633	7.31
642.666	12.31
642.7	8.31
642.734	10.31
642.768	2.31
642.802	-7.69
642.836	4.31
642.87	7.31
642.904	12.31
642.938	10.31
642.972	1.31
643.005	12.31
643.039	23.31
643.073	-3.69
643.107	-6.69
643.141	-7.69
643.175	0.31
643.209	-13.69
643.243	-4.69
643.276	12.31
643.31	5.31
643.344	5.31
643.378	4.31
643.412	10.31
643.446	12.31
643.48	4.31
643.513	5.31
643.547	3.31
643.581	7.31
643.615	28.31
643.649	7.31
643.683	14.31
643.716	-1.69
643.75	16.31
643.784	-9.69
643.818	-1.69
643.852	-5.69
643.886	-5.69
643.919	16.31
643.953	19.31
643.987	10.31
644.021	1.31
644.055	18.31
644.088	10.31
644.122	5.31
644.156	-16.69
644.19	4.31
644.224	-8.69
644.257	14.31
644.291	14.31
644.325	2.31
644.359	-13.69
644.392	12.31
644.426	17.31
644.46	12.31
644.494	-6.69
644.527	-19.69
644.561	6.31
644.595	1.31
644.629	-1.69
644.662	-4.69
644.696	21.31
644.73	9.31
644.764	3.31
644.797	9.31
644.831	7.31
644.865	17.31
644.899	4.31
644.932	25.31
644.966	-2.69
645	-0.69
645.033	-7.69
645.067	-5.69
645.101	-5.69
645.135	8.31
645.168	3.31
645.202	-0.69
645.236	13.31
645.269	8.31
645.303	-14.69
645.337	-13.69
645.37	8.31
645.404	11.31
645.438	10.31
645.471	1.31
645.505	3.31
645.539	-3.69
645.572	-17.69
645.606	0.31
645.64	12.31
645.673	20.31
645.707	16.31
645.741	5.31
645.774	7.31
645.808	8.31
645.842	5.31
645.875	8.31
645.909	-21.69
645.943	-3.69
645.976	12.31
646.01	10.31
646.043	17.31
646.077	18.31
646.111	14.31
646.144	6.31
646.178	2.31
646.212	0.31
646.245	-4.69
646.279	6.31
646.312	8.31
646.346	8.31
646.38	-0.69
646.413	12.31
646.447	13.31
646.48	-5.69
646.514	-1.69
646.547	-6.69
646.581	1.31
646.615	-10.69
646.648	-15.69
646.682	0.31
646.715	13.31
646.749	16.31
646.782	12.31
646.816	4.31
646.85	21.31
646.883	-5.69
646.917	13.31
646.95	15.31
646.984	7.31
647.017	-2.69
647.051	5.31
647.084	10.31
647.118	-6.69
647.151	-4.69
647.185	15.31
647.218	-20.69
647.252	-13.69
647.285	-4.69
647.319	-4.69
647.353	-6.69
647.386	10.31
647.42	-5.69
647.453	9.31
647.487	16.31
647.52	-7.69
647.553	-1.69
647.587	-4.69
647.62	-22.69
647.654	2.31
647.687	3.31
647.721	3.31
647.754	-1.69
647.788	10.31
647.821	0.31
647.855	7.31
647.888	15.31
647.922	23.31
647.955	15.31
647.989	-2.69
648.022	-0.69
648.055	9.31
648.089	3.31
648.122	17.31
648.156	-4.69
648.189	5.31
648.223	9.31
648.256	11.31
648.29	15.31
648.323	12.31
648.356	9.31
648.39	6.31
648.423	-4.69
648.457	-4.69
648.49	8.31
648.523	5.31
648.557	-0.69
648.59	-8.69
648.624	-1.69
648.657	7.31
648.69	-3.69
648.724	8.31
648.757	9.31
648.791	17.31
648.824	12.31
648.857	24.31
648.891	7.31
648.924	4.31
648.957	26.31
648.991	4.31
649.024	2.31
649.057	0.31
649.091	8.31
649.124	27.31
649.158	15.31
649.191	30.31
649.224	-3.69
649.258	10.31
649.291	-5.69
649.324	-2.69
649.358	10.31
649.391	3.31
649.424	3.31
649.458	0.31
649.491	18.31
649.524	7.31
649.557	2.31
649.591	-19.69
649.624	4.31
649.657	-1.69
649.691	2.31
649.724	20.31
649.757	9.31
649.791	0.31
649.824	11.31
649.857	16.31
649.89	-0.69
649.924	-20.69
649.957	2.31
649.99	0.31
650.023	3.31
650.057	-4.69
650.09	15.31
650.123	10.31
650.157	17.31
650.19	21.31
650.223	-2.69
650.256	2.31
650.29	4.31
650.323	-2.69
650.356	16.31
650.389	1.31
650.423	-3.69
650.456	19.31
650.489	11.31
650.522	-1.69
650.555	23.31
650.589	11.31
650.622	-0.69
650.655	9.31
650.688	-4.69
650.721	4.31
650.755	4.31
650.788	13.31
650.821	-0.69
650.854	18.31
650.887	15.31
650.921	15.31
650.954	8.31
650.987	11.31
651.02	-1.69
651.053	-1.69
651.087	-14.69
651.12	29.31
651.153	12.31
651.186	11.31
651.219	-1.69
651.252	9.31
651.286	20.31
651.319	-8.69
651.352	7.31
651.385	-0.69
651.418	6.31
651.451	30.31
651.484	1.31
651.518	-21.69
651.551	22.31
651.584	-4.69
651.617	12.31
651.65	13.31
651.683	31.31
651.716	4.31
651.749	0.31
651.783	-1.69
651.816	4.31
651.849	-0.69
651.882	1.31
651.915	-9.69
651.948	11.31
651.981	7.31
652.014	-0.69
652.047	-6.69
652.08	-10.69
652.114	6.31
652.147	0.31
652.18	3.31
652.213	30.31
652.246	14.31
652.279	-4.69
652.312	6.31
652.345	-2.69
652.378	28.31
652.411	25.31
652.444	7.31
652.477	2.31
652.51	10.31
652.543	-13.69
652.576	0.31
652.609	-17.69
652.642	0.31
652.675	23.31
652.709	8.31
652.742	16.31
652.775	2.31
652.808	7.31
652.841	-1.69
652.874	-2.69
652.907	-1.69
652.94	-0.69
652.973	14.31
653.006	-10.69
653.039	-13.69
653.072	4.31
653.105	-2.69
653.138	3.31
653.171	-4.69
653.204	-0.69
653.237	6.31
653.27	-2.69
653.303	16.31
653.336	2.31
653.368	4.31
653.401	11.31
653.434	-4.69
653.467	12.31
653.5	-6.69
653.533	-5.69
653.566	8.31
653.599	0.31
653.632	1.31
653.665	11.31
653.698	-16.69
653.731	-10.69
653.764	18.31
653.797	11.31
653.83	12.31
653.863	11.31
653.896	3.31
653.929	6.31
653.961	9.31
653.994	-11.69
654.027	-7.69
654.06	7.31
654.093	3.31
654.126	4.31
654.159	-1.69
654.192	12.31
654.225	1.31
654.258	8.31
654.29	10.31
654.323	15.31
654.356	16.31
654.389	23.31
654.422	4.31
654.455	3.31
654.488	7.31
654.521	-15.69
654.553	-11.69
654.586	19.31
654.619	3.31
654.652	16.31
654.685	15.31
654.718	10.31
654.751	6.31
654.783	-13.69
654.816	25.31
654.849	4.31
654.882	3.31
654.915	12.31
654.948	6.31
654.98	-3.69
655.013	-2.69
655.046	-1.69
655.079	-3.69
655.112	3.31
655.144	-2.69
655.177	2.31
655.21	33.31
655.243	-2.69
655.276	9.31
655.308	-11.69
655.341	-12.69
655.374	10.31
655.407	0.31
655.44	-6.69
655.472	12.31
655.505	24.31
655.538	11.31
655.571	8.31
655.603	12.31
655.636	4.31
655.669	4.31
655.702	7.31
655.734	4.31
655.767	1.31
655.8	15.31
655.833	5.31
655.865	23.31
655.898	10.31
655.931	2.31
655.964	19.31
655.996	27.31
656.029	23.31
656.062	17.31
656.095	54.31
656.127	74.31
656.16	232.31
656.193	622.31
656.225	976.31
656.258	566.31
656.291	220.31
656.324	177.31
656.356	363.31
656.389	740.31
656.422	658.31
656.454	237.31
656.487	81.31
656.52	39.31
656.552	15.31
656.585	25.31
656.618	32.31
656.65	20.31
656.683	2.31
656.716	17.31
656.748	8.31
656.781	3.31
656.814	-9.69
656.846	10.31
656.879	-7.69
656.912	2.31
656.944	3.31
656.977	-8.69
657.01	14.31
657.042	5.31
657.075	-1.69
657.108	2.31
657.14	23.31
657.173	6.31
657.205	27.31
657.238	24.31
657.271	7.31
657.303	4.31
657.336	17.31
657.369	-4.69
657.401	3.31
657.434	-17.69
657.466	13.31
657.499	-7.69
657.532	-12.69
657.564	-6.69
657.597	9.31
657.629	15.31
657.662	15.31
657.694	1.31
657.727	-18.69
657.76	11.31
657.792	-3.69
657.825	6.31
657.857	10.31
657.89	16.31
657.922	18.31
657.955	0.31
657.987	8.31
658.02	15.31
658.053	8.31
658.085	0.31
658.118	20.31
658.15	27.31
658.183	16.31
658.215	-5.69
658.248	-17.69
658.28	-3.69
658.313	1.31
658.345	-2.69
658.378	19.31
658.41	-7.69
658.443	28.31
658.475	5.31
658.508	0.31
658.54	-5.69
658.573	-16.69
658.605	-4.69
658.638	5.31
658.67	-5.69
658.703	10.31
658.735	-0.69
658.768	12.31
658.8	-10.69
658.833	16.31
658.865	6.31
658.898	3.31
658.93	-11.69
658.963	11.31
658.995	1.31
659.028	16.31
659.06	5.31
659.092	-0.69
659.125	3.31
659.157	16.31
659.19	-8.69
659.222	-2.69
659.255	8.31
659.287	-0.69
659.32	18.31
659.352	10.31
659.384	2.31
659.417	0.31
659.449	18.31
659.482	9.31
659.514	-6.69
659.546	-4.69
659.579	-2.69
659.611	20.31
659.644	7.31
659.676	-6.69
659.708	-0.69
659.741	-16.69
659.773	10.31
659.806	6.31
659.838	-2.69
659.87	-9.69
659.903	-17.69
659.935	11.31
659.967	21.31
660	6.31
660.032	-10.69
660.065	11.31
660.097	-9.69
660.129	7.31
660.162	-8.69
660.194	8.31
660.226	15.31
660.259	10.31
660.291	2.31
660.323	-2.69
660.356	-10.69
660.388	-15.69
660.42	-11.69
660.453	4.31
660.485	26.31
660.517	20.31
660.55	13.31
660.582	8.31
660.614	18.31
660.647	-0.69
660.679	-3.69
660.711	-1.69
660.743	-14.69
660.776	-0.69
660.808	-6.69
660.84	-13.69
660.873	6.31
660.905	11.31
660.937	-9.69
660.969	7.31
661.002	15.31
661.034	18.31
661.066	9.31
661.099	19.31
661.131	18.31
661.163	7.31
661.195	1.31
661.228	23.31
661.26	12.31
661.292	7.31
661.324	-6.69
661.357	2.31
661.389	6.31
661.421	0.31
661.453	12.31
661.485	29.31
661.518	17.31
661.55	-16.69
661.582	8.31
661.614	5.31
661.647	12.31
661.679	-13.69
661.711	10.31
661.743	1.31
661.775	-3.69
661.808	16.31
661.84	-3.69
661.872	4.31
661.904	14.31
661.936	17.31
661.969	-7.69
662.001	6.31
662.033	5.31
662.065	-10.69
662.097	3.31
662.129	0.31
662.162	0.31
662.194	7.31
662.226	10.31
662.258	3.31
662.29	18.31
662.322	-15.69
662.355	-4.69
662.387	28.31
662.419	19.31
662.451	18.31
662.483	3.31
662.515	4.31
662.547	-9.69
662.58	0.31
662.612	-8.69
662.644	-5.69
662.676	2.31
662.708	17.31
662.74	0.31
662.772	5.31
662.804	-2.69
662.836	1.31
662.869	4.31
662.901	15.31
662.933	2.31
662.965	21.31
662.997	-2.69
663.029	-0.69
663.061	10.31
663.093	3.31
663.125	7.31
663.157	11.31
663.189	-3.69
663.221	19.31
663.254	12.31
663.286	10.31
663.318	2.31
663.35	4.31
663.382	-2.69
663.414	6.31
663.446	-8.69
663.478	-0.69
663.51	24.31
663.542	4.31
663.574	6.31
663.606	2.31
663.638	-6.69
663.67	0.31
663.702	6.31
663.734	2.31
663.766	13.31
663.798	-11.69
663.83	-8.69
663.862	10.31
663.894	16.31
663.926	1.31
663.958	-1.69
663.99	-10.69
664.022	-0.69
664.054	11.31
664.086	-9.69
664.118	-14.69
664.15	-5.69
664.182	-4.69
664.214	0.31
664.246	17.31
664.278	7.31
664.31	20.31
664.342	17.31
664.374	4.31
664.406	3.31
664.438	11.31
664.47	7.31
664.502	4.31
664.534	7.31
664.566	-6.69
664.598	7.31
664.63	0.31
664.662	1.31
664.693	-1.69
664.725	-6.69
664.757	7.31
664.789	-13.69
664.821	-2.69
664.853	4.31
664.885	-2.69
664.917	8.31
664.949	-3.69
664.981	18.31
665.013	24.31
665.045	1.31
665.076	13.31
665.108	5.31
665.14	-6.69
665.172	-6.69
665.204	-0.69
665.236	-7.69
665.268	10.31
665.3	-12.69
665.331	-16.69
665.363	5.31
665.395	4.31
665.427	-8.69
665.459	9.31
665.491	6.31
665.523	3.31
665.555	-5.69
665.586	-0.69
665.618	7.31
665.65	0.31
665.682	16.31
665.714	15.31
665.746	2.31
665.777	8.31
665.809	-5.69
665.841	18.31
665.873	-6.69
665.905	-5.69
665.937	27.31
665.968	6.31
666	4.31
666.032	13.31
666.064	-2.69
666.096	6.31
666.127	17.31
666.159	9.31
666.191	7.31
666.223	5.31
666.255	3.31
666.286	0.31
666.318	0.31
666.35	-2.69
666.382	1.31
666.413	-10.69
666.445	-8.69
666.477	-2.69
666.509	3.31
666.54	-8.69
666.572	-6.69
666.604	-3.69
666.636	-6.69
666.667	24.31
666.699	20.31
666.731	3.31
666.763	12.31
666.794	7.31
666.826	6.31
666.858	-7.69
666.89	20.31
666.921	-2.69
666.953	-3.69
666.985	18.31
667.017	10.31
667.048	10.31
667.08	-3.69
667.112	-1.69
667.143	0.31
667.175	10.31
667.207	3.31
667.238	2.31
667.27	3.31
667.302	4.31
667.334	-6.69
667.365	2.31
667.397	9.31
667.429	-1.69
667.46	-6.69
667.492	3.31
667.524	5.31
667.555	-8.69
667.587	-5.69
667.619	-14.69
667.65	-6.69
667.682	7.31
667.714	-1.69
667.745	14.31
667.777	12.31
667.808	5.31
667.84	0.31
667.872	17.31
667.903	35.31
667.935	-4.69
667.967	-21.69
667.998	8.31
668.03	9.31
668.061	-8.69
668.093	-8.69
668.125	-4.69
668.156	-5.69
668.188	-2.69
668.22	-0.69
668.251	8.31
668.283	3.31
668.314	12.31
668.346	3.31
668.377	7.31
668.409	11.31
668.441	12.31
668.472	-2.69
668.504	2.31
668.535	3.31
668.567	16.31
668.599	-0.69
668.63	17.31
668.662	6.31
668.693	17.31
668.725	4.31
668.756	11.31
668.788	-2.69
668.819	0.31
668.851	0.31
668.882	15.31
668.914	12.31
668.946	-8.69
668.977	-1.69
669.009	-0.69
669.04	-9.69
669.072	2.31
669.103	2.31
669.135	-9.69
669.166	6.31
669.198	-1.69
669.229	1.31
669.261	-3.69
669.292	0.31
669.324	-0.69
669.355	3.31
669.387	12.31
669.418	7.31
669.45	-6.69
669.481	14.31
669.513	14.31
669.544	5.31
669.576	16.31
669.607	5.31
669.639	10.31
669.67	-11.69
669.701	7.31
669.733	3.31
669.764	1.31
669.796	-3.69
669.827	4.31
669.859	10.31
669.89	6.31
669.922	6.31
669.953	12.31
669.985	-3.69
670.016	6.31
670.047	9.31
670.079	14.31
670.11	17.31
670.142	13.31
670.173	11.31
670.204	-10.69
670.236	6.31
670.267	-2.69
670.299	6.31
670.33	1.31
670.362	-8.69
670.393	-24.69
670.424	9.31
670.456	2.31
670.487	19.31
670.518	-2.69
670.55	10.31
670.581	-2.69
670.613	1.31
670.644	6.31
670.675	-14.69
670.707	4.31
670.738	6.31
670.769	-3.69
670.801	-21.69
670.832	8.31
670.864	7.31
670.895	-7.69
670.926	-9.69
670.958	4.31
670.989	-15.69
671.02	-0.69
671.052	6.31
671.083	11.31
671.114	-7.69
671.146	6.31
671.177	4.31
671.208	0.31
671.24	4.31
671.271	7.31
671.302	9.31
671.333	-8.69
671.365	-11.69
671.396	1.31
671.427	8.31
671.459	10.31
671.49	9.31
671.521	-2.69
671.553	10.31
671.584	16.31
671.615	7.31
671.646	3.31
671.678	3.31
671.709	-5.69
671.74	-8.69
671.771	-4.69
671.803	-6.69
671.834	-2.69
671.865	7.31
671.896	12.31
671.928	9.31
671.959	-10.69
671.99	-5.69
672.021	-11.69
672.053	-1.69
672.084	4.31
672.115	3.31
672.146	1.31
672.178	-16.69
672.209	-8.69
672.24	-1.69
672.271	31.31
672.303	6.31
672.334	-4.69
672.365	9.31
672.396	-1.69
672.427	10.31
672.459	12.31
672.49	22.31
672.521	17.31
672.552	6.31
672.583	17.31
672.615	-9.69
672.646	-0.69
672.677	-10.69
672.708	20.31
672.739	9.31
672.77	1.31
672.802	10.31
672.833	-1.69
672.864	1.31
672.895	-2.69
672.926	-3.69
672.957	-3.69
672.989	9.31
673.02	10.31
673.051	11.31
673.082	11.31
673.113	-1.69
673.144	-6.69
673.175	0.31
673.206	-11.69
673.238	-4.69
673.269	-5.69
673.3	-4.69
673.331	6.31
673.362	-9.69
673.393	7.31
673.424	11.31
673.455	15.31
673.487	9.31
673.518	14.31
673.549	10.31
673.58	-14.69
673.611	1.31
673.642	8.31
673.673	-7.69
673.704	-6.69
673.735	5.31
673.766	10.31
673.797	9.31
673.828	8.31
673.86	0.31
673.891	0.31
673.922	7.31
673.953	11.31
673.984	13.31
674.015	6.31
674.046	9.31
674.077	12.31
674.108	-18.69
674.139	-9.69
674.17	6.31
674.201	-7.69
674.232	-8.69
674.263	-5.69
674.294	4.31
674.325	-1.69
674.356	3.31
674.387	18.31
674.418	8.31
674.449	-3.69
674.48	-14.69
674.511	5.31
674.542	6.31
674.573	-6.69
674.604	6.31
674.635	-4.69
674.666	4.31
674.697	7.31
674.728	4.31
674.759	12.31
674.79	-12.69
674.821	-1.69
674.852	6.31
674.883	-15.69
674.914	6.31
674.945	10.31
674.976	17.31
675.007	8.31
675.038	-3.69
675.069	0.31
675.1	10.31
675.131	17.31
675.162	-2.69
675.193	10.31
675.224	11.31
675.254	8.31
675.285	-6.69
675.316	6.31
675.347	7.31
675.378	2.31
675.409	-12.69
675.44	3.31
675.471	-0.69
675.502	-3.69
675.533	15.31
675.564	-11.69
675.595	5.31
675.625	18.31
675.656	13.31
675.687	9.31
675.718	-5.69
675.749	9.31
675.78	-0.69
675.811	4.31
675.842	2.31
675.873	-7.69
675.903	3.31
675.934	-4.69
675.965	-14.69
675.996	-14.69
676.027	-3.69
676.058	-8.69
676.089	-2.69
676.119	11.31
676.15	-10.69
676.181	12.31
676.212	-18.69
676.243	10.31
676.274	5.31
676.304	15.31
676.335	1.31
676.366	13.31
676.397	8.31
676.428	12.31
676.459	10.31
676.489	20.31
676.52	7.31
676.551	4.31
676.582	0.31
676.613	8.31
676.643	-20.69
676.674	5.31
676.705	-3.69
676.736	8.31
676.767	12.31
676.797	15.31
676.828	11.31
676.859	4.31
676.89	-2.69
676.92	4.31
676.951	18.31
676.982	16.31
677.013	-12.69
677.044	16.31
677.074	13.31
677.105	0.31
677.136	21.31
677.167	-4.69
677.197	6.31
677.228	4.31
677.259	-6.69
677.289	9.31
677.32	0.31
677.351	8.31
677.382	4.31
677.412	7.31
677.443	7.31
677.474	-3.69
677.505	-4.69
677.535	12.31
677.566	0.31
677.597	-11.69
677.627	5.31
677.658	-2.69
677.689	3.31
677.72	-5.69
677.75	0.31
677.781	-4.69
677.812	1.31
677.842	15.31
677.873	2.31
677.904	10.31
677.934	-0.69
677.965	-10.69
677.996	-0.69
678.026	10.31
678.057	11.31
678.088	-17.69
678.118	-0.69
678.149	-0.69
678.18	-6.69
678.21	-8.69
678.241	1.31
678.272	1.31
678.302	5.31
678.333	7.31
678.363	0.31
678.394	8.31
678.425	4.31
678.455	15.31
678.486	8.31
678.517	-11.69
678.547	3.31
678.578	7.31
678.608	-0.69
678.639	6.31
678.67	15.31
678.7	-0.69
678.731	4.31
678.761	21.31
678.792	-0.69
678.823	4.31
678.853	7.31
678.884	-16.69
678.914	18.31
678.945	19.31
678.975	-12.69
679.006	11.31
679.037	-12.69
679.067	21.31
679.098	10.31
679.128	6.31
679.159	-16.69
679.189	-4.69
679.22	-23.69
679.25	10.31
679.281	18.31
679.312	9.31
679.342	0.31
679.373	35.31
679.403	13.31
679.434	9.31
679.464	11.31
679.495	-4.69
679.525	7.31
679.556	3.31
679.586	7.31
679.617	9.31
679.647	13.31
679.678	23.31
679.708	4.31
679.739	-0.69
679.769	5.31
679.8	6.31
679.83	-12.69
679.861	6.31
679.891	9.31
679.922	-5.69
679.952	10.31
679.983	13.31
680.013	-2.69
680.044	-4.69
680.074	17.31
680.105	26.31
680.135	11.31
680.165	6.31
680.196	-4.69
680.226	-11.69
680.257	3.31
680.287	4.31
680.318	10.31
680.348	-4.69
680.379	8.31
680.409	11.31
680.439	-4.69
680.47	7.31
680.5	3.31
680.531	5.31
680.561	15.31
680.592	10.31
680.622	13.31
680.652	-6.69
680.683	7.31
680.713	1.31
680.744	3.31
680.774	7.31
680.804	13.31
680.835	-3.69
680.865	-6.69
680.896	10.31
680.926	25.31
680.956	9.31
680.987	7.31
681.017	-1.69
681.047	-2.69
681.078	-10.69
681.108	4.31
681.139	-2.69
681.169	-4.69
681.199	1.31
681.23	17.31
681.26	16.31
681.29	13.31
681.321	6.31
681.351	6.31
681.381	-1.69
681.412	11.31
681.442	6.31
681.472	16.31
681.503	7.31
681.533	2.31
681.563	-4.69
681.594	10.31
681.624	2.31
681.654	4.31
681.685	4.31
681.715	19.31
681.745	1.31
681.775	-3.69
681.806	26.31
681.836	12.31
681.866	7.31
681.897	3.31
681.927	-0.69
681.957	-17.69
681.987	6.31
682.018	-0.69
682.048	8.31
682.078	19.31
682.109	19.31
682.139	14.31
682.169	11.31
682.199	4.31
682.23	7.31
682.26	9.31
682.29	2.31
682.32	-11.69
682.351	8.31
682.381	-2.69
682.411	-20.69
682.441	-16.69
682.472	4.31
682.502	-1.69
682.532	-10.69
682.562	9.31
682.592	-2.69
682.623	0.31
682.653	-4.69
682.683	-15.69
682.713	-0.69
682.743	0.31
682.774	3.31
682.804	2.31
682.834	23.31
682.864	-14.69
682.894	-4.69
682.925	-3.69
682.955	-7.69
682.985	4.31
683.015	18.31
683.045	31.31
683.076	0.31
683.106	1.31
683.136	9.31
683.166	-1.69
683.196	14.31
683.226	13.31
683.257	0.31
683.287	-8.69
683.317	10.31
683.347	-24.69
683.377	-7.69
683.407	9.31
683.437	19.31
683.468	19.31
683.498	0.31
683.528	4.31
683.558	11.31
683.588	-11.69
683.618	-12.69
683.648	-16.69
683.678	5.31
683.708	23.31
683.739	-12.69
683.769	-1.69
683.799	-2.69
683.829	3.31
683.859	7.31
683.889	7.31
683.919	0.31
683.949	-4.69
683.979	2.31
684.009	9.31
684.039	-8.69
684.07	-5.69
684.1	12.31
684.13	8.31
684.16	12.31
684.19	-5.69
684.22	9.31
684.25	6.31
684.28	-8.69
684.31	21.31
684.34	21.31
684.37	4.31
684.4	-10.69
684.43	-11.69
684.46	5.31
684.49	7.31
684.52	23.31
684.55	11.31
684.58	13.31
684.61	19.31
684.64	15.31
684.67	16.31
684.7	-2.69
684.73	19.31
684.76	6.31
684.79	8.31
684.82	20.31
684.85	4.31
684.88	14.31
684.91	7.31
684.94	12.31
684.97	2.31
685	-18.69
685.03	3.31
685.06	-6.69
685.09	22.31
685.12	21.31
685.15	-27.69
685.18	3.31
685.21	15.31
685.24	22.31
685.27	11.31
685.3	10.31
685.33	-4.69
685.36	-1.69
685.39	10.31
685.42	7.31
685.45	3.31
685.48	-6.69
685.51	1.31
685.54	7.31
685.569	8.31
685.599	8.31
685.629	14.31
685.659	19.31
685.689	-3.69
685.719	15.31
685.749	7.31
685.779	7.31
685.809	16.31
685.839	-4.69
685.869	1.31
685.898	4.31
685.928	8.31
685.958	1.31
685.988	10.31
686.018	6.31
686.048	0.31
686.078	28.31
686.108	8.31
686.137	6.31
686.167	24.31
686.197	-5.69
686.227	7.31
686.257	17.31
686.287	18.31
686.317	-1.69
686.346	-14.69
686.376	0.31
686.406	-6.69
686.436	3.31
686.466	8.31
686.496	26.31
686.525	24.31
686.555	21.31
686.585	23.31
686.615	10.31
686.645	30.31
686.675	-6.69
686.704	16.31
686.734	2.31
686.764	6.31
686.794	19.31
686.824	3.31
686.853	16.31
686.883	-3.69
686.913	17.31
686.943	15.31
686.973	6.31
687.002	4.31
687.032	14.31
687.062	-4.69
687.092	10.31
687.121	15.31
687.151	7.31
687.181	2.31
687.211	33.31
687.24	4.31
687.27	0.31
687.3	3.31
687.33	8.31
687.359	-8.69
687.389	5.31
687.419	2.31
687.449	-9.69
687.478	17.31
687.508	11.31
687.538	10.31
687.568	11.31
687.597	-7.69
687.627	-5.69
687.657	18.31
687.686	6.31
687.716	25.31
687.746	-6.69
687.776	0.31
687.805	34.31
687.835	-4.69
687.865	23.31
687.894	35.31
687.924	12.31
687.954	-1.69
687.983	4.31
688.013	18.31
688.043	6.31
688.072	10.31
688.102	-0.69
688.132	-4.69
688.161	14.31
688.191	1.31
688.221	27.31
688.25	-4.69
688.28	13.31
688.31	-4.69
688.339	7.31
688.369	5.31
688.399	6.31
688.428	3.31
688.458	2.31
688.488	-6.69
688.517	7.31
688.547	-6.69
688.576	34.31
688.606	17.31
688.636	4.31
688.665	6.31
688.695	10.31
688.725	8.31
688.754	10.31
688.784	15.31
688.813	21.31
688.843	7.31
688.873	3.31
688.902	-7.69
688.932	9.31
688.961	0.31
688.991	6.31
689.02	18.31
689.05	16.31
689.08	13.31
689.109	10.31
689.139	6.31
689.168	7.31
689.198	-8.69
689.227	-2.69
689.257	11.31
689.287	14.31
689.316	-7.69
689.346	7.31
689.375	0.31
689.405	6.31
689.434	4.31
689.464	5.31
689.493	1.31
689.523	-3.69
689.552	-3.69
689.582	8.31
689.611	6.31
689.641	12.31
689.67	-6.69
689.7	24.31
689.73	12.31
689.759	4.31
689.789	14.31
689.818	5.31
689.848	9.31
689.877	29.31
689.906	1.31
689.936	-0.69
689.965	7.31
689.995	20.31
690.024	12.31
690.054	13.31
690.083	10.31
690.113	17.31
690.142	6.31
690.172	4.31
690.201	15.31
690.231	7.31
690.26	-1.69
690.29	11.31
690.319	14.31
690.348	14.31
690.378	11.31
690.407	-4.69
690.437	11.31
690.466	10.31
690.496	9.31
690.525	8.31
690.555	4.31
690.584	9.31
690.613	0.31
690.643	0.31
690.672	4.31
690.702	-3.69
690.731	15.31
690.76	5.31
690.79	-6.69
690.819	-3.69
690.849	-6.69
690.878	10.31
690.907	13.31
690.937	13.31
690.966	30.31
690.996	1.31
691.025	0.31
691.054	5.31
691.084	0.31
691.113	9.31
691.142	9.31
691.172	0.31
691.201	21.31
691.23	12.31
691.26	17.31
691.289	6.31
691.319	9.31
691.348	13.31
691.377	21.31
691.407	9.31
691.436	8.31
691.465	3.31
691.495	11.31
691.524	0.31
691.553	-6.69
691.583	0.31
691.612	14.31
691.641	6.31
691.67	-4.69
691.7	-2.69
691.729	-9.69
691.758	9.31
691.788	-3.69
691.817	-4.69
691.846	-2.69
691.876	11.31
691.905	17.31
691.934	7.31
691.963	13.31
691.993	8.31
692.022	0.31
692.051	-2.69
692.081	12.31
692.11	19.31
692.139	17.31
692.168	23.31
692.198	20.31
692.227	1.31
692.256	11.31
692.285	0.31
692.315	6.31
692.344	15.31
692.373	2.31
692.402	3.31
692.432	-0.69
692.461	-3.69
692.49	-2.69
692.519	6.31
692.548	22.31
692.578	18.31
692.607	-0.69
692.636	-0.69
692.665	16.31
692.694	24.31
692.724	7.31
692.753	21.31
692.782	32.31
692.811	3.31
692.84	4.31
692.87	4.31
692.899	4.31
692.928	8.31
692.957	5.31
692.986	7.31
693.016	11.31
693.045	8.31
693.074	5.31
693.103	3.31
693.132	8.31
693.161	2.31
693.191	-20.69
693.22	-10.69
693.249	3.31
693.278	18.31
693.307	23.31
693.336	-6.69
693.365	6.31
693.395	10.31
693.424	8.31
693.453	10.31
693.482	-6.69
693.511	7.31
693.54	12.31
693.569	13.31
693.598	3.31
693.628	7.31
693.657	17.31
693.686	16.31
693.715	6.31
693.744	9.31
693.773	25.31
693.802	15.31
693.831	-7.69
693.86	26.31
693.889	7.31
693.919	-5.69
693.948	13.31
693.977	11.31
694.006	-1.69
694.035	12.31
694.064	1.31
694.093	9.31
694.122	12.31
694.151	6.31
694.18	8.31
694.209	25.31
694.238	33.31
694.267	37.31
694.296	14.31
694.325	2.31
694.354	14.31
694.383	16.31
694.412	-3.69
694.441	10.31
694.471	-0.69
694.5	-13.69
694.529	3.31
694.558	23.31
694.587	9.31
694.616	13.31
694.645	3.31
694.674	17.31
694.703	12.31
694.732	-14.69
694.761	26.31
694.79	21.31
694.819	-3.69
694.848	3.31
694.877	13.31
694.906	8.31
694.935	8.31
694.963	28.31
694.992	15.31
695.021	10.31
695.05	20.31
695.079	7.31
695.108	4.31
695.137	26.31
695.166	14.31
695.195	5.31
695.224	20.31
695.253	-12.69
695.282	-7.69
695.311	10.31
695.34	-16.69
695.369	8.31
695.398	9.31
695.427	23.31
695.456	13.31
695.485	2.31
695.513	-3.69
695.542	8.31
695.571	3.31
695.6	16.31
695.629	2.31
695.658	7.31
695.687	1.31
695.716	-4.69
695.745	17.31
695.774	-4.69
695.802	3.31
695.831	3.31
695.86	3.31
695.889	-2.69
695.918	3.31
695.947	-8.69
695.976	-1.69
696.005	15.31
696.033	3.31
696.062	7.31
696.091	17.31
696.12	11.31
696.149	18.31
696.178	11.31
696.207	11.31
696.235	-13.69
696.264	15.31
696.293	-0.69
696.322	16.31
696.351	8.31
696.38	7.31
696.408	10.31
696.437	-0.69
696.466	5.31
696.495	30.31
696.524	18.31
696.553	4.31
696.581	15.31
696.61	6.31
696.639	-6.69
696.668	-0.69
696.697	-3.69
696.725	8.31
696.754	7.31
696.783	3.31
696.812	11.31
696.84	11.31
696.869	19.31
696.898	2.31
696.927	19.31
696.956	12.31
696.984	-0.69
697.013	5.31
697.042	4.31
697.071	10.31
697.099	22.31
697.128	19.31
697.157	7.31
697.186	7.31
697.214	9.31
697.243	-2.69
697.272	14.31
697.301	18.31
697.329	14.31
697.358	5.31
697.387	25.31
697.415	14.31
697.444	2.31
697.473	5.31
697.502	-14.69
697.53	18.31
697.559	11.31
697.588	6.31
697.616	-0.69
697.645	11.31
697.674	27.31
697.703	4.31
697.731	20.31
697.76	16.31
697.789	0.31
697.817	10.31
697.846	22.31
697.875	13.31
697.903	21.31
697.932	-3.69
697.961	3.31
697.989	14.31
698.018	17.31
698.047	7.31
698.075	26.31
698.104	21.31
698.133	6.31
698.161	5.31
698.19	14.31
698.218	2.31
698.247	12.31
698.276	9.31
698.304	-2.69
698.333	-9.69
698.362	-5.69
698.39	8.31
698.419	11.31
698.447	-6.69
698.476	19.31
698.505	7.31
698.533	6.31
698.562	11.31
698.591	-1.69
698.619	-1.69
698.648	13.31
698.676	15.31
698.705	-3.69
698.733	-0.69
698.762	20.31
698.791	8.31
698.819	5.31
698.848	3.31
698.876	12.31
698.905	9.31
698.933	10.31
698.962	-7.69
698.991	7.31
699.019	14.31
699.048	6.31
699.076	11.31
699.105	9.31
699.133	-0.69
699.162	10.31
699.19	15.31
699.219	13.31
699.248	17.31
699.276	-2.69
699.305	-4.69
699.333	12.31
699.362	12.31
699.39	26.31
699.419	-4.69
699.447	3.31
699.476	13.31
699.504	6.31
699.533	19.31
699.561	-8.69
699.59	1.31
699.618	5.31
699.647	12.31
699.675	14.31
699.704	10.31
699.732	-0.69
699.761	9.31
699.789	-4.69
699.818	29.31
699.846	18.31
699.874	-6.69
699.903	1.31
699.931	1.31
699.96	10.31
699.988	1.31
700.017	15.31
700.045	-4.69
700.074	10.31
700.102	15.31
700.13	-0.69
700.159	14.31
700.187	6.31
700.216	-14.69
700.244	9.31
700.273	7.31
700.301	0.31
700.329	13.31
700.358	20.31
700.386	2.31
700.415	-11.69
700.443	7.31
700.472	3.31
700.5	17.31
700.528	6.31
700.557	7.31
700.585	7.31
700.614	4.31
700.642	22.31
700.67	16.31
700.699	10.31
700.727	9.31
700.755	5.31
700.784	25.31
700.812	6.31
700.841	7.31
700.869	8.31
700.897	-8.69
700.926	7.31
700.954	20.31
700.982	23.31
701.011	4.31
701.039	4.31
701.067	9.31
701.096	9.31
701.124	2.31
701.152	-0.69
701.181	-0.69
701.209	-11.69
701.237	11.31
701.266	4.31
701.294	8.31
701.322	12.31
701.351	20.31
701.379	10.31
701.407	6.31
701.435	-8.69
701.464	6.31
701.492	5.31
701.52	7.31
701.549	12.31
701.577	-5.69
701.605	-8.69
701.634	17.31
701.662	2.31
701.69	-1.69
701.718	-14.69
701.747	15.31
701.775	14.31
701.803	-0.69
701.831	8.31
701.86	8.31
701.888	27.31
701.916	-1.69
701.944	14.31
701.973	-0.69
702.001	0.31
702.029	-3.69
702.057	-2.69
702.086	11.31
702.114	-4.69
702.142	18.31
702.17	15.31
702.199	-7.69
702.227	-3.69
702.255	12.31
702.283	7.31
702.311	7.31
702.34	-0.69
702.368	-0.69
702.396	12.31
702.424	-4.69
702.452	-0.69
702.481	5.31
702.509	-2.69
702.537	17.31
702.565	6.31
702.593	-5.69
702.621	7.31
702.65	19.31
702.678	17.31
702.706	0.31
702.734	-5.69
702.762	2.31
702.79	12.31
702.819	0.31
702.847	8.31
702.875	21.31
702.903	7.31
702.931	0.31
702.959	11.31
702.988	14.31
703.016	-11.69
703.044	0.31
703.072	10.31
703.1	-7.69
703.128	-14.69
703.156	7.31
703.184	4.31
703.212	12.31
703.241	-0.69
703.269	1.31
703.297	-2.69
703.325	11.31
703.353	-0.69
703.381	-3.69
703.409	17.31
703.437	-0.69
703.465	2.31
703.493	-7.69
703.522	13.31
703.55	13.31
703.578	7.31
703.606	-3.69
703.634	15.31
703.662	-8.69
703.69	8.31
703.718	18.31
703.746	13.31
703.774	9.31
703.802	14.31
703.83	10.31
703.858	6.31
703.886	0.31
703.914	-5.69
703.942	18.31
703.97	-3.69
703.998	-14.69
704.027	7.31
704.055	11.31
704.083	11.31
704.111	-13.69
704.139	9.31
704.167	16.31
704.195	2.31
704.223	-0.69
704.251	-4.69
704.279	-0.69
704.307	8.31
704.335	-21.69
704.363	-4.69
704.391	-2.69
704.419	-12.69
704.447	4.31
704.475	8.31
704.503	-7.69
704.531	7.31
704.558	3.31
704.586	3.31
704.614	-2.69
704.642	14.31
704.67	-9.69
704.698	-7.69
704.726	15.31
704.754	-5.69
704.782	5.31
704.81	-2.69
704.838	19.31
704.866	4.31
704.894	1.31
704.922	15.31
704.95	8.31
704.978	6.31
705.006	7.31
705.034	4.31
705.061	-9.69
705.089	11.31
705.117	-1.69
705.145	-8.69
705.173	-0.69
705.201	-5.69
705.229	0.31
705.257	9.31
705.285	8.31
705.313	6.31
705.34	8.31
705.368	1.31
705.396	12.31
705.424	6.31
705.452	5.31
705.48	15.31
705.508	4.31
705.536	7.31
705.563	5.31
705.591	5.31
705.619	5.31
705.647	3.31
705.675	-2.69
705.703	19.31
705.731	-9.69
705.758	4.31
705.786	-2.69
705.814	26.31
705.842	19.31
705.87	18.31
705.898	19.31
705.925	-1.69
705.953	11.31
705.981	-7.69
706.009	1.31
706.037	14.31
706.065	13.31
706.092	3.31
706.12	3.31
706.148	-7.69
706.176	5.31
706.204	12.31
706.231	20.31
706.259	4.31
706.287	-8.69
706.315	0.31
706.342	17.31
706.37	25.31
706.398	11.31
706.426	2.31
706.454	2.31
706.481	7.31
706.509	3.31
706.537	5.31
706.565	4.31
706.592	7.31
706.62	-2.69
706.648	10.31
706.676	-5.69
706.703	0.31
706.731	-3.69
706.759	8.31
706.787	5.31
706.814	4.31
706.842	-5.69
706.87	11.31
706.897	-1.69
706.925	-3.69
706.953	6.31
706.981	32.31
707.008	6.31
707.036	10.31
707.064	7.31
707.091	-9.69
707.119	13.31
707.147	11.31
707.174	9.31
707.202	4.31
707.23	-4.69
707.258	12.31
707.285	-9.69
707.313	-0.69
707.341	-1.69
707.368	1.31
707.396	-6.69
707.424	17.31
707.451	15.31
707.479	14.31
707.507	0.31
707.534	-3.69
707.562	-11.69
707.59	-8.69
707.617	-4.69
707.645	15.31
707.672	-0.69
707.7	-1.69
707.728	20.31
707.755	-4.69
707.783	1.31
707.811	14.31
707.838	0.31
707.866	11.31
707.893	-2.69
707.921	3.31
707.949	11.31
707.976	22.31
708.004	24.31
708.031	-4.69
708.059	2.31
708.087	5.31
708.114	-0.69
708.142	-8.69
708.169	-5.69
708.197	-11.69
708.225	-2.69
708.252	-11.69
708.28	-0.69
708.307	-1.69
708.335	-6.69
708.362	1.31
708.39	-15.69
708.418	15.31
708.445	4.31
708.473	-6.69
708.5	-7.69
708.528	2.31
708.555	-8.69
708.583	2.31
708.61	3.31
708.638	-0.69
708.665	-4.69
708.693	-3.69
708.72	-6.69
708.748	-3.69
708.776	3.31
708.803	2.31
708.831	1.31
708.858	24.31
708.886	9.31
708.913	15.31
708.941	20.31
708.968	6.31
708.996	-2.69
709.023	23.31
709.051	-3.69
709.078	-7.69
709.105	0.31
709.133	-6.69
709.16	10.31
709.188	21.31
709.215	18.31
709.243	10.31
709.27	-0.69
709.298	5.31
709.325	0.31
709.353	7.31
709.38	17.31
709.408	3.31
709.435	4.31
709.462	3.31
709.49	11.31
709.517	-16.69
709.545	-9.69
709.572	2.31
709.6	0.31
709.627	3.31
709.655	-9.69
709.682	-15.69
709.709	-8.69
709.737	12.31
709.764	-4.69
709.792	24.31
709.819	7.31
709.846	-7.69
709.874	12.31
709.901	9.31
709.929	16.31
709.956	11.31
709.983	-0.69
710.011	-4.69
710.038	15.31
710.066	4.31
710.093	21.31
710.12	9.31
710.148	10.31
710.175	-19.69
710.202	-1.69
710.23	4.31
710.257	10.31
710.284	4.31
710.312	6.31
710.339	13.31
710.366	-3.69
710.394	4.31
710.421	1.31
710.448	3.31
710.476	-2.69
710.503	-0.69
710.53	18.31
710.558	16.31
710.585	16.31
710.612	1.31
710.64	-0.69
710.667	-7.69
710.694	-7.69
710.722	13.31
710.749	2.31
710.776	5.31
710.804	17.31
710.831	11.31
710.858	14.31
710.885	6.31
710.913	11.31
710.94	16.31
710.967	5.31
710.995	4.31
711.022	3.31
711.049	-3.69
711.076	-4.69
711.104	9.31
711.131	-4.69
711.158	4.31
711.185	5.31
711.213	-8.69
711.24	-8.69
711.267	10.31
711.294	2.31
711.322	12.31
711.349	3.31
711.376	1.31
711.403	-6.69
711.431	-15.69
711.458	-5.69
711.485	-5.69
711.512	3.31
711.54	-1.69
711.567	4.31
711.594	-15.69
711.621	-0.69
711.648	13.31
711.676	4.31
711.703	-1.69
711.73	-3.69
711.757	15.31
711.784	19.31
711.812	2.31
711.839	3.31
711.866	-16.69
711.893	-8.69
711.92	10.31
711.947	12.31
711.975	21.31
712.002	-9.69
712.029	15.31
712.056	-0.69
712.083	12.31
712.11	-6.69
712.138	2.31
712.165	0.31
712.192	3.31
712.219	3.31
712.246	-9.69
712.273	-7.69
712.3	-7.69
712.328	16.31
712.355	8.31
712.382	5.31
712.409	6.31
712.436	4.31
712.463	17.31
712.49	31.31
712.517	8.31
712.544	2.31
712.572	4.31
712.599	3.31
712.626	-13.69
712.653	-12.69
712.68	-8.69
712.707	15.31
712.734	7.31
712.761	14.31
712.788	0.31
712.815	6.31
712.842	10.31
712.87	20.31
712.897	12.31
712.924	15.31
712.951	7.31
712.978	18.31
713.005	16.31
713.032	16.31
713.059	-6.69
713.086	4.31
713.113	1.31
713.14	-2.69
713.167	9.31
713.194	-4.69
713.221	0.31
713.248	17.31
713.275	2.31
713.302	-3.69
713.329	3.31
713.356	4.31
713.383	7.31
713.41	18.31
713.437	3.31
713.464	0.31
713.491	14.31
713.518	-9.69
713.545	2.31
713.572	3.31
713.599	8.31
713.626	7.31
713.653	-6.69
713.68	-9.69
713.707	7.31
713.734	2.31
713.761	23.31
713.788	4.31
713.815	7.31
713.842	12.31
713.869	-4.69
713.896	-4.69
713.923	0.31
713.95	10.31
713.977	3.31
714.004	-9.69
714.031	4.31
714.058	-1.69
714.085	3.31
714.112	16.31
714.139	4.31
714.165	3.31
714.192	20.31
714.219	10.31
714.246	15.31
714.273	3.31
714.3	9.31
714.327	7.31
714.354	20.31
714.381	5.31
714.408	-8.69
714.435	-6.69
714.461	0.31
714.488	11.31
714.515	7.31
714.542	1.31
714.569	1.31
714.596	-17.69
714.623	4.31
714.65	11.31
714.677	10.31
714.703	10.31
714.73	1.31
714.757	5.31
714.784	10.31
714.811	-5.69
714.838	9.31
714.865	-6.69
714.891	12.31
714.918	0.31
714.945	-21.69
714.972	10.31
714.999	10.31
715.026	-13.69
715.052	20.31
715.079	0.31
715.106	10.31
715.133	10.31
715.16	-4.69
715.187	6.31
715.213	18.31
715.24	-7.69
715.267	4.31
715.294	-2.69
715.321	14.31
715.347	-0.69
715.374	-8.69
715.401	6.31
715.428	-4.69
715.455	1.31
715.481	-0.69
715.508	-3.69
715.535	-2.69
715.562	15.31
715.588	0.31
715.615	-9.69
715.642	8.31
715.669	7.31
715.695	-10.69
715.722	-9.69
715.749	9.31
715.776	24.31
715.802	9.31
715.829	6.31
715.856	-4.69
715.883	23.31
715.909	-2.69
715.936	3.31
715.963	5.31
715.99	-5.69
716.016	10.31
716.043	6.31
716.07	-5.69
716.096	2.31
716.123	-4.69
716.15	6.31
716.177	19.31
716.203	9.31
716.23	-4.69
716.257	-9.69
716.283	11.31
716.31	11.31
716.337	9.31
716.363	1.31
716.39	2.31
716.417	3.31
716.443	10.31
716.47	-5.69
716.497	16.31
716.523	27.31
716.55	15.31
716.577	18.31
716.603	3.31
716.63	10.31
716.657	-1.69
716.683	-9.69
716.71	-6.69
716.737	-6.69
716.763	12.31
716.79	2.31
716.817	15.31
716.843	4.31
716.87	-11.69
716.897	11.31
716.923	16.31
716.95	-6.69
716.976	-1.69
717.003	2.31
717.03	13.31
717.056	3.31
717.083	2.31
717.109	8.31
717.136	12.31
717.163	0.31
717.189	4.31
717.216	10.31
717.242	15.31
717.269	6.31
717.296	15.31
717.322	20.31
717.349	27.31
717.375	10.31
717.402	1.31
717.428	9.31
717.455	-5.69
717.481	1.31
717.508	14.31
717.535	9.31
717.561	4.31
717.588	1.31
717.614	3.31
717.641	1.31
717.667	6.31
717.694	27.31
717.72	-3.69
717.747	2.31
717.773	-0.69
717.8	17.31
717.826	3.31
717.853	-1.69
717.88	15.31
717.906	16.31
717.933	-2.69
717.959	1.31
717.986	-4.69
718.012	4.31
718.039	24.31
718.065	22.31
718.092	7.31
718.118	-10.69
718.144	-1.69
718.171	13.31
718.197	26.31
718.224	8.31
718.25	4.31
718.277	1.31
718.303	12.31
718.33	11.31
718.356	2.31
718.383	-18.69
718.409	2.31
718.436	1.31
718.462	-1.69
718.489	3.31
718.515	22.31
718.541	15.31
718.568	3.31
718.594	1.31
718.621	3.31
718.647	-1.69
718.674	5.31
718.7	2.31
718.726	6.31
718.753	17.31
718.779	19.31
718.806	-2.69
718.832	-0.69
718.858	6.31
718.885	6.31
718.911	16.31
718.938	7.31
718.964	-11.69
718.99	4.31
719.017	14.31
719.043	18.31
719.07	22.31
719.096	-9.69
719.122	11.31
719.149	4.31
719.175	11.31
719.201	5.31
719.228	-8.69
719.254	2.31
719.281	-1.69
719.307	6.31
719.333	-4.69
719.36	22.31
719.386	14.31
719.412	18.31
719.439	-18.69
719.465	-5.69
719.491	-0.69
719.518	3.31
719.544	7.31
719.57	17.31
719.597	11.31
719.623	3.31
719.649	26.31
719.675	14.31
719.702	18.31
719.728	10.31
719.754	-3.69
719.781	4.31
719.807	-1.69
719.833	14.31
719.86	-3.69
719.886	-7.69
719.912	-3.69
719.938	6.31
719.965	11.31
719.991	3.31
720.017	8.31
720.044	8.31
720.07	5.31
720.096	9.31
720.122	7.31
720.149	13.31
720.175	22.31
720.201	-3.69
720.227	3.31
720.254	6.31
720.28	16.31
720.306	3.31
720.332	7.31
720.359	-4.69
720.385	9.31
720.411	2.31
720.437	6.31
720.463	7.31
720.49	13.31
720.516	5.31
720.542	2.31
720.568	-3.69
720.595	14.31
720.621	15.31
720.647	6.31
720.673	5.31
720.699	2.31
720.725	1.31
720.752	7.31
720.778	10.31
720.804	21.31
720.83	4.31
720.856	8.31
720.883	3.31
720.909	-1.69
720.935	6.31
720.961	24.31
720.987	-1.69
721.013	-1.69
721.04	-3.69
721.066	-5.69
721.092	9.31
721.118	17.31
721.144	7.31
721.17	7.31
721.196	1.31
721.223	0.31
721.249	10.31
721.275	21.31
721.301	0.31
721.327	16.31
721.353	7.31
721.379	-9.69
721.405	15.31
721.432	11.31
721.458	-14.69
721.484	6.31
721.51	-2.69
721.536	7.31
721.562	6.31
721.588	3.31
721.614	2.31
721.64	1.31
721.666	0.31
721.693	0.31
721.719	7.31
721.745	1.31
721.771	-7.69
721.797	-9.69
721.823	2.31
721.849	26.31
721.875	-4.69
721.901	8.31
721.927	0.31
721.953	-0.69
721.979	8.31
722.005	1.31
722.031	0.31
722.057	22.31
722.083	16.31
722.109	12.31
722.135	11.31
722.161	18.31
722.187	6.31
722.214	-0.69
722.24	3.31
722.266	-17.69
722.292	4.31
722.318	7.31
722.344	11.31
722.37	12.31
722.396	0.31
722.422	-0.69
722.448	0.31
722.474	-7.69
722.5	15.31
722.526	8.31
722.552	-0.69
722.578	1.31
722.603	10.31
722.629	-9.69
722.655	-2.69
722.681	-3.69
722.707	16.31
722.733	12.31
722.759	-9.69
722.785	7.31
722.811	6.31
722.837	5.31
722.863	7.31
722.889	15.31
722.915	12.31
722.941	4.31
722.967	18.31
722.993	10.31
723.019	15.31
723.045	11.31
723.071	8.31
723.097	10.31
723.122	17.31
723.148	3.31
723.174	2.31
723.2	17.31
723.226	6.31
723.252	4.31
723.278	2.31
723.304	1.31
723.33	11.31
723.356	13.31
723.381	1.31
723.407	-0.69
723.433	23.31
723.459	-4.69
723.485	0.31
723.511	7.31
723.537	8.31
723.563	16.31
723.588	18.31
723.614	-8.69
723.64	7.31
723.666	9.31
723.692	12.31
723.718	6.31
723.744	12.31
723.769	6.31
723.795	4.31
723.821	11.31
723.847	10.31
723.873	31.31
723.899	11.31
723.924	7.31
723.95	8.31
723.976	-1.69
724.002	-2.69
724.028	3.31
724.053	8.31
724.079	-2.69
724.105	7.31
724.131	17.31
724.157	9.31
724.182	2.31
724.208	-7.69
724.234	-1.69
724.26	-8.69
724.286	6.31
724.311	-3.69
724.337	3.31
724.363	1.31
724.389	4.31
724.415	-12.69
724.44	6.31
724.466	11.31
724.492	12.31
724.518	12.31
724.543	10.31
724.569	22.31
724.595	15.31
724.621	2.31
724.646	-5.69
724.672	0.31
724.698	4.31
724.723	-1.69
724.749	5.31
724.775	3.31
724.801	4.31
724.826	1.31
724.852	-17.69
724.878	1.31
724.904	-7.69
724.929	8.31
724.955	0.31
724.981	10.31
725.006	6.31
725.032	15.31
725.058	2.31
725.083	-3.69
725.109	9.31
725.135	5.31
725.161	1.31
725.186	6.31
725.212	3.31
725.238	20.31
725.263	2.31
725.289	-2.69
725.315	-8.69
725.34	-2.69
725.366	8.31
725.392	4.31
725.417	4.31
725.443	6.31
725.468	9.31
725.494	8.31
725.52	2.31
725.545	2.31
725.571	-13.69
725.597	0.31
725.622	9.31
725.648	4.31
725.674	25.31
725.699	6.31
725.725	-0.69
725.75	18.31
725.776	-3.69
725.802	23.31
725.827	8.31
725.853	6.31
725.878	0.31
725.904	9.31
725.93	15.31
725.955	4.31
725.981	4.31
726.006	1.31
726.032	12.31
726.057	0.31
726.083	11.31
726.109	13.31
726.134	7.31
726.16	11.31
726.185	10.31
726.211	-5.69
726.236	11.31
726.262	5.31
726.288	2.31
726.313	12.31
726.339	13.31
726.364	18.31
726.39	21.31
726.415	12.31
726.441	25.31
726.466	-1.69
726.492	2.31
726.517	10.31
726.543	10.31
726.568	4.31
726.594	-2.69
726.619	15.31
726.645	0.31
726.67	12.31
726.696	9.31
726.721	1.31
726.747	-5.69
726.772	11.31
726.798	8.31
726.823	4.31
726.849	-9.69
726.874	19.31
726.9	17.31
726.925	20.31
726.951	7.31
726.976	8.31
727.002	-1.69
727.027	6.31
727.053	27.31
727.078	-2.69
727.104	8.31
727.129	-0.69
727.155	1.31
727.18	7.31
727.205	-6.69
727.231	12.31
727.256	-3.69
727.282	0.31
727.307	14.31
727.333	-0.69
727.358	1.31
727.383	3.31
727.409	-0.69
727.434	2.31
727.46	6.31
727.485	12.31
727.511	12.31
727.536	-16.69
727.561	-11.69
727.587	0.31
727.612	11.31
727.637	1.31
727.663	-7.69
727.688	22.31
727.714	6.31
727.739	-0.69
727.764	-7.69
727.79	-1.69
727.815	-0.69
727.841	27.31
727.866	12.31
727.891	8.31
727.917	-0.69
727.942	-4.69
727.967	5.31
727.993	-7.69
728.018	9.31
728.043	15.31
728.069	3.31
728.094	15.31
728.119	5.31
728.145	3.31
728.17	19.31
728.195	12.31
728.221	3.31
728.246	-5.69
728.271	-11.69
728.297	12.31
728.322	4.31
728.347	19.31
728.373	9.31
728.398	0.31
728.423	-6.69
728.448	-5.69
728.474	1.31
728.499	10.31
728.524	-1.69
728.55	-15.69
728.575	-0.69
728.6	7.31
728.625	4.31
728.651	19.31
728.676	-22.69
728.701	-9.69
728.727	6.31
728.752	-6.69
728.777	2.31
728.802	-7.69
728.828	6.31
728.853	11.31
728.878	9.31
728.903	6.31
728.929	-8.69
728.954	-12.69
728.979	4.31
729.004	1.31
729.03	7.31
729.055	19.31
729.08	-0.69
729.105	-2.69
729.13	17.31
729.156	15.31
729.181	12.31
729.206	6.31
729.231	-0.69
729.256	12.31
729.282	7.31
729.307	-5.69
729.332	-1.69
729.357	-0.69
729.382	-2.69
729.408	-1.69
729.433	4.31
729.458	10.31
729.483	21.31
729.508	6.31
729.533	11.31
729.559	8.31
729.584	2.31
729.609	14.31
729.634	13.31
729.659	4.31
729.684	6.31
729.71	9.31
729.735	-4.69
729.76	2.31
729.785	6.31
729.81	17.31
729.835	-2.69
729.86	-6.69
729.886	-4.69
729.911	6.31
729.936	3.31
729.961	6.31
729.986	-2.69
730.011	0.31
730.036	2.31
730.061	10.31
730.086	11.31
730.112	10.31
730.137	24.31
730.162	6.31
730.187	-2.69
730.212	0.31
730.237	-8.69
730.262	-3.69
730.287	2.31
730.312	19.31
730.337	-0.69
730.362	18.31
730.387	-3.69
730.413	-6.69
730.438	-5.69
730.463	19.31
730.488	1.31
730.513	18.31
730.538	-1.69
730.563	26.31
730.588	32.31
730.613	12.31
730.638	10.31
730.663	-2.69
730.688	24.31
730.713	4.31
730.738	12.31
730.763	3.31
730.788	-11.69
730.813	12.31
730.838	23.31
730.863	3.31
730.888	-7.69
730.913	0.31
730.938	-25.69
730.963	6.31
730.988	1.31
731.013	19.31
731.038	-3.69
731.063	7.31
731.088	17.31
731.113	-5.69
731.138	7.31
731.163	7.31
731.188	3.31
731.213	13.31
731.238	3.31
731.263	-1.69
731.288	-6.69
731.313	7.31
731.338	12.31
731.363	4.31
731.388	1.31
731.413	-1.69
731.438	18.31
731.463	8.31
731.487	13.31
731.512	6.31
731.537	7.31
731.562	3.31
731.587	18.31
731.612	-9.69
731.637	0.31
731.662	14.31
731.687	-4.69
731.712	-0.69
731.737	16.31
731.762	2.31
731.786	14.31
731.811	12.31
731.836	7.31
731.861	1.31
731.886	4.31
731.911	-0.69
731.936	2.31
731.961	17.31
731.986	4.31
732.01	15.31
732.035	10.31
732.06	14.31
732.085	7.31
732.11	-3.69
732.135	-11.69
732.16	0.31
732.184	4.31
732.209	10.31
732.234	23.31
732.259	4.31
732.284	12.31
732.309	8.31
732.334	0.31
732.358	-15.69
732.383	-16.69
732.408	-1.69
732.433	6.31
732.458	-2.69
732.482	7.31
732.507	-2.69
732.532	14.31
732.557	11.31
732.582	5.31
732.607	12.31
732.631	-6.69
732.656	8.31
732.681	7.31
732.706	12.31
732.73	-4.69
732.755	-2.69
732.78	-2.69
732.805	5.31
732.83	1.31
732.854	7.31
732.879	13.31
732.904	-10.69
732.929	-4.69
732.953	4.31
732.978	15.31
733.003	-2.69
733.028	0.31
733.052	11.31
733.077	7.31
733.102	18.31
733.127	7.31
733.151	18.31
733.176	-1.69
733.201	-4.69
733.226	2.31
733.25	7.31
733.275	-5.69
733.3	8.31
733.324	2.31
733.349	11.31
733.374	9.31
733.399	-3.69
733.423	6.31
733.448	10.31
733.473	-5.69
733.497	0.31
733.522	-1.69
733.547	17.31
733.571	27.31
733.596	6.31
733.621	19.31
733.646	3.31
733.67	6.31
733.695	-1.69
733.72	-1.69
733.744	1.31
733.769	11.31
733.794	26.31
733.818	3.31
733.843	6.31
733.867	-5.69
733.892	4.31
733.917	18.31
733.941	4.31
733.966	-3.69
733.991	1.31
734.015	17.31
734.04	8.31
734.065	15.31
734.089	23.31
734.114	18.31
734.138	-0.69
734.163	4.31
734.188	12.31
734.212	21.31
734.237	17.31
734.261	18.31
734.286	4.31
734.311	0.31
734.335	2.31
734.36	3.31
734.384	20.31
734.409	10.31
734.434	-9.69
734.458	7.31
734.483	7.31
734.507	-1.69
734.532	12.31
734.556	-1.69
734.581	1.31
734.606	-0.69
734.63	-9.69
734.655	3.31
734.679	19.31
734.704	-12.69
734.728	6.31
734.753	0.31
734.777	9.31
734.802	6.31
734.826	12.31
734.851	3.31
734.876	23.31
734.9	-0.69
734.925	20.31
734.949	18.31
734.974	19.31
734.998	6.31
735.023	6.31
735.047	-2.69
735.072	28.31
735.096	17.31
735.121	7.31
735.145	1.31
735.17	4.31
735.194	14.31
735.219	14.31
735.243	16.31
735.268	12.31
735.292	22.31
735.317	10.31
735.341	-0.69
735.365	-4.69
735.39	21.31
735.414	9.31
735.439	4.31
735.463	12.31
735.488	10.31
735.512	12.31
735.537	13.31
735.561	-9.69
735.586	8.31
735.61	2.31
735.634	3.31
735.659	10.31
735.683	18.31
735.708	0.31
735.732	9.31
735.757	3.31
735.781	10.31
735.805	0.31
735.83	7.31
735.854	19.31
735.879	2.31
735.903	10.31
735.927	16.31
735.952	18.31
735.976	23.31
736.001	9.31
736.025	10.31
736.049	2.31
736.074	2.31
736.098	-1.69
736.123	10.31
736.147	-3.69
736.171	16.31
736.196	16.31
736.22	-3.69
736.244	15.31
736.269	1.31
736.293	16.31
736.317	11.31
736.342	13.31
736.366	18.31
736.39	10.31
736.415	13.31
736.439	8.31
736.463	22.31
736.488	25.31
736.512	21.31
736.536	5.31
736.561	17.31
736.585	3.31
736.609	11.31
736.634	-0.69
736.658	13.31
736.682	7.31
736.707	3.31
736.731	-12.69
736.755	12.31
736.78	24.31
736.804	8.31
736.828	21.31
736.852	3.31
736.877	7.31
736.901	13.31
736.925	-0.69
736.949	15.31
736.974	0.31
736.998	6.31
737.022	-6.69
737.047	8.31
737.071	9.31
737.095	25.31
737.119	30.31
737.144	8.31
737.168	4.31
737.192	-3.69
737.216	7.31
737.241	3.31
737.265	4.31
737.289	-5.69
737.313	6.31
737.337	4.31
737.362	11.31
737.386	11.31
737.41	0.31
737.434	11.31
737.459	8.31
737.483	22.31
737.507	31.31
737.531	34.31
737.555	1.31
737.58	14.31
737.604	16.31
737.628	0.31
737.652	-0.69
737.676	1.31
737.701	20.31
737.725	9.31
737.749	22.31
737.773	2.31
737.797	10.31
737.821	15.31
737.846	7.31
737.87	22.31
737.894	14.31
737.918	1.31
737.942	-3.69
737.966	8.31
737.99	20.31
738.015	7.31
738.039	13.31
738.063	-0.69
738.087	19.31
738.111	-4.69
738.135	19.31
738.159	4.31
738.184	2.31
738.208	2.31
738.232	12.31
738.256	20.31
738.28	17.31
738.304	11.31
738.328	7.31
738.352	-1.69
738.376	-0.69
738.4	15.31
738.425	-0.69
738.449	-8.69
738.473	20.31
738.497	11.31
738.521	0.31
738.545	8.31
738.569	10.31
738.593	0.31
738.617	6.31
738.641	12.31
738.665	10.31
738.689	9.31
738.713	-12.69
738.737	15.31
738.762	28.31
738.786	3.31
738.81	-3.69
738.834	4.31
738.858	6.31
738.882	2.31
738.906	-4.69
738.93	14.31
738.954	0.31
738.978	12.31
739.002	8.31
739.026	16.31
739.05	-1.69
739.074	6.31
739.098	29.31
739.122	14.31
739.146	12.31
739.17	14.31
739.194	15.31
739.218	-3.69
739.242	3.31
739.266	7.31
739.29	12.31
739.314	14.31
739.338	12.31
739.362	-6.69
739.386	-6.69
739.41	-9.69
739.434	2.31
739.458	19.31
739.482	12.31
739.506	20.31
739.53	9.31
739.554	14.31
739.577	-2.69
739.601	4.31
739.625	-14.69
739.649	3.31
739.673	2.31
739.697	7.31
739.721	8.31
739.745	12.31
739.769	4.31
739.793	12.31
739.817	17.31
739.841	-5.69
739.865	3.31
739.889	1.31
739.912	17.31
739.936	10.31
739.96	16.31
739.984	8.31
740.008	6.31
740.032	1.31
740.056	10.31
740.08	26.31
740.104	-8.69
740.127	15.31
740.151	16.31
740.175	26.31
740.199	17.31
740.223	54.31
740.247	13.31
740.271	16.31
740.295	-4.69
740.318	11.31
740.342	-0.69
740.366	15.31
740.39	21.31
740.414	1.31
740.438	-7.69
740.461	29.31
740.485	6.31
740.509	-9.69
740.533	7.31
740.557	4.31
740.581	-0.69
740.604	-0.69
740.628	0.31
740.652	9.31
740.676	-4.69
740.7	8.31
740.723	9.31
740.747	3.31
740.771	2.31
740.795	-5.69
740.819	-1.69
740.842	6.31
740.866	25.31
740.89	10.31
740.914	0.31
740.938	-4.69
740.961	6.31
740.985	9.31
741.009	8.31
741.033	13.31
741.056	0.31
741.08	7.31
741.104	14.31
741.128	4.31
741.151	19.31
741.175	11.31
741.199	2.31
741.223	13.31
741.246	13.31
741.27	6.31
741.294	10.31
741.318	-2.69
741.341	5.31
741.365	23.31
741.389	4.31
741.413	7.31
741.436	9.31
741.46	17.31
741.484	6.31
741.507	-10.69
741.531	19.31
741.555	10.31
741.579	16.31
741.602	13.31
741.626	7.31
741.65	-0.69
741.673	6.31
741.697	3.31
741.721	22.31
741.744	3.31
741.768	7.31
741.792	-7.69
741.815	0.31
741.839	19.31
741.863	15.31
741.886	12.31
741.91	0.31
741.934	12.31
741.957	-7.69
741.981	9.31
742.005	10.31
742.028	-0.69
742.052	4.31
742.075	26.31
742.099	25.31
742.123	6.31
742.146	6.31
742.17	-8.69
742.194	0.31
742.217	0.31
742.241	6.31
742.264	2.31
742.288	16.31
742.312	17.31
742.335	-0.69
742.359	5.31
742.382	28.31
742.406	17.31
742.43	-3.69
742.453	2.31
742.477	-2.69
742.5	3.31
742.524	-9.69
742.548	3.31
742.571	19.31
742.595	6.31
742.618	17.31
742.642	10.31
742.665	20.31
742.689	1.31
742.712	4.31
742.736	1.31
742.76	8.31
742.783	1.31
742.807	10.31
742.83	6.31
742.854	-5.69
742.877	-9.69
742.901	-0.69
742.924	3.31
742.948	14.31
742.971	18.31
742.995	13.31
743.018	1.31
743.042	-3.69
743.065	17.31
743.089	3.31
743.112	1.31
743.136	-1.69
743.159	12.31
743.183	7.31
743.206	14.31
743.23	8.31
743.253	2.31
743.277	7.31
743.3	11.31
743.324	13.31
743.347	8.31
743.371	5.31
743.394	4.31
743.418	18.31
743.441	13.31
743.465	0.31
743.488	7.31
743.512	-7.69
743.535	-3.69
743.558	2.31
743.582	19.31
743.605	-6.69
743.629	15.31
743.652	2.31
743.676	-0.69
743.699	9.31
743.723	18.31
743.746	6.31
743.769	1.31
743.793	7.31
743.816	1.31
743.84	7.31
743.863	6.31
743.886	15.31
743.91	13.31
743.933	2.31
743.957	7.31
743.98	3.31
744.003	11.31
744.027	0.31
744.05	3.31
744.074	4.31
744.097	-15.69
744.12	-12.69
744.144	-16.69
744.167	3.31
744.19	17.31
744.214	-1.69
744.237	-0.69
744.26	17.31
744.284	5.31
744.307	-4.69
744.331	6.31
744.354	12.31
744.377	2.31
744.401	-17.69
744.424	-1.69
744.447	4.31
744.471	-3.69
