Data from HighRes_H2D2_15_04_11_07_2024_HR4C61891__85__15-05-42-942.txt Node

Date: Thu Nov 07 15:05:42 EST 2024
User: crc00042
Spectrometer: HR4C6189
Trigger mode: 4
Integration Time (sec): 1.000000E-1
Scans to average: 1
Electric dark correction enabled: true
Nonlinearity correction enabled: false
Boxcar width: 0
XAxis mode: Wavelengths
Number of Pixels in Spectrum: 3648
>>>>>Begin Spectral Data<<<<<
639.567	-39.92
639.602	-39.92
639.636	-39.92
639.67	-51.92
639.704	-18.92
639.738	9.08
639.773	4.08
639.807	-15.92
639.841	-4.92
639.875	20.08
639.909	-6.92
639.943	-18.92
639.978	4.08
640.012	7.08
640.046	7.08
640.08	13.08
640.114	0.08
640.148	-17.92
640.182	-18.92
640.217	-2.92
640.251	10.08
640.285	11.08
640.319	-12.92
640.353	-1.92
640.387	-3.92
640.421	5.08
640.455	0.08
640.49	2.08
640.524	-13.92
640.558	6.08
640.592	-3.92
640.626	-6.92
640.66	-9.92
640.694	0.08
640.728	12.08
640.762	10.08
640.796	23.08
640.83	27.08
640.865	0.08
640.899	-3.92
640.933	-4.92
640.967	-11.92
641.001	6.08
641.035	4.08
641.069	0.08
641.103	-5.92
641.137	-13.92
641.171	-19.92
641.205	-9.92
641.239	1.08
641.273	12.08
641.307	10.08
641.341	30.08
641.375	-0.92
641.409	-0.92
641.443	7.08
641.477	21.08
641.511	6.08
641.545	1.08
641.579	5.08
641.614	-0.92
641.648	13.08
641.682	-10.92
641.716	-1.92
641.75	25.08
641.784	16.08
641.818	10.08
641.852	-1.92
641.886	-5.92
641.919	13.08
641.953	-4.92
641.987	-30.92
642.021	9.08
642.055	9.08
642.089	-10.92
642.123	-4.92
642.157	5.08
642.191	-14.92
642.225	-3.92
642.259	-6.92
642.293	1.08
642.327	-8.92
642.361	-11.92
642.395	13.08
642.429	9.08
642.463	1.08
642.497	5.08
642.531	11.08
642.565	-13.92
642.599	13.08
642.633	-7.92
642.666	4.08
642.7	0.08
642.734	18.08
642.768	-8.92
642.802	6.08
642.836	12.08
642.87	-14.92
642.904	7.08
642.938	14.08
642.972	-2.92
643.005	7.08
643.039	6.08
643.073	-9.92
643.107	4.08
643.141	-4.92
643.175	9.08
643.209	-0.92
643.243	9.08
643.276	-1.92
643.31	3.08
643.344	4.08
643.378	1.08
643.412	5.08
643.446	-2.92
643.48	-0.92
643.513	0.08
643.547	7.08
643.581	14.08
643.615	27.08
643.649	5.08
643.683	-7.92
643.716	-11.92
643.75	7.08
643.784	-21.92
643.818	21.08
643.852	2.08
643.886	18.08
643.919	5.08
643.953	-1.92
643.987	0.08
644.021	3.08
644.055	1.08
644.088	-10.92
644.122	-14.92
644.156	-11.92
644.19	12.08
644.224	11.08
644.257	1.08
644.291	10.08
644.325	-9.92
644.359	-5.92
644.392	14.08
644.426	10.08
644.46	14.08
644.494	0.08
644.527	-3.92
644.561	11.08
644.595	-11.92
644.629	0.08
644.662	-4.92
644.696	12.08
644.73	-0.92
644.764	1.08
644.797	7.08
644.831	-3.92
644.865	9.08
644.899	5.08
644.932	31.08
644.966	16.08
645	15.08
645.033	5.08
645.067	-7.92
645.101	13.08
645.135	-5.92
645.168	-3.92
645.202	-4.92
645.236	1.08
645.269	-1.92
645.303	5.08
645.337	-14.92
645.37	-15.92
645.404	15.08
645.438	10.08
645.471	6.08
645.505	16.08
645.539	-15.92
645.572	-26.92
645.606	-7.92
645.64	6.08
645.673	9.08
645.707	20.08
645.741	-5.92
645.774	-30.92
645.808	-16.92
645.842	-16.92
645.875	-2.92
645.909	-6.92
645.943	-2.92
645.976	0.08
646.01	0.08
646.043	3.08
646.077	4.08
646.111	14.08
646.144	2.08
646.178	-2.92
646.212	-29.92
646.245	8.08
646.279	16.08
646.312	-3.92
646.346	6.08
646.38	-2.92
646.413	19.08
646.447	3.08
646.48	-7.92
646.514	9.08
646.547	-5.92
646.581	-3.92
646.615	-2.92
646.648	-9.92
646.682	1.08
646.715	-8.92
646.749	7.08
646.782	6.08
646.816	5.08
646.85	-13.92
646.883	-1.92
646.917	15.08
646.95	5.08
646.984	13.08
647.017	6.08
647.051	-3.92
647.084	1.08
647.118	-3.92
647.151	-13.92
647.185	2.08
647.218	-2.92
647.252	5.08
647.285	-4.92
647.319	-10.92
647.353	2.08
647.386	4.08
647.42	2.08
647.453	8.08
647.487	-0.92
647.52	14.08
647.553	4.08
647.587	-19.92
647.62	-0.92
647.654	-4.92
647.687	4.08
647.721	11.08
647.754	4.08
647.788	0.08
647.821	8.08
647.855	-0.92
647.888	9.08
647.922	21.08
647.955	29.08
647.989	17.08
648.022	5.08
648.055	8.08
648.089	6.08
648.122	18.08
648.156	5.08
648.189	6.08
648.223	15.08
648.256	21.08
648.29	0.08
648.323	-0.92
648.356	5.08
648.39	7.08
648.423	16.08
648.457	1.08
648.49	4.08
648.523	10.08
648.557	13.08
648.59	-1.92
648.624	-1.92
648.657	12.08
648.69	19.08
648.724	19.08
648.757	15.08
648.791	10.08
648.824	7.08
648.857	6.08
648.891	3.08
648.924	10.08
648.957	30.08
648.991	-19.92
649.024	5.08
649.057	0.08
649.091	5.08
649.124	17.08
649.158	6.08
649.191	25.08
649.224	-13.92
649.258	1.08
649.291	9.08
649.324	11.08
649.358	18.08
649.391	18.08
649.424	-0.92
649.458	-6.92
649.491	1.08
649.524	-0.92
649.557	-9.92
649.591	-3.92
649.624	7.08
649.657	-4.92
649.691	-7.92
649.724	-8.92
649.757	-13.92
649.791	-16.92
649.824	9.08
649.857	9.08
649.89	3.08
649.924	-5.92
649.957	2.08
649.99	-11.92
650.023	-3.92
650.057	-9.92
650.09	-8.92
650.123	-1.92
650.157	10.08
650.19	17.08
650.223	9.08
650.256	-0.92
650.29	-9.92
650.323	21.08
650.356	28.08
650.389	6.08
650.423	-4.92
650.456	-1.92
650.489	8.08
650.522	12.08
650.555	12.08
650.589	8.08
650.622	4.08
650.655	14.08
650.688	-9.92
650.721	1.08
650.755	-5.92
650.788	-4.92
650.821	7.08
650.854	-1.92
650.887	8.08
650.921	6.08
650.954	3.08
650.987	12.08
651.02	3.08
651.053	2.08
651.087	-9.92
651.12	22.08
651.153	0.08
651.186	5.08
651.219	1.08
651.252	11.08
651.286	16.08
651.319	2.08
651.352	6.08
651.385	0.08
651.418	9.08
651.451	-6.92
651.484	12.08
651.518	-7.92
651.551	18.08
651.584	-0.92
651.617	16.08
651.65	-1.92
651.683	16.08
651.716	-5.92
651.749	-11.92
651.783	4.08
651.816	9.08
651.849	10.08
651.882	11.08
651.915	-6.92
651.948	9.08
651.981	9.08
652.014	-7.92
652.047	-9.92
652.08	12.08
652.114	6.08
652.147	6.08
652.18	11.08
652.213	27.08
652.246	-3.92
652.279	-0.92
652.312	18.08
652.345	-9.92
652.378	12.08
652.411	28.08
652.444	13.08
652.477	-1.92
652.51	-2.92
652.543	-7.92
652.576	21.08
652.609	0.08
652.642	1.08
652.675	6.08
652.709	7.08
652.742	9.08
652.775	16.08
652.808	2.08
652.841	-6.92
652.874	3.08
652.907	13.08
652.94	12.08
652.973	-3.92
653.006	-7.92
653.039	-5.92
653.072	11.08
653.105	-0.92
653.138	-20.92
653.171	-19.92
653.204	2.08
653.237	10.08
653.27	-9.92
653.303	8.08
653.336	6.08
653.368	-22.92
653.401	-10.92
653.434	-9.92
653.467	9.08
653.5	-16.92
653.533	-21.92
653.566	-10.92
653.599	-12.92
653.632	3.08
653.665	-1.92
653.698	-6.92
653.731	-4.92
653.764	22.08
653.797	-7.92
653.83	14.08
653.863	-1.92
653.896	-4.92
653.929	-0.92
653.961	12.08
653.994	-0.92
654.027	4.08
654.06	-0.92
654.093	-4.92
654.126	5.08
654.159	-24.92
654.192	9.08
654.225	-8.92
654.258	-0.92
654.29	-4.92
654.323	-5.92
654.356	-9.92
654.389	5.08
654.422	0.08
654.455	0.08
654.488	0.08
654.521	-14.92
654.553	-8.92
654.586	15.08
654.619	0.08
654.652	-8.92
654.685	1.08
654.718	17.08
654.751	19.08
654.783	17.08
654.816	31.08
654.849	-2.92
654.882	-14.92
654.915	-21.92
654.948	6.08
654.98	-13.92
655.013	5.08
655.046	-2.92
655.079	3.08
655.112	17.08
655.144	-25.92
655.177	9.08
655.21	29.08
655.243	26.08
655.276	13.08
655.308	-13.92
655.341	-15.92
655.374	0.08
655.407	-8.92
655.44	5.08
655.472	11.08
655.505	15.08
655.538	11.08
655.571	18.08
655.603	-2.92
655.636	10.08
655.669	16.08
655.702	-1.92
655.734	-13.92
655.767	5.08
655.8	-4.92
655.833	7.08
655.865	27.08
655.898	22.08
655.931	19.08
655.964	32.08
655.996	7.08
656.029	23.08
656.062	32.08
656.095	52.08
656.127	79.08
656.16	217.08
656.193	634.08
656.225	953.08
656.258	556.08
656.291	195.08
656.324	184.08
656.356	371.08
656.389	743.08
656.422	696.08
656.454	223.08
656.487	69.08
656.52	40.08
656.552	10.08
656.585	6.08
656.618	17.08
656.65	28.08
656.683	2.08
656.716	14.08
656.748	-3.92
656.781	2.08
656.814	-2.92
656.846	-16.92
656.879	-0.92
656.912	13.08
656.944	-18.92
656.977	-2.92
657.01	-0.92
657.042	2.08
657.075	9.08
657.108	-4.92
657.14	8.08
657.173	10.08
657.205	17.08
657.238	9.08
657.271	5.08
657.303	-2.92
657.336	-8.92
657.369	9.08
657.401	-2.92
657.434	-4.92
657.466	22.08
657.499	8.08
657.532	19.08
657.564	18.08
657.597	-5.92
657.629	0.08
657.662	-1.92
657.694	-5.92
657.727	-13.92
657.76	9.08
657.792	-6.92
657.825	15.08
657.857	2.08
657.89	-11.92
657.922	8.08
657.955	-15.92
657.987	10.08
658.02	14.08
658.053	24.08
658.085	6.08
658.118	13.08
658.15	17.08
658.183	4.08
658.215	11.08
658.248	-0.92
658.28	-5.92
658.313	17.08
658.345	6.08
658.378	-2.92
658.41	-10.92
658.443	18.08
658.475	10.08
658.508	-18.92
658.54	-9.92
658.573	-0.92
658.605	2.08
658.638	-1.92
658.67	-1.92
658.703	-8.92
658.735	-20.92
658.768	6.08
658.8	-18.92
658.833	16.08
658.865	5.08
658.898	1.08
658.93	4.08
658.963	-9.92
658.995	-22.92
659.028	-4.92
659.06	-16.92
659.092	2.08
659.125	-4.92
659.157	-1.92
659.19	7.08
659.222	16.08
659.255	-5.92
659.287	-7.92
659.32	-14.92
659.352	-0.92
659.384	4.08
659.417	-9.92
659.449	11.08
659.482	10.08
659.514	-3.92
659.546	-0.92
659.579	-6.92
659.611	8.08
659.644	11.08
659.676	-1.92
659.708	-9.92
659.741	-7.92
659.773	18.08
659.806	11.08
659.838	-12.92
659.87	-11.92
659.903	-22.92
659.935	8.08
659.967	-4.92
660	4.08
660.032	-19.92
660.065	25.08
660.097	13.08
660.129	0.08
660.162	-0.92
660.194	1.08
660.226	11.08
660.259	1.08
660.291	-4.92
660.323	-1.92
660.356	8.08
660.388	0.08
660.42	10.08
660.453	8.08
660.485	14.08
660.517	18.08
660.55	11.08
660.582	-5.92
660.614	16.08
660.647	-8.92
660.679	-24.92
660.711	10.08
660.743	-13.92
660.776	-10.92
660.808	-4.92
660.84	-9.92
660.873	1.08
660.905	4.08
660.937	6.08
660.969	-19.92
661.002	0.08
661.034	5.08
661.066	-6.92
661.099	0.08
661.131	9.08
661.163	5.08
661.195	5.08
661.228	6.08
661.26	-1.92
661.292	0.08
661.324	-3.92
661.357	9.08
661.389	3.08
661.421	12.08
661.453	7.08
661.485	0.08
661.518	-10.92
661.55	-16.92
661.582	-19.92
661.614	-12.92
661.647	-7.92
661.679	-4.92
661.711	-13.92
661.743	-17.92
661.775	5.08
661.808	17.08
661.84	-17.92
661.872	-3.92
661.904	-0.92
661.936	9.08
661.969	-5.92
662.001	4.08
662.033	1.08
662.065	-17.92
662.097	5.08
662.129	7.08
662.162	-2.92
662.194	-1.92
662.226	1.08
662.258	5.08
662.29	1.08
662.322	-0.92
662.355	-2.92
662.387	19.08
662.419	17.08
662.451	15.08
662.483	-4.92
662.515	11.08
662.547	3.08
662.58	4.08
662.612	-0.92
662.644	5.08
662.676	5.08
662.708	27.08
662.74	4.08
662.772	-0.92
662.804	11.08
662.836	10.08
662.869	15.08
662.901	6.08
662.933	7.08
662.965	29.08
662.997	11.08
663.029	-2.92
663.061	-20.92
663.093	13.08
663.125	10.08
663.157	9.08
663.189	16.08
663.221	12.08
663.254	-14.92
663.286	8.08
663.318	-2.92
663.35	8.08
663.382	3.08
663.414	22.08
663.446	15.08
663.478	-24.92
663.51	17.08
663.542	0.08
663.574	-5.92
663.606	8.08
663.638	-9.92
663.67	4.08
663.702	-8.92
663.734	-3.92
663.766	-1.92
663.798	6.08
663.83	2.08
663.862	15.08
663.894	0.08
663.926	3.08
663.958	-2.92
663.99	1.08
664.022	1.08
664.054	-1.92
664.086	-10.92
664.118	2.08
664.15	-4.92
664.182	2.08
664.214	-0.92
664.246	13.08
664.278	-3.92
664.31	35.08
664.342	13.08
664.374	7.08
664.406	4.08
664.438	-5.92
664.47	30.08
664.502	7.08
664.534	-8.92
664.566	-13.92
664.598	6.08
664.63	1.08
664.662	15.08
664.693	-13.92
664.725	-7.92
664.757	-3.92
664.789	-7.92
664.821	-4.92
664.853	6.08
664.885	-2.92
664.917	-7.92
664.949	14.08
664.981	17.08
665.013	-5.92
665.045	-21.92
665.076	-4.92
665.108	-6.92
665.14	-4.92
665.172	9.08
665.204	-0.92
665.236	0.08
665.268	13.08
665.3	-2.92
665.331	-4.92
665.363	-7.92
665.395	-5.92
665.427	-10.92
665.459	-8.92
665.491	6.08
665.523	-0.92
665.555	-6.92
665.586	0.08
665.618	-8.92
665.65	-15.92
665.682	17.08
665.714	-8.92
665.746	-3.92
665.777	3.08
665.809	2.08
665.841	-4.92
665.873	0.08
665.905	8.08
665.937	-2.92
665.968	6.08
666	5.08
666.032	21.08
666.064	6.08
666.096	2.08
666.127	14.08
666.159	0.08
666.191	-0.92
666.223	-0.92
666.255	15.08
666.286	1.08
666.318	-7.92
666.35	17.08
666.382	5.08
666.413	-5.92
666.445	-17.92
666.477	3.08
666.509	-2.92
666.54	3.08
666.572	-0.92
666.604	1.08
666.636	-0.92
666.667	6.08
666.699	12.08
666.731	14.08
666.763	-6.92
666.794	-5.92
666.826	2.08
666.858	1.08
666.89	1.08
666.921	-4.92
666.953	8.08
666.985	1.08
667.017	16.08
667.048	10.08
667.08	-4.92
667.112	9.08
667.143	-13.92
667.175	-0.92
667.207	11.08
667.238	2.08
667.27	15.08
667.302	19.08
667.334	0.08
667.365	17.08
667.397	1.08
667.429	-2.92
667.46	6.08
667.492	9.08
667.524	4.08
667.555	-6.92
667.587	0.08
667.619	1.08
667.65	-10.92
667.682	6.08
667.714	6.08
667.745	24.08
667.777	12.08
667.808	14.08
667.84	16.08
667.872	4.08
667.903	12.08
667.935	-5.92
667.967	4.08
667.998	13.08
668.03	12.08
668.061	17.08
668.093	12.08
668.125	-10.92
668.156	-5.92
668.188	8.08
668.22	-7.92
668.251	3.08
668.283	9.08
668.314	24.08
668.346	-12.92
668.377	-8.92
668.409	-4.92
668.441	-1.92
668.472	-4.92
668.504	12.08
668.535	7.08
668.567	5.08
668.599	12.08
668.63	-6.92
668.662	0.08
668.693	21.08
668.725	1.08
668.756	7.08
668.788	-0.92
668.819	8.08
668.851	14.08
668.882	8.08
668.914	8.08
668.946	7.08
668.977	-0.92
669.009	-7.92
669.04	-8.92
669.072	9.08
669.103	7.08
669.135	5.08
669.166	0.08
669.198	-1.92
669.229	26.08
669.261	-0.92
669.292	-0.92
669.324	1.08
669.355	19.08
669.387	6.08
669.418	14.08
669.45	-7.92
669.481	2.08
669.513	4.08
669.544	0.08
669.576	5.08
669.607	18.08
669.639	17.08
669.67	2.08
669.701	-0.92
669.733	-7.92
669.764	0.08
669.796	1.08
669.827	-10.92
669.859	-5.92
669.89	10.08
669.922	7.08
669.953	7.08
669.985	-7.92
670.016	5.08
670.047	2.08
670.079	14.08
670.11	5.08
670.142	-10.92
670.173	-4.92
670.204	5.08
670.236	12.08
670.267	-4.92
670.299	18.08
670.33	-5.92
670.362	2.08
670.393	-15.92
670.424	5.08
670.456	-0.92
670.487	-8.92
670.518	-0.92
670.55	22.08
670.581	0.08
670.613	7.08
670.644	7.08
670.675	5.08
670.707	-5.92
670.738	0.08
670.769	-2.92
670.801	10.08
670.832	17.08
670.864	-1.92
670.895	-3.92
670.926	-7.92
670.958	7.08
670.989	-4.92
671.02	-4.92
671.052	8.08
671.083	-2.92
671.114	-14.92
671.146	7.08
671.177	-2.92
671.208	-3.92
671.24	-16.92
671.271	-4.92
671.302	13.08
671.333	6.08
671.365	4.08
671.396	2.08
671.427	-0.92
671.459	3.08
671.49	-1.92
671.521	4.08
671.553	-2.92
671.584	-3.92
671.615	-5.92
671.646	18.08
671.678	11.08
671.709	-17.92
671.74	-13.92
671.771	3.08
671.803	-2.92
671.834	-6.92
671.865	0.08
671.896	6.08
671.928	3.08
671.959	-6.92
671.99	-6.92
672.021	-1.92
672.053	-4.92
672.084	13.08
672.115	9.08
672.146	1.08
672.178	-22.92
672.209	12.08
672.24	3.08
672.271	30.08
672.303	6.08
672.334	-3.92
672.365	0.08
672.396	1.08
672.427	4.08
672.459	10.08
672.49	13.08
672.521	10.08
672.552	3.08
672.583	18.08
672.615	0.08
672.646	15.08
672.677	-11.92
672.708	15.08
672.739	2.08
672.77	17.08
672.802	11.08
672.833	-8.92
672.864	-3.92
672.895	-9.92
672.926	-7.92
672.957	-7.92
672.989	1.08
673.02	-1.92
673.051	-12.92
673.082	22.08
673.113	2.08
673.144	2.08
673.175	-6.92
673.206	3.08
673.238	-6.92
673.269	2.08
673.3	-10.92
673.331	7.08
673.362	14.08
673.393	15.08
673.424	17.08
673.455	7.08
673.487	23.08
673.518	10.08
673.549	9.08
673.58	5.08
673.611	-3.92
673.642	1.08
673.673	-5.92
673.704	11.08
673.735	6.08
673.766	-16.92
673.797	12.08
673.828	-2.92
673.86	-1.92
673.891	-6.92
673.922	-9.92
673.953	-8.92
673.984	-13.92
674.015	5.08
674.046	0.08
674.077	-6.92
674.108	-3.92
674.139	-9.92
674.17	-0.92
674.201	11.08
674.232	8.08
674.263	3.08
674.294	-20.92
674.325	-18.92
674.356	10.08
674.387	11.08
674.418	4.08
674.449	3.08
674.48	-10.92
674.511	0.08
674.542	-1.92
674.573	0.08
674.604	21.08
674.635	-2.92
674.666	10.08
674.697	12.08
674.728	4.08
674.759	15.08
674.79	-9.92
674.821	-10.92
674.852	-1.92
674.883	-10.92
674.914	8.08
674.945	-0.92
674.976	-13.92
675.007	-3.92
675.038	-3.92
675.069	-10.92
675.1	-9.92
675.131	10.08
675.162	7.08
675.193	-20.92
675.224	-12.92
675.254	21.08
675.285	10.08
675.316	9.08
675.347	-7.92
675.378	-11.92
675.409	-1.92
675.44	0.08
675.471	7.08
675.502	-2.92
675.533	-7.92
675.564	13.08
675.595	11.08
675.625	22.08
675.656	21.08
675.687	4.08
675.718	-21.92
675.749	4.08
675.78	6.08
675.811	-3.92
675.842	6.08
675.873	-0.92
675.903	6.08
675.934	-4.92
675.965	-12.92
675.996	-2.92
676.027	5.08
676.058	2.08
676.089	-5.92
676.119	-3.92
676.15	-3.92
676.181	-13.92
676.212	-9.92
676.243	23.08
676.274	4.08
676.304	6.08
676.335	-15.92
676.366	-6.92
676.397	-3.92
676.428	2.08
676.459	1.08
676.489	10.08
676.52	5.08
676.551	-4.92
676.582	4.08
676.613	-8.92
676.643	5.08
676.674	13.08
676.705	5.08
676.736	-1.92
676.767	3.08
676.797	22.08
676.828	20.08
676.859	0.08
676.89	-15.92
676.92	-4.92
676.951	13.08
676.982	-3.92
677.013	-0.92
677.044	18.08
677.074	-7.92
677.105	-13.92
677.136	10.08
677.167	-5.92
677.197	14.08
677.228	17.08
677.259	1.08
677.289	8.08
677.32	5.08
677.351	-5.92
677.382	1.08
677.412	-7.92
677.443	11.08
677.474	8.08
677.505	-10.92
677.535	2.08
677.566	-1.92
677.597	-7.92
677.627	-7.92
677.658	8.08
677.689	-2.92
677.72	7.08
677.75	-2.92
677.781	0.08
677.812	17.08
677.842	13.08
677.873	-0.92
677.904	14.08
677.934	-0.92
677.965	-0.92
677.996	-18.92
678.026	-26.92
678.057	7.08
678.088	-0.92
678.118	1.08
678.149	4.08
678.18	-5.92
678.21	-15.92
678.241	-0.92
678.272	6.08
678.302	6.08
678.333	-7.92
678.363	12.08
678.394	1.08
678.425	-6.92
678.455	4.08
678.486	13.08
678.517	-7.92
678.547	-10.92
678.578	6.08
678.608	-0.92
678.639	10.08
678.67	-7.92
678.7	-8.92
678.731	5.08
678.761	-8.92
678.792	7.08
678.823	5.08
678.853	-1.92
678.884	-4.92
678.914	11.08
678.945	0.08
678.975	-12.92
679.006	4.08
679.037	1.08
679.067	20.08
679.098	4.08
679.128	-5.92
679.159	-3.92
679.189	-1.92
679.22	-15.92
679.25	-3.92
679.281	-8.92
679.312	-10.92
679.342	2.08
679.373	25.08
679.403	-4.92
679.434	4.08
679.464	-1.92
679.495	-7.92
679.525	7.08
679.556	-1.92
679.586	11.08
679.617	15.08
679.647	-3.92
679.678	-4.92
679.708	-4.92
679.739	2.08
679.769	6.08
679.8	14.08
679.83	7.08
679.861	4.08
679.891	-3.92
679.922	-22.92
679.952	-10.92
679.983	-6.92
680.013	-12.92
680.044	-4.92
680.074	12.08
680.105	13.08
680.135	8.08
680.165	9.08
680.196	4.08
680.226	6.08
680.257	10.08
680.287	-8.92
680.318	9.08
680.348	0.08
680.379	6.08
680.409	-1.92
680.439	-3.92
680.47	-0.92
680.5	12.08
680.531	0.08
680.561	23.08
680.592	17.08
680.622	28.08
680.652	6.08
680.683	6.08
680.713	-0.92
680.744	-11.92
680.774	-22.92
680.804	17.08
680.835	-5.92
680.865	-9.92
680.896	9.08
680.926	9.08
680.956	4.08
680.987	-12.92
681.017	-6.92
681.047	-2.92
681.078	-13.92
681.108	4.08
681.139	6.08
681.169	7.08
681.199	-1.92
681.23	9.08
681.26	-3.92
681.29	-11.92
681.321	-15.92
681.351	-1.92
681.381	-4.92
681.412	8.08
681.442	6.08
681.472	13.08
681.503	8.08
681.533	21.08
681.563	-0.92
681.594	19.08
681.624	25.08
681.654	-11.92
681.685	6.08
681.715	-5.92
681.745	-2.92
681.775	2.08
681.806	-2.92
681.836	-1.92
681.866	-1.92
681.897	0.08
681.927	6.08
681.957	-3.92
681.987	4.08
682.018	4.08
682.048	2.08
682.078	15.08
682.109	13.08
682.139	5.08
682.169	-10.92
682.199	-3.92
682.23	0.08
682.26	-1.92
682.29	-14.92
682.32	2.08
682.351	-4.92
682.381	11.08
682.411	-4.92
682.441	-1.92
682.472	-5.92
682.502	-4.92
682.532	-17.92
682.562	-1.92
682.592	-6.92
682.623	-1.92
682.653	2.08
682.683	-3.92
682.713	-0.92
682.743	4.08
682.774	-9.92
682.804	0.08
682.834	23.08
682.864	-6.92
682.894	9.08
682.925	-12.92
682.955	0.08
682.985	-2.92
683.015	-3.92
683.045	24.08
683.076	1.08
683.106	11.08
683.136	8.08
683.166	7.08
683.196	-13.92
683.226	8.08
683.257	-8.92
683.287	1.08
683.317	-2.92
683.347	10.08
683.377	2.08
683.407	5.08
683.437	9.08
683.468	20.08
683.498	-7.92
683.528	-10.92
683.558	7.08
683.588	-5.92
683.618	2.08
683.648	-8.92
683.678	8.08
683.708	11.08
683.739	-0.92
683.769	0.08
683.799	7.08
683.829	4.08
683.859	8.08
683.889	7.08
683.919	8.08
683.949	10.08
683.979	-1.92
684.009	-3.92
684.039	10.08
684.07	-9.92
684.1	-0.92
684.13	12.08
684.16	8.08
684.19	1.08
684.22	5.08
684.25	-5.92
684.28	-5.92
684.31	7.08
684.34	8.08
684.37	8.08
684.4	10.08
684.43	11.08
684.46	11.08
684.49	11.08
684.52	9.08
684.55	11.08
684.58	5.08
684.61	4.08
684.64	2.08
684.67	10.08
684.7	0.08
684.73	-0.92
684.76	-8.92
684.79	14.08
684.82	-1.92
684.85	3.08
684.88	22.08
684.91	8.08
684.94	9.08
684.97	-3.92
685	-0.92
685.03	1.08
685.06	0.08
685.09	2.08
685.12	22.08
685.15	-5.92
685.18	9.08
685.21	8.08
685.24	9.08
685.27	16.08
685.3	2.08
685.33	0.08
685.36	-4.92
685.39	-14.92
685.42	-19.92
685.45	5.08
685.48	-12.92
685.51	-9.92
685.54	1.08
685.569	12.08
685.599	4.08
685.629	9.08
685.659	-0.92
685.689	-4.92
685.719	-0.92
685.749	-1.92
685.779	5.08
685.809	30.08
685.839	12.08
685.869	9.08
685.898	4.08
685.928	-7.92
685.958	0.08
685.988	14.08
686.018	-0.92
686.048	-1.92
686.078	10.08
686.108	22.08
686.137	-9.92
686.167	6.08
686.197	-21.92
686.227	-2.92
686.257	35.08
686.287	-1.92
686.317	-0.92
686.346	-1.92
686.376	-6.92
686.406	-5.92
686.436	-0.92
686.466	-6.92
686.496	17.08
686.525	10.08
686.555	-1.92
686.585	5.08
686.615	21.08
686.645	10.08
686.675	9.08
686.704	5.08
686.734	0.08
686.764	-1.92
686.794	8.08
686.824	-5.92
686.853	2.08
686.883	14.08
686.913	29.08
686.943	20.08
686.973	-11.92
687.002	7.08
687.032	2.08
687.062	7.08
687.092	18.08
687.121	3.08
687.151	1.08
687.181	5.08
687.211	15.08
687.24	-2.92
687.27	6.08
687.3	0.08
687.33	0.08
687.359	-26.92
687.389	-4.92
687.419	11.08
687.449	-4.92
687.478	17.08
687.508	11.08
687.538	16.08
687.568	9.08
687.597	0.08
687.627	-1.92
687.657	2.08
687.686	16.08
687.716	23.08
687.746	1.08
687.776	-6.92
687.805	12.08
687.835	14.08
687.865	18.08
687.894	6.08
687.924	1.08
687.954	0.08
687.983	14.08
688.013	13.08
688.043	5.08
688.072	-8.92
688.102	19.08
688.132	21.08
688.161	0.08
688.191	-21.92
688.221	18.08
688.25	3.08
688.28	5.08
688.31	-0.92
688.339	4.08
688.369	-4.92
688.399	-18.92
688.428	-11.92
688.458	6.08
688.488	1.08
688.517	0.08
688.547	1.08
688.576	20.08
688.606	17.08
688.636	-3.92
688.665	2.08
688.695	10.08
688.725	19.08
688.754	6.08
688.784	-1.92
688.813	14.08
688.843	10.08
688.873	-1.92
688.902	-3.92
688.932	-1.92
688.961	8.08
688.991	0.08
689.02	-0.92
689.05	5.08
689.08	0.08
689.109	7.08
689.139	1.08
689.168	5.08
689.198	10.08
689.227	-1.92
689.257	12.08
689.287	8.08
689.316	-4.92
689.346	3.08
689.375	-3.92
689.405	12.08
689.434	1.08
689.464	-1.92
689.493	1.08
689.523	-14.92
689.552	6.08
689.582	0.08
689.611	-5.92
689.641	8.08
689.67	-7.92
689.7	3.08
689.73	7.08
689.759	9.08
689.789	7.08
689.818	-0.92
689.848	4.08
689.877	5.08
689.906	2.08
689.936	-4.92
689.965	-4.92
689.995	7.08
690.024	6.08
690.054	-9.92
690.083	-10.92
690.113	16.08
690.142	5.08
690.172	6.08
690.201	-9.92
690.231	-4.92
690.26	-0.92
690.29	7.08
690.319	4.08
690.348	-3.92
690.378	22.08
690.407	7.08
690.437	-6.92
690.466	5.08
690.496	12.08
690.525	13.08
690.555	-2.92
690.584	3.08
690.613	9.08
690.643	9.08
690.672	10.08
690.702	22.08
690.731	13.08
690.76	-2.92
690.79	0.08
690.819	-11.92
690.849	16.08
690.878	13.08
690.907	6.08
690.937	5.08
690.966	18.08
690.996	15.08
691.025	-14.92
691.054	-7.92
691.084	-0.92
691.113	11.08
691.142	12.08
691.172	-1.92
691.201	25.08
691.23	20.08
691.26	24.08
691.289	9.08
691.319	0.08
691.348	5.08
691.377	2.08
691.407	-1.92
691.436	2.08
691.465	8.08
691.495	-2.92
691.524	-7.92
691.553	-4.92
691.583	5.08
691.612	13.08
691.641	13.08
691.67	-1.92
691.7	1.08
691.729	3.08
691.758	-8.92
691.788	7.08
691.817	-3.92
691.846	-7.92
691.876	2.08
691.905	-0.92
691.934	-12.92
691.963	8.08
691.993	21.08
692.022	-8.92
692.051	-5.92
692.081	16.08
692.11	13.08
692.139	6.08
692.168	3.08
692.198	10.08
692.227	6.08
692.256	-0.92
692.285	-13.92
692.315	-0.92
692.344	6.08
692.373	0.08
692.402	-9.92
692.432	5.08
692.461	17.08
692.49	10.08
692.519	8.08
692.548	20.08
692.578	4.08
692.607	-6.92
692.636	6.08
692.665	8.08
692.694	3.08
692.724	-3.92
692.753	17.08
692.782	20.08
692.811	-2.92
692.84	8.08
692.87	12.08
692.899	7.08
692.928	8.08
692.957	3.08
692.986	16.08
693.016	12.08
693.045	-0.92
693.074	15.08
693.103	2.08
693.132	-2.92
693.161	7.08
693.191	4.08
693.22	-8.92
693.249	2.08
693.278	-3.92
693.307	23.08
693.336	-8.92
693.365	-13.92
693.395	-16.92
693.424	5.08
693.453	12.08
693.482	4.08
693.511	11.08
693.54	16.08
693.569	8.08
693.598	-1.92
693.628	27.08
693.657	22.08
693.686	21.08
693.715	8.08
693.744	11.08
693.773	9.08
693.802	15.08
693.831	8.08
693.86	17.08
693.889	5.08
693.919	10.08
693.948	17.08
693.977	12.08
694.006	-2.92
694.035	-13.92
694.064	4.08
694.093	17.08
694.122	3.08
694.151	2.08
694.18	9.08
694.209	26.08
694.238	2.08
694.267	17.08
694.296	13.08
694.325	3.08
694.354	17.08
694.383	0.08
694.412	2.08
694.441	-0.92
694.471	-16.92
694.5	-1.92
694.529	7.08
694.558	16.08
694.587	21.08
694.616	18.08
694.645	15.08
694.674	10.08
694.703	-0.92
694.732	8.08
694.761	7.08
694.79	28.08
694.819	-4.92
694.848	-20.92
694.877	23.08
694.906	23.08
694.935	1.08
694.963	15.08
694.992	7.08
695.021	12.08
695.05	6.08
695.079	4.08
695.108	3.08
695.137	23.08
695.166	-2.92
695.195	-8.92
695.224	0.08
695.253	13.08
695.282	9.08
695.311	10.08
695.34	4.08
695.369	9.08
695.398	16.08
695.427	7.08
695.456	-2.92
695.485	9.08
695.513	8.08
695.542	9.08
695.571	1.08
695.6	18.08
695.629	14.08
695.658	19.08
695.687	4.08
695.716	13.08
695.745	33.08
695.774	-3.92
695.802	-2.92
695.831	8.08
695.86	5.08
695.889	11.08
695.918	10.08
695.947	4.08
695.976	5.08
696.005	5.08
696.033	1.08
696.062	24.08
696.091	5.08
696.12	8.08
696.149	15.08
696.178	-6.92
696.207	6.08
696.235	-18.92
696.264	12.08
696.293	12.08
696.322	3.08
696.351	13.08
696.38	1.08
696.408	14.08
696.437	3.08
696.466	28.08
696.495	6.08
696.524	13.08
696.553	9.08
696.581	7.08
696.61	6.08
696.639	3.08
696.668	19.08
696.697	8.08
696.725	2.08
696.754	18.08
696.783	0.08
696.812	-4.92
696.84	-6.92
696.869	5.08
696.898	-6.92
696.927	2.08
696.956	19.08
696.984	7.08
697.013	-4.92
697.042	8.08
697.071	4.08
697.099	23.08
697.128	12.08
697.157	22.08
697.186	1.08
697.214	-6.92
697.243	-5.92
697.272	3.08
697.301	21.08
697.329	8.08
697.358	10.08
697.387	21.08
697.415	8.08
697.444	5.08
697.473	-3.92
697.502	-9.92
697.53	5.08
697.559	8.08
697.588	9.08
697.616	-8.92
697.645	6.08
697.674	8.08
697.703	-2.92
697.731	2.08
697.76	-7.92
697.789	-10.92
697.817	6.08
697.846	25.08
697.875	7.08
697.903	17.08
697.932	5.08
697.961	7.08
697.989	-3.92
698.018	7.08
698.047	-8.92
698.075	2.08
698.104	-0.92
698.133	18.08
698.161	0.08
698.19	-3.92
698.218	11.08
698.247	7.08
698.276	-10.92
698.304	9.08
698.333	2.08
698.362	-3.92
698.39	5.08
698.419	6.08
698.447	5.08
698.476	1.08
698.505	9.08
698.533	4.08
698.562	15.08
698.591	2.08
698.619	3.08
698.648	12.08
698.676	7.08
698.705	4.08
698.733	-3.92
698.762	4.08
698.791	2.08
698.819	1.08
698.848	-4.92
698.876	14.08
698.905	6.08
698.933	13.08
698.962	15.08
698.991	10.08
699.019	20.08
699.048	20.08
699.076	7.08
699.105	-10.92
699.133	18.08
699.162	24.08
699.19	16.08
699.219	16.08
699.248	2.08
699.276	1.08
699.305	1.08
699.333	-2.92
699.362	-2.92
699.39	8.08
699.419	9.08
699.447	-3.92
699.476	1.08
699.504	-8.92
699.533	4.08
699.561	-2.92
699.59	7.08
699.618	5.08
699.647	11.08
699.675	-3.92
699.704	15.08
699.732	13.08
699.761	12.08
699.789	8.08
699.818	10.08
699.846	0.08
699.874	-0.92
699.903	-6.92
699.931	2.08
699.96	8.08
699.988	16.08
700.017	10.08
700.045	3.08
700.074	11.08
700.102	-2.92
700.13	-7.92
700.159	12.08
700.187	18.08
700.216	6.08
700.244	5.08
700.273	2.08
700.301	5.08
700.329	20.08
700.358	17.08
700.386	9.08
700.415	1.08
700.443	11.08
700.472	1.08
700.5	10.08
700.528	0.08
700.557	17.08
700.585	7.08
700.614	-5.92
700.642	20.08
700.67	15.08
700.699	16.08
700.727	11.08
700.755	10.08
700.784	5.08
700.812	7.08
700.841	4.08
700.869	2.08
700.897	-3.92
700.926	-13.92
700.954	9.08
700.982	9.08
701.011	5.08
701.039	13.08
701.067	6.08
701.096	-4.92
701.124	1.08
701.152	4.08
701.181	-1.92
701.209	-2.92
701.237	1.08
701.266	-5.92
701.294	-2.92
701.322	11.08
701.351	9.08
701.379	-9.92
701.407	-0.92
701.435	18.08
701.464	0.08
701.492	29.08
701.52	6.08
701.549	4.08
701.577	-4.92
701.605	4.08
701.634	10.08
701.662	17.08
701.69	-21.92
701.718	1.08
701.747	7.08
701.775	-15.92
701.803	0.08
701.831	11.08
701.86	-4.92
701.888	7.08
701.916	3.08
701.944	1.08
701.973	4.08
702.001	-4.92
702.029	-4.92
702.057	-2.92
702.086	-0.92
702.114	-17.92
702.142	4.08
702.17	-0.92
702.199	15.08
702.227	12.08
702.255	-1.92
702.283	1.08
702.311	21.08
702.34	10.08
702.368	0.08
702.396	-0.92
702.424	9.08
702.452	5.08
702.481	-2.92
702.509	4.08
702.537	0.08
702.565	23.08
702.593	4.08
702.621	-3.92
702.65	8.08
702.678	7.08
702.706	9.08
702.734	6.08
702.762	10.08
702.79	13.08
702.819	2.08
702.847	10.08
702.875	10.08
702.903	14.08
702.931	0.08
702.959	4.08
702.988	13.08
703.016	-0.92
703.044	-7.92
703.072	-6.92
703.1	-8.92
703.128	-7.92
703.156	15.08
703.184	-11.92
703.212	5.08
703.241	7.08
703.269	13.08
703.297	5.08
703.325	2.08
703.353	-0.92
703.381	6.08
703.409	0.08
703.437	-9.92
703.465	6.08
703.493	-8.92
703.522	-11.92
703.55	9.08
703.578	12.08
703.606	-8.92
703.634	0.08
703.662	8.08
703.69	-2.92
703.718	-0.92
703.746	13.08
703.774	9.08
703.802	14.08
703.83	8.08
703.858	11.08
703.886	-13.92
703.914	-16.92
703.942	11.08
703.97	3.08
703.998	4.08
704.027	3.08
704.055	8.08
704.083	-2.92
704.111	-2.92
704.139	1.08
704.167	-3.92
704.195	-1.92
704.223	-0.92
704.251	-2.92
704.279	12.08
704.307	0.08
704.335	-7.92
704.363	4.08
704.391	-2.92
704.419	-24.92
704.447	5.08
704.475	5.08
704.503	5.08
704.531	23.08
704.558	9.08
704.586	-3.92
704.614	11.08
704.642	-4.92
704.67	-4.92
704.698	18.08
704.726	-9.92
704.754	0.08
704.782	2.08
704.81	4.08
704.838	15.08
704.866	9.08
704.894	-4.92
704.922	-14.92
704.95	-10.92
704.978	-0.92
705.006	13.08
705.034	20.08
705.061	9.08
705.089	8.08
705.117	-4.92
705.145	-10.92
705.173	1.08
705.201	-1.92
705.229	2.08
705.257	-1.92
705.285	10.08
705.313	1.08
705.34	9.08
705.368	-8.92
705.396	15.08
705.424	13.08
705.452	-7.92
705.48	-10.92
705.508	-15.92
705.536	7.08
705.563	-8.92
705.591	13.08
705.619	1.08
705.647	-7.92
705.675	7.08
705.703	4.08
705.731	15.08
705.758	12.08
705.786	3.08
705.814	16.08
705.842	8.08
705.87	3.08
705.898	9.08
705.925	10.08
705.953	11.08
705.981	3.08
706.009	13.08
706.037	6.08
706.065	-11.92
706.092	-1.92
706.12	4.08
706.148	-7.92
706.176	0.08
706.204	25.08
706.231	3.08
706.259	-8.92
706.287	5.08
706.315	19.08
706.342	11.08
706.37	24.08
706.398	-1.92
706.426	-0.92
706.454	-2.92
706.481	12.08
706.509	2.08
706.537	0.08
706.565	11.08
706.592	22.08
706.62	5.08
706.648	16.08
706.676	-7.92
706.703	0.08
706.731	-13.92
706.759	-5.92
706.787	6.08
706.814	-7.92
706.842	-7.92
706.87	-3.92
706.897	15.08
706.925	0.08
706.953	11.08
706.981	27.08
707.008	12.08
707.036	5.08
707.064	-10.92
707.091	-11.92
707.119	4.08
707.147	-5.92
707.174	2.08
707.202	4.08
707.23	-11.92
707.258	13.08
707.285	-3.92
707.313	-5.92
707.341	-6.92
707.368	2.08
707.396	13.08
707.424	17.08
707.451	1.08
707.479	5.08
707.507	-4.92
707.534	-6.92
707.562	18.08
707.59	3.08
707.617	-17.92
707.645	-2.92
707.672	1.08
707.7	8.08
707.728	12.08
707.755	6.08
707.783	-17.92
707.811	1.08
707.838	-19.92
707.866	1.08
707.893	5.08
707.921	9.08
707.949	-9.92
707.976	10.08
708.004	0.08
708.031	4.08
708.059	-1.92
708.087	-0.92
708.114	-9.92
708.142	-16.92
708.169	-7.92
708.197	-19.92
708.225	0.08
708.252	-16.92
708.28	-3.92
708.307	0.08
708.335	-3.92
708.362	2.08
708.39	-18.92
708.418	2.08
708.445	-8.92
708.473	-10.92
708.5	-2.92
708.528	-3.92
708.555	-10.92
708.583	9.08
708.61	2.08
708.638	-8.92
708.665	-1.92
708.693	17.08
708.72	0.08
708.748	3.08
708.776	5.08
708.803	10.08
708.831	4.08
708.858	13.08
708.886	2.08
708.913	-1.92
708.941	-7.92
708.968	2.08
708.996	-1.92
709.023	26.08
709.051	-3.92
709.078	-0.92
709.105	9.08
709.133	-10.92
709.16	-2.92
709.188	12.08
709.215	6.08
709.243	8.08
709.27	-7.92
709.298	0.08
709.325	-8.92
709.353	3.08
709.38	13.08
709.408	8.08
709.435	-10.92
709.462	8.08
709.49	5.08
709.517	-3.92
709.545	15.08
709.572	3.08
709.6	-9.92
709.627	6.08
709.655	1.08
709.682	2.08
709.709	-5.92
709.737	4.08
709.764	-7.92
709.792	12.08
709.819	0.08
709.846	4.08
709.874	3.08
709.901	11.08
709.929	21.08
709.956	16.08
709.983	-11.92
710.011	-6.92
710.038	13.08
710.066	11.08
710.093	-4.92
710.12	2.08
710.148	8.08
710.175	9.08
710.202	-2.92
710.23	1.08
710.257	5.08
710.284	12.08
710.312	0.08
710.339	2.08
710.366	4.08
710.394	5.08
710.421	-0.92
710.448	-16.92
710.476	-2.92
710.503	-0.92
710.53	18.08
710.558	16.08
710.585	9.08
710.612	4.08
710.64	-2.92
710.667	-7.92
710.694	-3.92
710.722	-13.92
710.749	-1.92
710.776	5.08
710.804	11.08
710.831	-1.92
710.858	-4.92
710.885	-2.92
710.913	9.08
710.94	6.08
710.967	8.08
710.995	2.08
711.022	4.08
711.049	8.08
711.076	-5.92
711.104	-0.92
711.131	-11.92
711.158	1.08
711.185	16.08
711.213	9.08
711.24	-2.92
711.267	2.08
711.294	11.08
711.322	23.08
711.349	0.08
711.376	0.08
711.403	-3.92
711.431	-2.92
711.458	-6.92
711.485	-5.92
711.512	1.08
711.54	4.08
711.567	13.08
711.594	-14.92
711.621	-7.92
711.648	8.08
711.676	1.08
711.703	10.08
711.73	-2.92
711.757	5.08
711.784	6.08
711.812	0.08
711.839	-1.92
711.866	3.08
711.893	-8.92
711.92	21.08
711.947	-0.92
711.975	19.08
712.002	-6.92
712.029	13.08
712.056	1.08
712.083	2.08
712.11	2.08
712.138	7.08
712.165	18.08
712.192	8.08
712.219	7.08
712.246	-14.92
712.273	-5.92
712.3	-8.92
712.328	1.08
712.355	-4.92
712.382	-8.92
712.409	14.08
712.436	5.08
712.463	11.08
712.49	14.08
712.517	11.08
712.544	-7.92
712.572	-0.92
712.599	-5.92
712.626	17.08
712.653	0.08
712.68	-24.92
712.707	14.08
712.734	13.08
712.761	2.08
712.788	-3.92
712.815	2.08
712.842	12.08
712.87	-7.92
712.897	0.08
712.924	6.08
712.951	-3.92
712.978	22.08
713.005	41.08
713.032	1.08
713.059	10.08
713.086	8.08
713.113	-13.92
713.14	2.08
713.167	1.08
713.194	21.08
713.221	-1.92
713.248	7.08
713.275	-7.92
713.302	-16.92
713.329	-3.92
713.356	26.08
713.383	-0.92
713.41	-2.92
713.437	-3.92
713.464	2.08
713.491	6.08
713.518	10.08
713.545	1.08
713.572	12.08
713.599	20.08
713.626	-3.92
713.653	-0.92
713.68	-0.92
713.707	-3.92
713.734	8.08
713.761	8.08
713.788	-3.92
713.815	1.08
713.842	23.08
713.869	14.08
713.896	3.08
713.923	8.08
713.95	-10.92
713.977	-14.92
714.004	-7.92
714.031	-1.92
714.058	0.08
714.085	6.08
714.112	-1.92
714.139	-1.92
714.165	4.08
714.192	-11.92
714.219	-3.92
714.246	2.08
714.273	1.08
714.3	0.08
714.327	10.08
714.354	1.08
714.381	-8.92
714.408	-6.92
714.435	5.08
714.461	-9.92
714.488	6.08
714.515	-2.92
714.542	-6.92
714.569	-8.92
714.596	-16.92
714.623	-7.92
714.65	-4.92
714.677	-3.92
714.703	5.08
714.73	18.08
714.757	-5.92
714.784	12.08
714.811	-7.92
714.838	6.08
714.865	-2.92
714.891	16.08
714.918	-2.92
714.945	4.08
714.972	6.08
714.999	18.08
715.026	0.08
715.052	17.08
715.079	-0.92
715.106	-5.92
715.133	13.08
715.16	-5.92
715.187	-0.92
715.213	-1.92
715.24	-26.92
715.267	8.08
715.294	1.08
715.321	2.08
715.347	-9.92
715.374	-10.92
715.401	0.08
715.428	-13.92
715.455	12.08
715.481	-21.92
715.508	7.08
715.535	9.08
715.562	15.08
715.588	5.08
715.615	5.08
715.642	16.08
715.669	4.08
715.695	-5.92
715.722	5.08
715.749	20.08
715.776	4.08
715.802	2.08
715.829	3.08
715.856	-14.92
715.883	10.08
715.909	1.08
715.936	2.08
715.963	4.08
715.99	1.08
716.016	7.08
716.043	15.08
716.07	-4.92
716.096	-5.92
716.123	10.08
716.15	7.08
716.177	15.08
716.203	6.08
716.23	-2.92
716.257	8.08
716.283	4.08
716.31	-4.92
716.337	16.08
716.363	1.08
716.39	6.08
716.417	1.08
716.443	5.08
716.47	5.08
716.497	12.08
716.523	18.08
716.55	18.08
716.577	15.08
716.603	-3.92
716.63	9.08
716.657	21.08
716.683	-16.92
716.71	10.08
716.737	2.08
716.763	21.08
716.79	10.08
716.817	10.08
716.843	1.08
716.87	-9.92
716.897	-5.92
716.923	8.08
716.95	4.08
716.976	6.08
717.003	9.08
717.03	11.08
717.056	8.08
717.083	8.08
717.109	0.08
717.136	15.08
717.163	2.08
717.189	-0.92
717.216	8.08
717.242	-12.92
717.269	9.08
717.296	13.08
717.322	1.08
717.349	6.08
717.375	5.08
717.402	0.08
717.428	9.08
717.455	21.08
717.481	6.08
717.508	-5.92
717.535	11.08
717.561	12.08
717.588	-6.92
717.614	8.08
717.641	2.08
717.667	10.08
717.694	-1.92
717.72	1.08
717.747	12.08
717.773	-9.92
717.8	14.08
717.826	4.08
717.853	-10.92
717.88	6.08
717.906	4.08
717.933	14.08
717.959	5.08
717.986	8.08
718.012	1.08
718.039	4.08
718.065	-9.92
718.092	-19.92
718.118	-15.92
718.144	-2.92
718.171	12.08
718.197	15.08
718.224	1.08
718.25	21.08
718.277	11.08
718.303	8.08
718.33	7.08
718.356	-10.92
718.383	-7.92
718.409	4.08
718.436	-13.92
718.462	-1.92
718.489	7.08
718.515	17.08
718.541	0.08
718.568	2.08
718.594	7.08
718.621	9.08
718.647	-2.92
718.674	16.08
718.7	6.08
718.726	5.08
718.753	-2.92
718.779	16.08
718.806	-1.92
718.832	-4.92
718.858	-6.92
718.885	11.08
718.911	4.08
718.938	9.08
718.964	1.08
718.99	8.08
719.017	1.08
719.043	13.08
719.07	6.08
719.096	-10.92
719.122	3.08
719.149	-8.92
719.175	9.08
719.201	9.08
719.228	0.08
719.254	8.08
719.281	-3.92
719.307	4.08
719.333	4.08
719.36	12.08
719.386	-0.92
719.412	2.08
719.439	-1.92
719.465	-0.92
719.491	-15.92
719.518	-3.92
719.544	-4.92
719.57	18.08
719.597	6.08
719.623	4.08
719.649	23.08
719.675	4.08
719.702	0.08
719.728	0.08
719.754	1.08
719.781	2.08
719.807	-10.92
719.833	10.08
719.86	12.08
719.886	8.08
719.912	12.08
719.938	1.08
719.965	5.08
719.991	0.08
720.017	10.08
720.044	-5.92
720.07	5.08
720.096	-4.92
720.122	1.08
720.149	2.08
720.175	15.08
720.201	4.08
720.227	5.08
720.254	13.08
720.28	5.08
720.306	8.08
720.332	-4.92
720.359	5.08
720.385	5.08
720.411	12.08
720.437	1.08
720.463	-13.92
720.49	11.08
720.516	2.08
720.542	-2.92
720.568	-6.92
720.595	14.08
720.621	1.08
720.647	4.08
720.673	8.08
720.699	0.08
720.725	14.08
720.752	0.08
720.778	4.08
720.804	31.08
720.83	19.08
720.856	-4.92
720.883	-1.92
720.909	6.08
720.935	11.08
720.961	3.08
720.987	-7.92
721.013	4.08
721.04	7.08
721.066	-1.92
721.092	2.08
721.118	24.08
721.144	3.08
721.17	14.08
721.196	12.08
721.223	-6.92
721.249	-0.92
721.275	7.08
721.301	1.08
721.327	8.08
721.353	14.08
721.379	6.08
721.405	5.08
721.432	-1.92
721.458	9.08
721.484	15.08
721.51	-19.92
721.536	-14.92
721.562	-3.92
721.588	0.08
721.614	-4.92
721.64	0.08
721.666	0.08
721.693	9.08
721.719	0.08
721.745	-14.92
721.771	-2.92
721.797	16.08
721.823	4.08
721.849	29.08
721.875	8.08
721.901	11.08
721.927	2.08
721.953	6.08
721.979	18.08
722.005	20.08
722.031	-10.92
722.057	11.08
722.083	24.08
722.109	13.08
722.135	9.08
722.161	15.08
722.187	-7.92
722.214	4.08
722.24	-5.92
722.266	-11.92
722.292	0.08
722.318	10.08
722.344	11.08
722.37	5.08
722.396	4.08
722.422	2.08
722.448	6.08
722.474	2.08
722.5	10.08
722.526	8.08
722.552	8.08
722.578	1.08
722.603	11.08
722.629	1.08
722.655	-0.92
722.681	-5.92
722.707	-11.92
722.733	-19.92
722.759	-19.92
722.785	13.08
722.811	-1.92
722.837	10.08
722.863	10.08
722.889	18.08
722.915	0.08
722.941	-8.92
722.967	2.08
722.993	4.08
723.019	14.08
723.045	11.08
723.071	29.08
723.097	17.08
723.122	1.08
723.148	-13.92
723.174	-2.92
723.2	7.08
723.226	2.08
723.252	4.08
723.278	-9.92
723.304	-8.92
723.33	10.08
723.356	14.08
723.381	-2.92
723.407	-8.92
723.433	6.08
723.459	11.08
723.485	10.08
723.511	15.08
723.537	-1.92
723.563	9.08
723.588	6.08
723.614	17.08
723.64	-1.92
723.666	-9.92
723.692	1.08
723.718	-4.92
723.744	-2.92
723.769	-3.92
723.795	-2.92
723.821	14.08
723.847	7.08
723.873	-5.92
723.899	14.08
723.924	4.08
723.95	-3.92
723.976	-6.92
724.002	5.08
724.028	4.08
724.053	-6.92
724.079	-19.92
724.105	4.08
724.131	0.08
724.157	13.08
724.182	14.08
724.208	4.08
724.234	-1.92
724.26	2.08
724.286	-3.92
724.311	2.08
724.337	1.08
724.363	-15.92
724.389	-0.92
724.415	-1.92
724.44	6.08
724.466	5.08
724.492	0.08
724.518	11.08
724.543	1.08
724.569	18.08
724.595	-2.92
724.621	-11.92
724.646	-1.92
724.672	-1.92
724.698	3.08
724.723	-6.92
724.749	4.08
724.775	12.08
724.801	9.08
724.826	13.08
724.852	11.08
724.878	3.08
724.904	-4.92
724.929	-1.92
724.955	-3.92
724.981	7.08
725.006	5.08
725.032	7.08
725.058	0.08
725.083	-0.92
725.109	-4.92
725.135	10.08
725.161	21.08
725.186	5.08
725.212	1.08
725.238	8.08
725.263	6.08
725.289	-1.92
725.315	-3.92
725.34	-2.92
725.366	17.08
725.392	4.08
725.417	-4.92
725.443	2.08
725.468	29.08
725.494	15.08
725.52	8.08
725.545	-13.92
725.571	-6.92
725.597	-6.92
725.622	4.08
725.648	2.08
725.674	7.08
725.699	5.08
725.725	-14.92
725.75	23.08
725.776	13.08
725.802	7.08
725.827	-2.92
725.853	-13.92
725.878	-5.92
725.904	10.08
725.93	1.08
725.955	0.08
725.981	-9.92
726.006	-3.92
726.032	21.08
726.057	-3.92
726.083	-1.92
726.109	9.08
726.134	5.08
726.16	25.08
726.185	-2.92
726.211	-4.92
726.236	9.08
726.262	15.08
726.288	13.08
726.313	7.08
726.339	0.08
726.364	6.08
726.39	10.08
726.415	2.08
726.441	-11.92
726.466	-1.92
726.492	-19.92
726.517	-7.92
726.543	-5.92
726.568	-3.92
726.594	4.08
726.619	-3.92
726.645	-1.92
726.67	-5.92
726.696	4.08
726.721	12.08
726.747	-9.92
726.772	0.08
726.798	8.08
726.823	3.08
726.849	-15.92
726.874	4.08
726.9	23.08
726.925	-7.92
726.951	-26.92
726.976	11.08
727.002	-1.92
727.027	16.08
727.053	21.08
727.078	2.08
727.104	11.08
727.129	3.08
727.155	-1.92
727.18	18.08
727.205	5.08
727.231	-9.92
727.256	8.08
727.282	0.08
727.307	10.08
727.333	13.08
727.358	-0.92
727.383	1.08
727.409	-3.92
727.434	30.08
727.46	9.08
727.485	9.08
727.511	10.08
727.536	0.08
727.561	-17.92
727.587	-1.92
727.612	-17.92
727.637	0.08
727.663	-0.92
727.688	12.08
727.714	6.08
727.739	-2.92
727.764	-2.92
727.79	0.08
727.815	6.08
727.841	8.08
727.866	-3.92
727.891	14.08
727.917	-18.92
727.942	-11.92
727.967	-15.92
727.993	-1.92
728.018	0.08
728.043	9.08
728.069	3.08
728.094	4.08
728.119	-1.92
728.145	0.08
728.17	8.08
728.195	1.08
728.221	8.08
728.246	-7.92
728.271	-9.92
728.297	5.08
728.322	13.08
728.347	0.08
728.373	10.08
728.398	3.08
728.423	-10.92
728.448	0.08
728.474	-1.92
728.499	1.08
728.524	7.08
728.55	4.08
728.575	-8.92
728.6	10.08
728.625	-0.92
728.651	-4.92
728.676	10.08
728.701	1.08
728.727	-5.92
728.752	-0.92
728.777	12.08
728.802	13.08
728.828	2.08
728.853	3.08
728.878	-3.92
728.903	0.08
728.929	1.08
728.954	-8.92
728.979	10.08
729.004	9.08
729.03	-0.92
729.055	34.08
729.08	-9.92
729.105	-7.92
729.13	1.08
729.156	-7.92
729.181	8.08
729.206	-27.92
729.231	-10.92
729.256	21.08
729.282	1.08
729.307	-1.92
729.332	-10.92
729.357	-6.92
729.382	-11.92
729.408	-2.92
729.433	11.08
729.458	15.08
729.483	12.08
729.508	13.08
729.533	2.08
729.559	6.08
729.584	-3.92
729.609	9.08
729.634	5.08
729.659	-8.92
729.684	-1.92
729.71	17.08
729.735	6.08
729.76	-3.92
729.785	-16.92
729.81	18.08
729.835	-6.92
729.86	-5.92
729.886	11.08
729.911	-7.92
729.936	0.08
729.961	5.08
729.986	-6.92
730.011	-1.92
730.036	-4.92
730.061	9.08
730.086	0.08
730.112	10.08
730.137	19.08
730.162	-2.92
730.187	-6.92
730.212	-0.92
730.237	-11.92
730.262	-1.92
730.287	-4.92
730.312	21.08
730.337	-2.92
730.362	5.08
730.387	-0.92
730.413	-7.92
730.438	9.08
730.463	10.08
730.488	2.08
730.513	4.08
730.538	0.08
730.563	24.08
730.588	3.08
730.613	7.08
730.638	12.08
730.663	4.08
730.688	14.08
730.713	8.08
730.738	0.08
730.763	14.08
730.788	6.08
730.813	11.08
730.838	2.08
730.863	-6.92
730.888	-11.92
730.913	0.08
730.938	-3.92
730.963	7.08
730.988	7.08
731.013	15.08
731.038	5.08
731.063	7.08
731.088	25.08
731.113	2.08
731.138	0.08
731.163	2.08
731.188	5.08
731.213	16.08
731.238	23.08
731.263	4.08
731.288	-3.92
731.313	-13.92
731.338	10.08
731.363	1.08
731.388	15.08
731.413	14.08
731.438	20.08
731.463	11.08
731.487	16.08
731.512	-8.92
731.537	-9.92
731.562	-5.92
731.587	4.08
731.612	-9.92
731.637	-4.92
731.662	12.08
731.687	10.08
731.712	-1.92
731.737	-0.92
731.762	7.08
731.786	8.08
731.811	0.08
731.836	0.08
731.861	13.08
731.886	-7.92
731.911	-1.92
731.936	11.08
731.961	-3.92
731.986	-10.92
732.01	0.08
732.035	21.08
732.06	2.08
732.085	-0.92
732.11	-0.92
732.135	-12.92
732.16	-1.92
732.184	-1.92
732.209	21.08
732.234	17.08
732.259	-1.92
732.284	4.08
732.309	-3.92
732.334	4.08
732.358	-17.92
732.383	-19.92
732.408	-7.92
732.433	-3.92
732.458	-3.92
732.482	10.08
732.507	-6.92
732.532	17.08
732.557	7.08
732.582	7.08
732.607	0.08
732.631	-2.92
732.656	-5.92
732.681	13.08
732.706	4.08
732.73	6.08
732.755	5.08
732.78	-7.92
732.805	12.08
732.83	-7.92
732.854	10.08
732.879	19.08
732.904	-6.92
732.929	1.08
732.953	12.08
732.978	5.08
733.003	-9.92
733.028	-1.92
733.052	11.08
733.077	21.08
733.102	9.08
733.127	16.08
733.151	8.08
733.176	15.08
733.201	-3.92
733.226	4.08
733.25	-6.92
733.275	-1.92
733.3	-4.92
733.324	-0.92
733.349	16.08
733.374	12.08
733.399	-2.92
733.423	5.08
733.448	12.08
733.473	-6.92
733.497	-3.92
733.522	-6.92
733.547	11.08
733.571	17.08
733.596	0.08
733.621	4.08
733.646	-6.92
733.67	10.08
733.695	1.08
733.72	4.08
733.744	18.08
733.769	1.08
733.794	2.08
733.818	2.08
733.843	1.08
733.867	-3.92
733.892	7.08
733.917	9.08
733.941	5.08
733.966	-0.92
733.991	-10.92
734.015	6.08
734.04	14.08
734.065	5.08
734.089	9.08
734.114	4.08
734.138	13.08
734.163	-7.92
734.188	11.08
734.212	12.08
734.237	15.08
734.261	13.08
734.286	8.08
734.311	1.08
734.335	-0.92
734.36	-15.92
734.384	13.08
734.409	21.08
734.434	-1.92
734.458	9.08
734.483	11.08
734.507	-0.92
734.532	10.08
734.556	-10.92
734.581	-0.92
734.606	-3.92
734.63	-11.92
734.655	-1.92
734.679	-2.92
734.704	9.08
734.728	11.08
734.753	8.08
734.777	14.08
734.802	-5.92
734.826	6.08
734.851	4.08
734.876	5.08
734.9	12.08
734.925	29.08
734.949	11.08
734.974	-5.92
734.998	-3.92
735.023	-12.92
735.047	-9.92
735.072	17.08
735.096	14.08
735.121	9.08
735.145	8.08
735.17	-0.92
735.194	17.08
735.219	-0.92
735.243	10.08
735.268	8.08
735.292	7.08
735.317	-10.92
735.341	14.08
735.365	-5.92
735.39	10.08
735.414	9.08
735.439	8.08
735.463	-5.92
735.488	-4.92
735.512	11.08
735.537	-1.92
735.561	-2.92
735.586	2.08
735.61	3.08
735.634	19.08
735.659	8.08
735.683	15.08
735.708	6.08
735.732	2.08
735.757	-7.92
735.781	13.08
735.805	10.08
735.83	-10.92
735.854	6.08
735.879	6.08
735.903	13.08
735.927	1.08
735.952	-6.92
735.976	-8.92
736.001	-5.92
736.025	-6.92
736.049	3.08
736.074	4.08
736.098	-0.92
736.123	-0.92
736.147	11.08
736.171	1.08
736.196	15.08
736.22	-15.92
736.244	18.08
736.269	-3.92
736.293	9.08
736.317	5.08
736.342	6.08
736.366	32.08
736.39	10.08
736.415	5.08
736.439	11.08
736.463	7.08
736.488	8.08
736.512	4.08
736.536	0.08
736.561	13.08
736.585	9.08
736.609	6.08
736.634	1.08
736.658	12.08
736.682	-11.92
736.707	-5.92
736.731	4.08
736.755	1.08
736.78	8.08
736.804	13.08
736.828	6.08
736.852	1.08
736.877	1.08
736.901	8.08
736.925	4.08
736.949	6.08
736.974	5.08
736.998	5.08
737.022	0.08
737.047	-2.92
737.071	-2.92
737.095	17.08
737.119	17.08
737.144	1.08
737.168	-9.92
737.192	5.08
737.216	28.08
737.241	-0.92
737.265	8.08
737.289	-2.92
737.313	-9.92
737.337	4.08
737.362	14.08
737.386	4.08
737.41	-4.92
737.434	17.08
737.459	4.08
737.483	5.08
737.507	0.08
737.531	8.08
737.555	6.08
737.58	13.08
737.604	6.08
737.628	0.08
737.652	8.08
737.676	2.08
737.701	-1.92
737.725	6.08
737.749	8.08
737.773	9.08
737.797	5.08
737.821	1.08
737.846	4.08
737.87	28.08
737.894	2.08
737.918	0.08
737.942	-6.92
737.966	12.08
737.99	13.08
738.015	-2.92
738.039	6.08
738.063	-15.92
738.087	3.08
738.111	0.08
738.135	11.08
738.159	-1.92
738.184	4.08
738.208	21.08
738.232	-0.92
738.256	17.08
738.28	12.08
738.304	14.08
738.328	6.08
738.352	6.08
738.376	-1.92
738.4	9.08
738.425	2.08
738.449	-16.92
738.473	24.08
738.497	4.08
738.521	2.08
738.545	-1.92
738.569	9.08
738.593	28.08
738.617	11.08
738.641	8.08
738.665	8.08
738.689	2.08
738.713	-10.92
738.737	0.08
738.762	16.08
738.786	15.08
738.81	-15.92
738.834	11.08
738.858	-5.92
738.882	12.08
738.906	-3.92
738.93	0.08
738.954	2.08
738.978	5.08
739.002	-1.92
739.026	10.08
739.05	1.08
739.074	-8.92
739.098	14.08
739.122	14.08
739.146	14.08
739.17	27.08
739.194	13.08
739.218	-4.92
739.242	-2.92
739.266	12.08
739.29	24.08
739.314	17.08
739.338	11.08
739.362	0.08
739.386	-6.92
739.41	-18.92
739.434	0.08
739.458	15.08
739.482	11.08
739.506	6.08
739.53	6.08
739.554	12.08
739.577	-6.92
739.601	-2.92
739.625	-3.92
739.649	10.08
739.673	5.08
739.697	15.08
739.721	-1.92
739.745	18.08
739.769	8.08
739.793	11.08
739.817	6.08
739.841	-12.92
739.865	9.08
739.889	-5.92
739.912	4.08
739.936	-3.92
739.96	2.08
739.984	6.08
740.008	12.08
740.032	-8.92
740.056	8.08
740.08	-3.92
740.104	-4.92
740.127	5.08
740.151	13.08
740.175	22.08
740.199	8.08
740.223	56.08
740.247	17.08
740.271	0.08
740.295	0.08
740.318	-3.92
740.342	-1.92
740.366	8.08
740.39	12.08
740.414	4.08
740.438	-22.92
740.461	13.08
740.485	12.08
740.509	-4.92
740.533	13.08
740.557	-8.92
740.581	-7.92
740.604	-8.92
740.628	-9.92
740.652	7.08
740.676	-8.92
740.7	0.08
740.723	8.08
740.747	-12.92
740.771	7.08
740.795	-10.92
740.819	1.08
740.842	4.08
740.866	28.08
740.89	-0.92
740.914	-1.92
740.938	-7.92
740.961	11.08
740.985	9.08
741.009	-5.92
741.033	16.08
741.056	3.08
741.08	0.08
741.104	3.08
741.128	10.08
741.151	14.08
741.175	-6.92
741.199	5.08
741.223	15.08
741.246	-4.92
741.27	8.08
741.294	10.08
741.318	-8.92
741.341	-6.92
741.365	14.08
741.389	0.08
741.413	5.08
741.436	20.08
741.46	2.08
741.484	12.08
741.507	5.08
741.531	37.08
741.555	10.08
741.579	6.08
741.602	16.08
741.626	1.08
741.65	10.08
741.673	3.08
741.697	6.08
741.721	-0.92
741.744	-11.92
741.768	2.08
741.792	-0.92
741.815	0.08
741.839	25.08
741.863	22.08
741.886	16.08
741.91	11.08
741.934	6.08
741.957	-5.92
741.981	18.08
742.005	19.08
742.028	-18.92
742.052	1.08
742.075	2.08
742.099	5.08
742.123	11.08
742.146	3.08
742.17	-1.92
742.194	-8.92
742.217	9.08
742.241	-1.92
742.264	-4.92
742.288	21.08
742.312	-1.92
742.335	-1.92
742.359	5.08
742.382	9.08
742.406	6.08
742.43	-11.92
742.453	0.08
742.477	-2.92
742.5	-2.92
742.524	1.08
742.548	-3.92
742.571	-2.92
742.595	9.08
742.618	-5.92
742.642	6.08
742.665	10.08
742.689	9.08
742.712	5.08
742.736	4.08
742.76	20.08
742.783	-3.92
742.807	1.08
742.83	10.08
742.854	-9.92
742.877	-3.92
742.901	1.08
742.924	5.08
742.948	23.08
742.971	-4.92
742.995	-2.92
743.018	-11.92
743.042	-6.92
743.065	-0.92
743.089	5.08
743.112	14.08
743.136	-6.92
743.159	-1.92
743.183	-5.92
743.206	-3.92
743.23	1.08
743.253	-8.92
743.277	10.08
743.3	-1.92
743.324	0.08
743.347	-2.92
743.371	17.08
743.394	-5.92
743.418	6.08
743.441	9.08
743.465	4.08
743.488	11.08
743.512	-3.92
743.535	5.08
743.558	5.08
743.582	3.08
743.605	-2.92
743.629	5.08
743.652	18.08
743.676	8.08
743.699	10.08
743.723	1.08
743.746	5.08
743.769	-6.92
743.793	6.08
743.816	-1.92
743.84	12.08
743.863	5.08
743.886	11.08
743.91	16.08
743.933	10.08
743.957	-10.92
743.98	1.08
744.003	7.08
744.027	7.08
744.05	0.08
744.074	0.08
744.097	-10.92
744.12	7.08
744.144	-1.92
744.167	18.08
744.19	5.08
744.214	1.08
744.237	-1.92
744.26	13.08
744.284	6.08
744.307	-7.92
744.331	8.08
744.354	1.08
744.377	-7.92
744.401	-6.92
744.424	-0.92
744.447	-13.92
744.471	-2.92
