Data from HighRes_H2D2_15_04_11_07_2024_HR4C61891__49__15-05-39-343.txt Node

Date: Thu Nov 07 15:05:39 EST 2024
User: crc00042
Spectrometer: HR4C6189
Trigger mode: 4
Integration Time (sec): 1.000000E-1
Scans to average: 1
Electric dark correction enabled: true
Nonlinearity correction enabled: false
Boxcar width: 0
XAxis mode: Wavelengths
Number of Pixels in Spectrum: 3648
>>>>>Begin Spectral Data<<<<<
639.567	-69.85
639.602	-69.85
639.636	-69.85
639.67	-37.85
639.704	-9.85
639.738	6.15
639.773	0.15
639.807	-16.85
639.841	9.15
639.875	15.15
639.909	9.15
639.943	-10.85
639.978	-2.85
640.012	-6.85
640.046	7.15
640.08	6.15
640.114	3.15
640.148	-18.85
640.182	-6.85
640.217	4.15
640.251	13.15
640.285	10.15
640.319	-1.85
640.353	-0.85
640.387	22.15
640.421	2.15
640.455	-5.85
640.49	-5.85
640.524	-10.85
640.558	13.15
640.592	10.15
640.626	14.15
640.66	18.15
640.694	-4.85
640.728	1.15
640.762	10.15
640.796	13.15
640.83	14.15
640.865	10.15
640.899	3.15
640.933	3.15
640.967	0.15
641.001	-1.85
641.035	10.15
641.069	-4.85
641.103	9.15
641.137	-10.85
641.171	-12.85
641.205	24.15
641.239	5.15
641.273	18.15
641.307	17.15
641.341	-4.85
641.375	0.15
641.409	-3.85
641.443	4.15
641.477	15.15
641.511	1.15
641.545	3.15
641.579	-4.85
641.614	18.15
641.648	10.15
641.682	-9.85
641.716	3.15
641.75	12.15
641.784	-11.85
641.818	1.15
641.852	7.15
641.886	-5.85
641.919	12.15
641.953	-3.85
641.987	-5.85
642.021	8.15
642.055	-0.85
642.089	9.15
642.123	-9.85
642.157	2.15
642.191	8.15
642.225	16.15
642.259	5.15
642.293	14.15
642.327	4.15
642.361	-2.85
642.395	20.15
642.429	-3.85
642.463	15.15
642.497	26.15
642.531	1.15
642.565	6.15
642.599	16.15
642.633	-19.85
642.666	10.15
642.7	11.15
642.734	18.15
642.768	-5.85
642.802	-2.85
642.836	-1.85
642.87	-6.85
642.904	10.15
642.938	14.15
642.972	-1.85
643.005	-5.85
643.039	15.15
643.073	6.15
643.107	14.15
643.141	2.15
643.175	2.15
643.209	-20.85
643.243	-4.85
643.276	8.15
643.31	17.15
643.344	17.15
643.378	5.15
643.412	7.15
643.446	19.15
643.48	13.15
643.513	18.15
643.547	7.15
643.581	-2.85
643.615	2.15
643.649	3.15
643.683	10.15
643.716	-7.85
643.75	8.15
643.784	-12.85
643.818	19.15
643.852	6.15
643.886	8.15
643.919	2.15
643.953	-9.85
643.987	11.15
644.021	7.15
644.055	12.15
644.088	0.15
644.122	11.15
644.156	-11.85
644.19	-9.85
644.224	5.15
644.257	-4.85
644.291	8.15
644.325	11.15
644.359	2.15
644.392	7.15
644.426	2.15
644.46	10.15
644.494	6.15
644.527	0.15
644.561	4.15
644.595	12.15
644.629	3.15
644.662	3.15
644.696	23.15
644.73	15.15
644.764	1.15
644.797	-3.85
644.831	-15.85
644.865	11.15
644.899	-2.85
644.932	30.15
644.966	14.15
645	23.15
645.033	22.15
645.067	-17.85
645.101	11.15
645.135	-2.85
645.168	-9.85
645.202	-14.85
645.236	-1.85
645.269	14.15
645.303	6.15
645.337	-28.85
645.37	4.15
645.404	-1.85
645.438	-2.85
645.471	2.15
645.505	2.15
645.539	-0.85
645.572	-12.85
645.606	3.15
645.64	12.15
645.673	12.15
645.707	21.15
645.741	2.15
645.774	1.15
645.808	15.15
645.842	-13.85
645.875	25.15
645.909	0.15
645.943	2.15
645.976	1.15
646.01	8.15
646.043	27.15
646.077	18.15
646.111	22.15
646.144	13.15
646.178	11.15
646.212	-5.85
646.245	-15.85
646.279	17.15
646.312	6.15
646.346	21.15
646.38	18.15
646.413	12.15
646.447	3.15
646.48	-4.85
646.514	13.15
646.547	-0.85
646.581	-5.85
646.615	2.15
646.648	-8.85
646.682	23.15
646.715	2.15
646.749	3.15
646.782	4.15
646.816	10.15
646.85	4.15
646.883	-8.85
646.917	16.15
646.95	18.15
646.984	9.15
647.017	3.15
647.051	19.15
647.084	12.15
647.118	8.15
647.151	15.15
647.185	20.15
647.218	-3.85
647.252	7.15
647.285	2.15
647.319	3.15
647.353	1.15
647.386	20.15
647.42	-1.85
647.453	0.15
647.487	4.15
647.52	0.15
647.553	6.15
647.587	-0.85
647.62	-4.85
647.654	-7.85
647.687	9.15
647.721	22.15
647.754	9.15
647.788	20.15
647.821	20.15
647.855	17.15
647.888	28.15
647.922	9.15
647.955	0.15
647.989	9.15
648.022	13.15
648.055	15.15
648.089	1.15
648.122	32.15
648.156	5.15
648.189	-6.85
648.223	-5.85
648.256	21.15
648.29	5.15
648.323	1.15
648.356	18.15
648.39	5.15
648.423	6.15
648.457	-4.85
648.49	-1.85
648.523	9.15
648.557	7.15
648.59	2.15
648.624	23.15
648.657	8.15
648.69	21.15
648.724	13.15
648.757	26.15
648.791	27.15
648.824	23.15
648.857	31.15
648.891	1.15
648.924	15.15
648.957	21.15
648.991	7.15
649.024	16.15
649.057	11.15
649.091	-5.85
649.124	21.15
649.158	28.15
649.191	24.15
649.224	15.15
649.258	19.15
649.291	16.15
649.324	10.15
649.358	3.15
649.391	11.15
649.424	16.15
649.458	2.15
649.491	1.15
649.524	3.15
649.557	-3.85
649.591	-10.85
649.624	15.15
649.657	15.15
649.691	17.15
649.724	-0.85
649.757	-20.85
649.791	-11.85
649.824	19.15
649.857	9.15
649.89	13.15
649.924	-5.85
649.957	15.15
649.99	-6.85
650.023	-7.85
650.057	-8.85
650.09	7.15
650.123	2.15
650.157	30.15
650.19	18.15
650.223	2.15
650.256	-6.85
650.29	7.15
650.323	12.15
650.356	9.15
650.389	7.15
650.423	-3.85
650.456	3.15
650.489	10.15
650.522	10.15
650.555	34.15
650.589	17.15
650.622	6.15
650.655	24.15
650.688	9.15
650.721	11.15
650.755	4.15
650.788	16.15
650.821	-1.85
650.854	0.15
650.887	18.15
650.921	14.15
650.954	0.15
650.987	21.15
651.02	11.15
651.053	-12.85
651.087	-7.85
651.12	22.15
651.153	8.15
651.186	14.15
651.219	6.15
651.252	11.15
651.286	-3.85
651.319	3.15
651.352	13.15
651.385	26.15
651.418	-8.85
651.451	15.15
651.484	22.15
651.518	-3.85
651.551	29.15
651.584	14.15
651.617	16.15
651.65	16.15
651.683	26.15
651.716	2.15
651.749	-0.85
651.783	16.15
651.816	16.15
651.849	18.15
651.882	10.15
651.915	2.15
651.948	12.15
651.981	-3.85
652.014	-4.85
652.047	-2.85
652.08	10.15
652.114	25.15
652.147	9.15
652.18	18.15
652.213	15.15
652.246	4.15
652.279	3.15
652.312	6.15
652.345	-0.85
652.378	-0.85
652.411	23.15
652.444	12.15
652.477	9.15
652.51	-0.85
652.543	-14.85
652.576	13.15
652.609	9.15
652.642	15.15
652.675	25.15
652.709	4.15
652.742	10.15
652.775	1.15
652.808	15.15
652.841	2.15
652.874	18.15
652.907	6.15
652.94	5.15
652.973	-11.85
653.006	-1.85
653.039	14.15
653.072	20.15
653.105	-1.85
653.138	-18.85
653.171	0.15
653.204	6.15
653.237	12.15
653.27	15.15
653.303	1.15
653.336	2.15
653.368	3.15
653.401	21.15
653.434	11.15
653.467	17.15
653.5	-8.85
653.533	-8.85
653.566	8.15
653.599	3.15
653.632	10.15
653.665	18.15
653.698	-10.85
653.731	-4.85
653.764	5.15
653.797	4.15
653.83	10.15
653.863	13.15
653.896	11.15
653.929	20.15
653.961	4.15
653.994	-1.85
654.027	-6.85
654.06	13.15
654.093	1.15
654.126	17.15
654.159	8.15
654.192	13.15
654.225	12.15
654.258	15.15
654.29	7.15
654.323	22.15
654.356	10.15
654.389	-4.85
654.422	13.15
654.455	12.15
654.488	13.15
654.521	-17.85
654.553	3.15
654.586	21.15
654.619	9.15
654.652	15.15
654.685	2.15
654.718	5.15
654.751	11.15
654.783	-2.85
654.816	37.15
654.849	-0.85
654.882	-15.85
654.915	-2.85
654.948	-0.85
654.98	-14.85
655.013	4.15
655.046	-3.85
655.079	-10.85
655.112	9.15
655.144	18.15
655.177	21.15
655.21	19.15
655.243	13.15
655.276	3.15
655.308	9.15
655.341	-0.85
655.374	9.15
655.407	-2.85
655.44	5.15
655.472	-4.85
655.505	4.15
655.538	12.15
655.571	30.15
655.603	13.15
655.636	4.15
655.669	20.15
655.702	7.15
655.734	2.15
655.767	14.15
655.8	1.15
655.833	8.15
655.865	17.15
655.898	8.15
655.931	4.15
655.964	18.15
655.996	20.15
656.029	43.15
656.062	47.15
656.095	40.15
656.127	80.15
656.16	212.15
656.193	614.15
656.225	964.15
656.258	556.15
656.291	205.15
656.324	177.15
656.356	369.15
656.389	771.15
656.422	681.15
656.454	236.15
656.487	87.15
656.52	43.15
656.552	26.15
656.585	3.15
656.618	8.15
656.65	23.15
656.683	14.15
656.716	18.15
656.748	6.15
656.781	17.15
656.814	1.15
656.846	2.15
656.879	-0.85
656.912	-14.85
656.944	-15.85
656.977	7.15
657.01	7.15
657.042	12.15
657.075	9.15
657.108	-0.85
657.14	15.15
657.173	22.15
657.205	38.15
657.238	18.15
657.271	2.15
657.303	-7.85
657.336	16.15
657.369	5.15
657.401	0.15
657.434	4.15
657.466	8.15
657.499	7.15
657.532	17.15
657.564	22.15
657.597	11.15
657.629	13.15
657.662	5.15
657.694	18.15
657.727	-3.85
657.76	9.15
657.792	-1.85
657.825	-1.85
657.857	6.15
657.89	-4.85
657.922	21.15
657.955	-1.85
657.987	8.15
658.02	26.15
658.053	25.15
658.085	15.15
658.118	11.15
658.15	30.15
658.183	31.15
658.215	20.15
658.248	-0.85
658.28	12.15
658.313	19.15
658.345	20.15
658.378	-5.85
658.41	10.15
658.443	19.15
658.475	11.15
658.508	17.15
658.54	-3.85
658.573	3.15
658.605	3.15
658.638	12.15
658.67	17.15
658.703	8.15
658.735	10.15
658.768	9.15
658.8	1.15
658.833	16.15
658.865	15.15
658.898	-3.85
658.93	-4.85
658.963	9.15
658.995	-0.85
659.028	8.15
659.06	4.15
659.092	9.15
659.125	1.15
659.157	11.15
659.19	4.15
659.222	13.15
659.255	4.15
659.287	6.15
659.32	-4.85
659.352	-0.85
659.384	18.15
659.417	-11.85
659.449	-2.85
659.482	3.15
659.514	-15.85
659.546	6.15
659.579	1.15
659.611	18.15
659.644	4.15
659.676	0.15
659.708	-6.85
659.741	-15.85
659.773	11.15
659.806	-8.85
659.838	13.15
659.87	15.15
659.903	-12.85
659.935	16.15
659.967	9.15
660	2.15
660.032	-10.85
660.065	14.15
660.097	13.15
660.129	2.15
660.162	-14.85
660.194	14.15
660.226	11.15
660.259	12.15
660.291	-3.85
660.323	-1.85
660.356	1.15
660.388	-11.85
660.42	0.15
660.453	27.15
660.485	8.15
660.517	21.15
660.55	22.15
660.582	13.15
660.614	20.15
660.647	-3.85
660.679	6.15
660.711	3.15
660.743	0.15
660.776	-5.85
660.808	-6.85
660.84	1.15
660.873	10.15
660.905	4.15
660.937	10.15
660.969	-3.85
661.002	6.15
661.034	-0.85
661.066	13.15
661.099	7.15
661.131	23.15
661.163	1.15
661.195	11.15
661.228	20.15
661.26	13.15
661.292	8.15
661.324	1.15
661.357	6.15
661.389	9.15
661.421	11.15
661.453	0.15
661.485	5.15
661.518	10.15
661.55	1.15
661.582	-11.85
661.614	-1.85
661.647	-4.85
661.679	5.15
661.711	8.15
661.743	-3.85
661.775	11.15
661.808	17.15
661.84	-2.85
661.872	9.15
661.904	10.15
661.936	5.15
661.969	-13.85
662.001	1.15
662.033	16.15
662.065	-7.85
662.097	14.15
662.129	15.15
662.162	-20.85
662.194	14.15
662.226	7.15
662.258	8.15
662.29	-0.85
662.322	2.15
662.355	-13.85
662.387	16.15
662.419	22.15
662.451	17.15
662.483	9.15
662.515	8.15
662.547	-3.85
662.58	1.15
662.612	-9.85
662.644	-26.85
662.676	-8.85
662.708	18.15
662.74	17.15
662.772	-0.85
662.804	4.15
662.836	15.15
662.869	20.15
662.901	25.15
662.933	9.15
662.965	16.15
662.997	16.15
663.029	-1.85
663.061	4.15
663.093	8.15
663.125	3.15
663.157	25.15
663.189	2.15
663.221	11.15
663.254	6.15
663.286	6.15
663.318	2.15
663.35	-1.85
663.382	13.15
663.414	25.15
663.446	22.15
663.478	4.15
663.51	16.15
663.542	0.15
663.574	1.15
663.606	-14.85
663.638	-6.85
663.67	5.15
663.702	5.15
663.734	8.15
663.766	15.15
663.798	-12.85
663.83	1.15
663.862	-6.85
663.894	10.15
663.926	-3.85
663.958	12.15
663.99	1.15
664.022	-18.85
664.054	2.15
664.086	1.15
664.118	-0.85
664.15	2.15
664.182	0.15
664.214	8.15
664.246	10.15
664.278	10.15
664.31	14.15
664.342	3.15
664.374	-4.85
664.406	2.15
664.438	12.15
664.47	19.15
664.502	-15.85
664.534	4.15
664.566	4.15
664.598	14.15
664.63	-4.85
664.662	17.15
664.693	9.15
664.725	1.15
664.757	-5.85
664.789	10.15
664.821	12.15
664.853	4.15
664.885	15.15
664.917	4.15
664.949	16.15
664.981	17.15
665.013	4.15
665.045	-9.85
665.076	9.15
665.108	5.15
665.14	2.15
665.172	13.15
665.204	6.15
665.236	-2.85
665.268	16.15
665.3	0.15
665.331	-7.85
665.363	12.15
665.395	12.15
665.427	6.15
665.459	-10.85
665.491	11.15
665.523	8.15
665.555	4.15
665.586	8.15
665.618	12.15
665.65	-8.85
665.682	17.15
665.714	2.15
665.746	-5.85
665.777	4.15
665.809	10.15
665.841	15.15
665.873	12.15
665.905	18.15
665.937	13.15
665.968	16.15
666	-15.85
666.032	12.15
666.064	-2.85
666.096	-4.85
666.127	26.15
666.159	0.15
666.191	6.15
666.223	3.15
666.255	10.15
666.286	16.15
666.318	8.15
666.35	21.15
666.382	16.15
666.413	-12.85
666.445	-0.85
666.477	-14.85
666.509	2.15
666.54	7.15
666.572	1.15
666.604	11.15
666.636	-4.85
666.667	-1.85
666.699	20.15
666.731	1.15
666.763	6.15
666.794	3.15
666.826	19.15
666.858	-7.85
666.89	3.15
666.921	20.15
666.953	5.15
666.985	18.15
667.017	22.15
667.048	15.15
667.08	5.15
667.112	6.15
667.143	-2.85
667.175	6.15
667.207	7.15
667.238	13.15
667.27	-3.85
667.302	-4.85
667.334	-4.85
667.365	2.15
667.397	3.15
667.429	6.15
667.46	17.15
667.492	2.15
667.524	2.15
667.555	2.15
667.587	15.15
667.619	-0.85
667.65	-12.85
667.682	-10.85
667.714	10.15
667.745	11.15
667.777	14.15
667.808	25.15
667.84	13.15
667.872	12.15
667.903	22.15
667.935	1.15
667.967	7.15
667.998	-0.85
668.03	-8.85
668.061	16.15
668.093	11.15
668.125	13.15
668.156	12.15
668.188	13.15
668.22	-5.85
668.251	11.15
668.283	2.15
668.314	13.15
668.346	-2.85
668.377	4.15
668.409	4.15
668.441	1.15
668.472	6.15
668.504	-6.85
668.535	13.15
668.567	12.15
668.599	6.15
668.63	1.15
668.662	6.15
668.693	30.15
668.725	12.15
668.756	2.15
668.788	5.15
668.819	-0.85
668.851	14.15
668.882	3.15
668.914	8.15
668.946	14.15
668.977	12.15
669.009	2.15
669.04	-5.85
669.072	-0.85
669.103	17.15
669.135	-4.85
669.166	19.15
669.198	-1.85
669.229	9.15
669.261	15.15
669.292	13.15
669.324	20.15
669.355	15.15
669.387	-6.85
669.418	14.15
669.45	16.15
669.481	33.15
669.513	17.15
669.544	9.15
669.576	1.15
669.607	15.15
669.639	15.15
669.67	5.15
669.701	3.15
669.733	6.15
669.764	21.15
669.796	-3.85
669.827	6.15
669.859	-8.85
669.89	14.15
669.922	18.15
669.953	20.15
669.985	13.15
670.016	2.15
670.047	16.15
670.079	-2.85
670.11	12.15
670.142	-4.85
670.173	2.15
670.204	2.15
670.236	7.15
670.267	-4.85
670.299	7.15
670.33	8.15
670.362	-0.85
670.393	0.15
670.424	20.15
670.456	-2.85
670.487	11.15
670.518	16.15
670.55	-6.85
670.581	6.15
670.613	11.15
670.644	6.15
670.675	9.15
670.707	-3.85
670.738	19.15
670.769	4.15
670.801	10.15
670.832	20.15
670.864	10.15
670.895	-4.85
670.926	-14.85
670.958	16.15
670.989	6.15
671.02	13.15
671.052	-6.85
671.083	0.15
671.114	6.15
671.146	6.15
671.177	6.15
671.208	8.15
671.24	-0.85
671.271	-6.85
671.302	13.15
671.333	5.15
671.365	1.15
671.396	14.15
671.427	17.15
671.459	7.15
671.49	-3.85
671.521	2.15
671.553	15.15
671.584	1.15
671.615	5.15
671.646	9.15
671.678	14.15
671.709	10.15
671.74	-12.85
671.771	-4.85
671.803	-1.85
671.834	-19.85
671.865	-4.85
671.896	15.15
671.928	-2.85
671.959	-11.85
671.99	-6.85
672.021	2.15
672.053	2.15
672.084	11.15
672.115	2.15
672.146	-2.85
672.178	-7.85
672.209	8.15
672.24	3.15
672.271	30.15
672.303	2.15
672.334	13.15
672.365	-0.85
672.396	23.15
672.427	10.15
672.459	16.15
672.49	30.15
672.521	8.15
672.552	2.15
672.583	6.15
672.615	-7.85
672.646	7.15
672.677	-6.85
672.708	-5.85
672.739	0.15
672.77	16.15
672.802	15.15
672.833	5.15
672.864	5.15
672.895	0.15
672.926	11.15
672.957	3.15
672.989	5.15
673.02	13.15
673.051	-10.85
673.082	20.15
673.113	10.15
673.144	13.15
673.175	18.15
673.206	9.15
673.238	-10.85
673.269	-2.85
673.3	10.15
673.331	17.15
673.362	15.15
673.393	7.15
673.424	14.15
673.455	32.15
673.487	12.15
673.518	15.15
673.549	12.15
673.58	-11.85
673.611	-2.85
673.642	-3.85
673.673	-19.85
673.704	-5.85
673.735	14.15
673.766	6.15
673.797	2.15
673.828	7.15
673.86	-6.85
673.891	-0.85
673.922	0.15
673.953	-11.85
673.984	10.15
674.015	17.15
674.046	-4.85
674.077	-5.85
674.108	-5.85
674.139	5.15
674.17	2.15
674.201	-4.85
674.232	2.15
674.263	-1.85
674.294	-1.85
674.325	-9.85
674.356	11.15
674.387	13.15
674.418	19.15
674.449	-5.85
674.48	4.15
674.511	5.15
674.542	22.15
674.573	-12.85
674.604	17.15
674.635	7.15
674.666	20.15
674.697	13.15
674.728	-1.85
674.759	5.15
674.79	-18.85
674.821	-10.85
674.852	-14.85
674.883	4.15
674.914	14.15
674.945	2.15
674.976	14.15
675.007	4.15
675.038	6.15
675.069	-0.85
675.1	5.15
675.131	6.15
675.162	9.15
675.193	6.15
675.224	11.15
675.254	11.15
675.285	20.15
675.316	12.15
675.347	-1.85
675.378	8.15
675.409	-0.85
675.44	6.15
675.471	-9.85
675.502	-2.85
675.533	7.15
675.564	-5.85
675.595	0.15
675.625	31.15
675.656	1.15
675.687	3.15
675.718	-15.85
675.749	14.15
675.78	9.15
675.811	11.15
675.842	4.15
675.873	-14.85
675.903	-3.85
675.934	3.15
675.965	-2.85
675.996	-0.85
676.027	16.15
676.058	16.15
676.089	-7.85
676.119	-8.85
676.15	11.15
676.181	1.15
676.212	7.15
676.243	36.15
676.274	16.15
676.304	11.15
676.335	-18.85
676.366	11.15
676.397	-2.85
676.428	6.15
676.459	19.15
676.489	24.15
676.52	27.15
676.551	12.15
676.582	-13.85
676.613	15.15
676.643	1.15
676.674	6.15
676.705	11.15
676.736	17.15
676.767	13.15
676.797	26.15
676.828	6.15
676.859	-1.85
676.89	3.15
676.92	1.15
676.951	-1.85
676.982	15.15
677.013	3.15
677.044	25.15
677.074	20.15
677.105	10.15
677.136	11.15
677.167	8.15
677.197	20.15
677.228	12.15
677.259	6.15
677.289	10.15
677.32	-8.85
677.351	-0.85
677.382	0.15
677.412	4.15
677.443	18.15
677.474	8.15
677.505	-15.85
677.535	0.15
677.566	-2.85
677.597	-19.85
677.627	-11.85
677.658	-2.85
677.689	6.15
677.72	18.15
677.75	0.15
677.781	-4.85
677.812	13.15
677.842	9.15
677.873	17.15
677.904	2.15
677.934	1.15
677.965	0.15
677.996	-5.85
678.026	-6.85
678.057	11.15
678.088	-0.85
678.118	-0.85
678.149	-2.85
678.18	10.15
678.21	-3.85
678.241	-2.85
678.272	9.15
678.302	15.15
678.333	17.15
678.363	14.15
678.394	3.15
678.425	-13.85
678.455	1.15
678.486	17.15
678.517	3.15
678.547	2.15
678.578	-0.85
678.608	-6.85
678.639	8.15
678.67	9.15
678.7	-9.85
678.731	-6.85
678.761	-0.85
678.792	4.15
678.823	11.15
678.853	0.15
678.884	-6.85
678.914	5.15
678.945	0.15
678.975	-18.85
679.006	0.15
679.037	-6.85
679.067	13.15
679.098	12.15
679.128	-3.85
679.159	-5.85
679.189	16.15
679.22	5.15
679.25	8.15
679.281	-1.85
679.312	-2.85
679.342	2.15
679.373	28.15
679.403	5.15
679.434	-1.85
679.464	4.15
679.495	18.15
679.525	13.15
679.556	0.15
679.586	11.15
679.617	17.15
679.647	11.15
679.678	11.15
679.708	10.15
679.739	3.15
679.769	5.15
679.8	-2.85
679.83	16.15
679.861	12.15
679.891	9.15
679.922	5.15
679.952	8.15
679.983	-0.85
680.013	9.15
680.044	-9.85
680.074	5.15
680.105	6.15
680.135	6.15
680.165	16.15
680.196	5.15
680.226	7.15
680.257	9.15
680.287	1.15
680.318	2.15
680.348	-14.85
680.379	0.15
680.409	10.15
680.439	1.15
680.47	6.15
680.5	1.15
680.531	5.15
680.561	3.15
680.592	8.15
680.622	14.15
680.652	-10.85
680.683	17.15
680.713	1.15
680.744	3.15
680.774	-1.85
680.804	5.15
680.835	14.15
680.865	-10.85
680.896	13.15
680.926	12.15
680.956	9.15
680.987	1.15
681.017	-0.85
681.047	20.15
681.078	-11.85
681.108	-5.85
681.139	-6.85
681.169	1.15
681.199	6.15
681.23	18.15
681.26	11.15
681.29	-1.85
681.321	3.15
681.351	4.15
681.381	-13.85
681.412	4.15
681.442	7.15
681.472	17.15
681.503	8.15
681.533	9.15
681.563	13.15
681.594	21.15
681.624	3.15
681.654	0.15
681.685	23.15
681.715	11.15
681.745	8.15
681.775	4.15
681.806	10.15
681.836	4.15
681.866	6.15
681.897	4.15
681.927	1.15
681.957	1.15
681.987	33.15
682.018	-3.85
682.048	19.15
682.078	21.15
682.109	29.15
682.139	14.15
682.169	19.15
682.199	-2.85
682.23	9.15
682.26	28.15
682.29	6.15
682.32	9.15
682.351	10.15
682.381	-6.85
682.411	6.15
682.441	1.15
682.472	2.15
682.502	-13.85
682.532	4.15
682.562	11.15
682.592	-0.85
682.623	9.15
682.653	8.15
682.683	2.15
682.713	10.15
682.743	-0.85
682.774	5.15
682.804	8.15
682.834	2.15
682.864	-1.85
682.894	5.15
682.925	-10.85
682.955	-14.85
682.985	8.15
683.015	14.15
683.045	19.15
683.076	-10.85
683.106	7.15
683.136	3.15
683.166	13.15
683.196	-0.85
683.226	14.15
683.257	2.15
683.287	11.15
683.317	3.15
683.347	0.15
683.377	-5.85
683.407	6.15
683.437	5.15
683.468	27.15
683.498	8.15
683.528	7.15
683.558	9.15
683.588	4.15
683.618	-14.85
683.648	-13.85
683.678	0.15
683.708	11.15
683.739	-5.85
683.769	11.15
683.799	9.15
683.829	9.15
683.859	6.15
683.889	13.15
683.919	1.15
683.949	12.15
683.979	-4.85
684.009	-1.85
684.039	9.15
684.07	-1.85
684.1	35.15
684.13	21.15
684.16	21.15
684.19	6.15
684.22	-2.85
684.25	-3.85
684.28	-6.85
684.31	18.15
684.34	17.15
684.37	20.15
684.4	11.15
684.43	-4.85
684.46	-5.85
684.49	12.15
684.52	20.15
684.55	6.15
684.58	12.15
684.61	9.15
684.64	12.15
684.67	16.15
684.7	12.15
684.73	9.15
684.76	3.15
684.79	18.15
684.82	11.15
684.85	-0.85
684.88	22.15
684.91	7.15
684.94	20.15
684.97	-14.85
685	9.15
685.03	-5.85
685.06	9.15
685.09	2.15
685.12	27.15
685.15	-28.85
685.18	10.15
685.21	5.15
685.24	25.15
685.27	15.15
685.3	-6.85
685.33	3.15
685.36	-8.85
685.39	-2.85
685.42	-2.85
685.45	16.15
685.48	12.15
685.51	1.15
685.54	21.15
685.569	6.15
685.599	8.15
685.629	8.15
685.659	5.15
685.689	10.15
685.719	20.15
685.749	10.15
685.779	15.15
685.809	-9.85
685.839	12.15
685.869	18.15
685.898	26.15
685.928	12.15
685.958	2.15
685.988	11.15
686.018	0.15
686.048	10.15
686.078	4.15
686.108	19.15
686.137	12.15
686.167	32.15
686.197	-9.85
686.227	2.15
686.257	25.15
686.287	27.15
686.317	-7.85
686.346	1.15
686.376	5.15
686.406	-5.85
686.436	10.15
686.466	2.15
686.496	0.15
686.525	20.15
686.555	10.15
686.585	13.15
686.615	29.15
686.645	10.15
686.675	-5.85
686.704	18.15
686.734	9.15
686.764	0.15
686.794	23.15
686.824	1.15
686.853	18.15
686.883	26.15
686.913	12.15
686.943	5.15
686.973	-2.85
687.002	12.15
687.032	13.15
687.062	-1.85
687.092	18.15
687.121	-5.85
687.151	-2.85
687.181	6.15
687.211	24.15
687.24	5.15
687.27	-3.85
687.3	-4.85
687.33	4.15
687.359	-14.85
687.389	4.15
687.419	-3.85
687.449	10.15
687.478	16.15
687.508	1.15
687.538	13.15
687.568	6.15
687.597	14.15
687.627	11.15
687.657	5.15
687.686	5.15
687.716	25.15
687.746	13.15
687.776	-6.85
687.805	11.15
687.835	-2.85
687.865	26.15
687.894	-4.85
687.924	5.15
687.954	-2.85
687.983	-1.85
688.013	7.15
688.043	23.15
688.072	21.15
688.102	30.15
688.132	6.15
688.161	8.15
688.191	4.15
688.221	17.15
688.25	0.15
688.28	9.15
688.31	-7.85
688.339	2.15
688.369	-5.85
688.399	4.15
688.428	10.15
688.458	8.15
688.488	10.15
688.517	11.15
688.547	8.15
688.576	26.15
688.606	7.15
688.636	1.15
688.665	21.15
688.695	12.15
688.725	23.15
688.754	21.15
688.784	10.15
688.813	23.15
688.843	11.15
688.873	4.15
688.902	-6.85
688.932	7.15
688.961	1.15
688.991	17.15
689.02	23.15
689.05	2.15
689.08	21.15
689.109	10.15
689.139	13.15
689.168	-0.85
689.198	5.15
689.227	4.15
689.257	2.15
689.287	15.15
689.316	1.15
689.346	-0.85
689.375	3.15
689.405	8.15
689.434	-4.85
689.464	8.15
689.493	7.15
689.523	3.15
689.552	-14.85
689.582	-3.85
689.611	-2.85
689.641	5.15
689.67	-8.85
689.7	10.15
689.73	-0.85
689.759	8.15
689.789	27.15
689.818	3.15
689.848	18.15
689.877	27.15
689.906	0.15
689.936	-5.85
689.965	15.15
689.995	-0.85
690.024	13.15
690.054	-0.85
690.083	11.15
690.113	9.15
690.142	18.15
690.172	-6.85
690.201	15.15
690.231	-12.85
690.26	7.15
690.29	3.15
690.319	10.15
690.348	15.15
690.378	12.15
690.407	1.15
690.437	9.15
690.466	8.15
690.496	11.15
690.525	16.15
690.555	1.15
690.584	-2.85
690.613	6.15
690.643	10.15
690.672	1.15
690.702	27.15
690.731	10.15
690.76	4.15
690.79	-17.85
690.819	6.15
690.849	-2.85
690.878	-2.85
690.907	5.15
690.937	0.15
690.966	16.15
690.996	9.15
691.025	-0.85
691.054	7.15
691.084	12.15
691.113	17.15
691.142	11.15
691.172	21.15
691.201	32.15
691.23	14.15
691.26	23.15
691.289	7.15
691.319	2.15
691.348	11.15
691.377	30.15
691.407	0.15
691.436	7.15
691.465	11.15
691.495	2.15
691.524	-9.85
691.553	-9.85
691.583	-7.85
691.612	24.15
691.641	28.15
691.67	10.15
691.7	1.15
691.729	-8.85
691.758	4.15
691.788	11.15
691.817	6.15
691.846	-0.85
691.876	8.15
691.905	-2.85
691.934	13.15
691.963	6.15
691.993	4.15
692.022	2.15
692.051	-3.85
692.081	17.15
692.11	3.15
692.139	2.15
692.168	-3.85
692.198	26.15
692.227	13.15
692.256	10.15
692.285	7.15
692.315	16.15
692.344	3.15
692.373	1.15
692.402	-5.85
692.432	2.15
692.461	8.15
692.49	-1.85
692.519	8.15
692.548	-0.85
692.578	13.15
692.607	14.15
692.636	0.15
692.665	14.15
692.694	6.15
692.724	12.15
692.753	14.15
692.782	22.15
692.811	2.15
692.84	10.15
692.87	18.15
692.899	18.15
692.928	14.15
692.957	9.15
692.986	26.15
693.016	1.15
693.045	6.15
693.074	15.15
693.103	17.15
693.132	13.15
693.161	15.15
693.191	2.15
693.22	6.15
693.249	-4.85
693.278	12.15
693.307	17.15
693.336	-1.85
693.365	-13.85
693.395	-0.85
693.424	-0.85
693.453	20.15
693.482	8.15
693.511	28.15
693.54	14.15
693.569	11.15
693.598	16.15
693.628	16.15
693.657	14.15
693.686	42.15
693.715	13.15
693.744	14.15
693.773	14.15
693.802	12.15
693.831	-1.85
693.86	16.15
693.889	15.15
693.919	3.15
693.948	11.15
693.977	10.15
694.006	-10.85
694.035	6.15
694.064	-23.85
694.093	10.15
694.122	15.15
694.151	16.15
694.18	14.15
694.209	33.15
694.238	14.15
694.267	29.15
694.296	13.15
694.325	14.15
694.354	17.15
694.383	9.15
694.412	5.15
694.441	-2.85
694.471	5.15
694.5	3.15
694.529	0.15
694.558	16.15
694.587	29.15
694.616	4.15
694.645	7.15
694.674	19.15
694.703	9.15
694.732	15.15
694.761	26.15
694.79	18.15
694.819	-14.85
694.848	9.15
694.877	22.15
694.906	22.15
694.935	14.15
694.963	20.15
694.992	9.15
695.021	8.15
695.05	20.15
695.079	5.15
695.108	7.15
695.137	28.15
695.166	16.15
695.195	-3.85
695.224	1.15
695.253	-9.85
695.282	15.15
695.311	20.15
695.34	-3.85
695.369	19.15
695.398	13.15
695.427	22.15
695.456	12.15
695.485	12.15
695.513	-6.85
695.542	9.15
695.571	12.15
695.6	18.15
695.629	22.15
695.658	11.15
695.687	20.15
695.716	8.15
695.745	14.15
695.774	8.15
695.802	10.15
695.831	17.15
695.86	21.15
695.889	10.15
695.918	5.15
695.947	2.15
695.976	6.15
696.005	2.15
696.033	13.15
696.062	13.15
696.091	14.15
696.12	7.15
696.149	19.15
696.178	16.15
696.207	-3.85
696.235	-8.85
696.264	10.15
696.293	9.15
696.322	16.15
696.351	20.15
696.38	1.15
696.408	10.15
696.437	5.15
696.466	4.15
696.495	10.15
696.524	19.15
696.553	6.15
696.581	23.15
696.61	-12.85
696.639	-13.85
696.668	-3.85
696.697	-2.85
696.725	15.15
696.754	10.15
696.783	-7.85
696.812	0.15
696.84	31.15
696.869	19.15
696.898	13.15
696.927	10.15
696.956	35.15
696.984	-1.85
697.013	12.15
697.042	1.15
697.071	20.15
697.099	34.15
697.128	19.15
697.157	20.15
697.186	12.15
697.214	20.15
697.243	4.15
697.272	2.15
697.301	20.15
697.329	18.15
697.358	20.15
697.387	38.15
697.415	10.15
697.444	28.15
697.473	0.15
697.502	-2.85
697.53	1.15
697.559	5.15
697.588	22.15
697.616	9.15
697.645	11.15
697.674	24.15
697.703	13.15
697.731	22.15
697.76	7.15
697.789	10.15
697.817	12.15
697.846	16.15
697.875	13.15
697.903	18.15
697.932	21.15
697.961	9.15
697.989	-1.85
698.018	1.15
698.047	7.15
698.075	11.15
698.104	7.15
698.133	19.15
698.161	11.15
698.19	15.15
698.218	9.15
698.247	9.15
698.276	6.15
698.304	6.15
698.333	8.15
698.362	15.15
698.39	11.15
698.419	10.15
698.447	11.15
698.476	10.15
698.505	7.15
698.533	9.15
698.562	6.15
698.591	11.15
698.619	-19.85
698.648	9.15
698.676	15.15
698.705	6.15
698.733	8.15
698.762	16.15
698.791	17.15
698.819	2.15
698.848	14.15
698.876	34.15
698.905	20.15
698.933	3.15
698.962	9.15
698.991	21.15
699.019	29.15
699.048	10.15
699.076	14.15
699.105	9.15
699.133	9.15
699.162	12.15
699.19	27.15
699.219	29.15
699.248	16.15
699.276	-1.85
699.305	18.15
699.333	8.15
699.362	-0.85
699.39	4.15
699.419	14.15
699.447	13.15
699.476	15.15
699.504	4.15
699.533	26.15
699.561	9.15
699.59	11.15
699.618	2.15
699.647	3.15
699.675	6.15
699.704	22.15
699.732	9.15
699.761	23.15
699.789	-0.85
699.818	5.15
699.846	3.15
699.874	7.15
699.903	3.15
699.931	-1.85
699.96	17.15
699.988	5.15
700.017	3.15
700.045	4.15
700.074	4.15
700.102	0.15
700.13	8.15
700.159	11.15
700.187	12.15
700.216	1.15
700.244	-22.85
700.273	-16.85
700.301	18.15
700.329	15.15
700.358	12.15
700.386	13.15
700.415	1.15
700.443	3.15
700.472	16.15
700.5	13.15
700.528	10.15
700.557	17.15
700.585	8.15
700.614	-11.85
700.642	15.15
700.67	18.15
700.699	26.15
700.727	19.15
700.755	11.15
700.784	9.15
700.812	9.15
700.841	26.15
700.869	20.15
700.897	4.15
700.926	6.15
700.954	15.15
700.982	14.15
701.011	2.15
701.039	12.15
701.067	2.15
701.096	13.15
701.124	-6.85
701.152	2.15
701.181	14.15
701.209	4.15
701.237	6.15
701.266	8.15
701.294	18.15
701.322	13.15
701.351	16.15
701.379	21.15
701.407	4.15
701.435	15.15
701.464	28.15
701.492	26.15
701.52	3.15
701.549	3.15
701.577	-5.85
701.605	9.15
701.634	9.15
701.662	14.15
701.69	-3.85
701.718	7.15
701.747	12.15
701.775	11.15
701.803	19.15
701.831	7.15
701.86	5.15
701.888	8.15
701.916	6.15
701.944	0.15
701.973	14.15
702.001	1.15
702.029	1.15
702.057	9.15
702.086	-22.85
702.114	-16.85
702.142	4.15
702.17	9.15
702.199	9.15
702.227	6.15
702.255	-0.85
702.283	8.15
702.311	8.15
702.34	15.15
702.368	1.15
702.396	3.15
702.424	0.15
702.452	-2.85
702.481	16.15
702.509	11.15
702.537	30.15
702.565	14.15
702.593	-11.85
702.621	4.15
702.65	13.15
702.678	5.15
702.706	18.15
702.734	10.15
702.762	17.15
702.79	26.15
702.819	12.15
702.847	-1.85
702.875	16.15
702.903	16.15
702.931	7.15
702.959	8.15
702.988	7.15
703.016	-4.85
703.044	2.15
703.072	18.15
703.1	17.15
703.128	-1.85
703.156	11.15
703.184	-3.85
703.212	13.15
703.241	13.15
703.269	5.15
703.297	-3.85
703.325	2.15
703.353	9.15
703.381	3.15
703.409	1.15
703.437	-17.85
703.465	-0.85
703.493	4.15
703.522	12.15
703.55	11.15
703.578	16.15
703.606	2.15
703.634	-1.85
703.662	0.15
703.69	7.15
703.718	12.15
703.746	23.15
703.774	-3.85
703.802	26.15
703.83	-1.85
703.858	6.15
703.886	-9.85
703.914	-13.85
703.942	19.15
703.97	1.15
703.998	17.15
704.027	23.15
704.055	4.15
704.083	13.15
704.111	-0.85
704.139	6.15
704.167	8.15
704.195	11.15
704.223	1.15
704.251	12.15
704.279	-0.85
704.307	-11.85
704.335	1.15
704.363	31.15
704.391	10.15
704.419	5.15
704.447	1.15
704.475	-2.85
704.503	18.15
704.531	15.15
704.558	-2.85
704.586	12.15
704.614	3.15
704.642	6.15
704.67	0.15
704.698	11.15
704.726	26.15
704.754	15.15
704.782	6.15
704.81	20.15
704.838	24.15
704.866	20.15
704.894	-1.85
704.922	9.15
704.95	6.15
704.978	14.15
705.006	4.15
705.034	17.15
705.061	8.15
705.089	5.15
705.117	-2.85
705.145	15.15
705.173	11.15
705.201	8.15
705.229	13.15
705.257	2.15
705.285	9.15
705.313	-0.85
705.34	3.15
705.368	2.15
705.396	12.15
705.424	24.15
705.452	-12.85
705.48	4.15
705.508	5.15
705.536	10.15
705.563	3.15
705.591	2.15
705.619	27.15
705.647	-13.85
705.675	5.15
705.703	14.15
705.731	9.15
705.758	18.15
705.786	17.15
705.814	25.15
705.842	1.15
705.87	19.15
705.898	9.15
705.925	7.15
705.953	17.15
705.981	-3.85
706.009	-1.85
706.037	17.15
706.065	2.15
706.092	-5.85
706.12	4.15
706.148	-11.85
706.176	3.15
706.204	5.15
706.231	-7.85
706.259	0.15
706.287	-1.85
706.315	10.15
706.342	6.15
706.37	17.15
706.398	12.15
706.426	-4.85
706.454	7.15
706.481	14.15
706.509	6.15
706.537	12.15
706.565	5.15
706.592	12.15
706.62	17.15
706.648	21.15
706.676	3.15
706.703	5.15
706.731	9.15
706.759	-0.85
706.787	18.15
706.814	8.15
706.842	6.15
706.87	12.15
706.897	11.15
706.925	22.15
706.953	14.15
706.981	22.15
707.008	19.15
707.036	14.15
707.064	-16.85
707.091	-10.85
707.119	10.15
707.147	0.15
707.174	23.15
707.202	5.15
707.23	-5.85
707.258	17.15
707.285	-15.85
707.313	2.15
707.341	-0.85
707.368	2.15
707.396	16.15
707.424	35.15
707.451	4.15
707.479	8.15
707.507	1.15
707.534	8.15
707.562	13.15
707.59	-10.85
707.617	-1.85
707.645	11.15
707.672	18.15
707.7	6.15
707.728	19.15
707.755	10.15
707.783	16.15
707.811	12.15
707.838	-3.85
707.866	-1.85
707.893	5.15
707.921	6.15
707.949	8.15
707.976	9.15
708.004	12.15
708.031	11.15
708.059	11.15
708.087	12.15
708.114	13.15
708.142	-5.85
708.169	-9.85
708.197	-5.85
708.225	-1.85
708.252	9.15
708.28	21.15
708.307	9.15
708.335	10.15
708.362	5.15
708.39	3.15
708.418	16.15
708.445	-0.85
708.473	2.15
708.5	0.15
708.528	11.15
708.555	10.15
708.583	16.15
708.61	2.15
708.638	8.15
708.665	1.15
708.693	-0.85
708.72	-1.85
708.748	-3.85
708.776	3.15
708.803	18.15
708.831	18.15
708.858	19.15
708.886	19.15
708.913	12.15
708.941	6.15
708.968	19.15
708.996	17.15
709.023	36.15
709.051	3.15
709.078	-0.85
709.105	6.15
709.133	8.15
709.16	4.15
709.188	17.15
709.215	7.15
709.243	15.15
709.27	-4.85
709.298	-3.85
709.325	3.15
709.353	5.15
709.38	-3.85
709.408	8.15
709.435	8.15
709.462	-1.85
709.49	9.15
709.517	-2.85
709.545	8.15
709.572	-1.85
709.6	7.15
709.627	7.15
709.655	1.15
709.682	-6.85
709.709	20.15
709.737	9.15
709.764	-6.85
709.792	18.15
709.819	5.15
709.846	-5.85
709.874	5.15
709.901	4.15
709.929	23.15
709.956	6.15
709.983	-6.85
710.011	3.15
710.038	-3.85
710.066	20.15
710.093	18.15
710.12	12.15
710.148	0.15
710.175	-6.85
710.202	-15.85
710.23	2.15
710.257	0.15
710.284	12.15
710.312	16.15
710.339	12.15
710.366	1.15
710.394	-10.85
710.421	-6.85
710.448	5.15
710.476	-2.85
710.503	9.15
710.53	22.15
710.558	11.15
710.585	22.15
710.612	2.15
710.64	-15.85
710.667	1.15
710.694	-3.85
710.722	1.15
710.749	3.15
710.776	11.15
710.804	5.15
710.831	-0.85
710.858	9.15
710.885	-0.85
710.913	1.15
710.94	14.15
710.967	9.15
710.995	11.15
711.022	-0.85
711.049	-1.85
711.076	-2.85
711.104	5.15
711.131	7.15
711.158	16.15
711.185	15.15
711.213	-2.85
711.24	10.15
711.267	4.15
711.294	4.15
711.322	17.15
711.349	8.15
711.376	-5.85
711.403	6.15
711.431	-11.85
711.458	-0.85
711.485	8.15
711.512	11.15
711.54	23.15
711.567	6.15
711.594	9.15
711.621	3.15
711.648	0.15
711.676	2.15
711.703	11.15
711.73	-6.85
711.757	6.15
711.784	7.15
711.812	4.15
711.839	9.15
711.866	0.15
711.893	16.15
711.92	1.15
711.947	11.15
711.975	17.15
712.002	10.15
712.029	4.15
712.056	2.15
712.083	21.15
712.11	-7.85
712.138	10.15
712.165	-0.85
712.192	-14.85
712.219	-4.85
712.246	-12.85
712.273	7.15
712.3	-17.85
712.328	-13.85
712.355	-0.85
712.382	-10.85
712.409	22.15
712.436	-3.85
712.463	26.15
712.49	11.15
712.517	5.15
712.544	9.15
712.572	11.15
712.599	-21.85
712.626	6.15
712.653	4.15
712.68	-0.85
712.707	17.15
712.734	9.15
712.761	13.15
712.788	21.15
712.815	14.15
712.842	19.15
712.87	6.15
712.897	1.15
712.924	7.15
712.951	16.15
712.978	25.15
713.005	22.15
713.032	23.15
713.059	2.15
713.086	5.15
713.113	4.15
713.14	-2.85
713.167	-5.85
713.194	10.15
713.221	3.15
713.248	24.15
713.275	6.15
713.302	-14.85
713.329	9.15
713.356	9.15
713.383	18.15
713.41	29.15
713.437	4.15
713.464	8.15
713.491	5.15
713.518	12.15
713.545	0.15
713.572	11.15
713.599	27.15
713.626	-6.85
713.653	16.15
713.68	0.15
713.707	4.15
713.734	8.15
713.761	11.15
713.788	-0.85
713.815	8.15
713.842	9.15
713.869	-1.85
713.896	2.15
713.923	16.15
713.95	7.15
713.977	-4.85
714.004	4.15
714.031	5.15
714.058	-0.85
714.085	-1.85
714.112	14.15
714.139	4.15
714.165	-1.85
714.192	-6.85
714.219	4.15
714.246	7.15
714.273	9.15
714.3	7.15
714.327	7.15
714.354	18.15
714.381	-0.85
714.408	11.15
714.435	2.15
714.461	4.15
714.488	13.15
714.515	12.15
714.542	0.15
714.569	-6.85
714.596	-9.85
714.623	-2.85
714.65	-14.85
714.677	-1.85
714.703	4.15
714.73	20.15
714.757	17.15
714.784	8.15
714.811	-6.85
714.838	8.15
714.865	-15.85
714.891	3.15
714.918	12.15
714.945	-2.85
714.972	1.15
714.999	27.15
715.026	4.15
715.052	16.15
715.079	3.15
715.106	-0.85
715.133	10.15
715.16	3.15
715.187	10.15
715.213	38.15
715.24	-11.85
715.267	3.15
715.294	8.15
715.321	1.15
715.347	-1.85
715.374	-15.85
715.401	-7.85
715.428	3.15
715.455	6.15
715.481	-8.85
715.508	16.15
715.535	6.15
715.562	27.15
715.588	8.15
715.615	-7.85
715.642	18.15
715.669	10.15
715.695	7.15
715.722	-11.85
715.749	6.15
715.776	31.15
715.802	5.15
715.829	1.15
715.856	-5.85
715.883	32.15
715.909	20.15
715.936	8.15
715.963	-0.85
715.99	-6.85
716.016	8.15
716.043	9.15
716.07	-3.85
716.096	-2.85
716.123	3.15
716.15	16.15
716.177	7.15
716.203	9.15
716.23	11.15
716.257	18.15
716.283	13.15
716.31	15.15
716.337	10.15
716.363	10.15
716.39	13.15
716.417	20.15
716.443	4.15
716.47	21.15
716.497	20.15
716.523	9.15
716.55	18.15
716.577	13.15
716.603	-3.85
716.63	16.15
716.657	20.15
716.683	3.15
716.71	8.15
716.737	6.15
716.763	12.15
716.79	13.15
716.817	23.15
716.843	13.15
716.87	-0.85
716.897	1.15
716.923	18.15
716.95	-1.85
716.976	-1.85
717.003	9.15
717.03	22.15
717.056	17.15
717.083	10.15
717.109	9.15
717.136	10.15
717.163	7.15
717.189	5.15
717.216	-5.85
717.242	0.15
717.269	9.15
717.296	20.15
717.322	22.15
717.349	17.15
717.375	19.15
717.402	8.15
717.428	4.15
717.455	21.15
717.481	12.15
717.508	14.15
717.535	10.15
717.561	8.15
717.588	-6.85
717.614	7.15
717.641	-7.85
717.667	12.15
717.694	18.15
717.72	18.15
717.747	-1.85
717.773	-5.85
717.8	21.15
717.826	1.15
717.853	9.15
717.88	15.15
717.906	15.15
717.933	13.15
717.959	19.15
717.986	8.15
718.012	-0.85
718.039	19.15
718.065	14.15
718.092	10.15
718.118	-6.85
718.144	-0.85
718.171	12.15
718.197	13.15
718.224	1.15
718.25	1.15
718.277	-5.85
718.303	-4.85
718.33	1.15
718.356	-1.85
718.383	5.15
718.409	10.15
718.436	10.15
718.462	2.15
718.489	-7.85
718.515	18.15
718.541	28.15
718.568	16.15
718.594	10.15
718.621	14.15
718.647	5.15
718.674	8.15
718.7	18.15
718.726	19.15
718.753	6.15
718.779	16.15
718.806	5.15
718.832	0.15
718.858	9.15
718.885	-4.85
718.911	-7.85
718.938	9.15
718.964	-0.85
718.99	12.15
719.017	9.15
719.043	10.15
719.07	13.15
719.096	4.15
719.122	6.15
719.149	13.15
719.175	21.15
719.201	5.15
719.228	-2.85
719.254	12.15
719.281	-2.85
719.307	-4.85
719.333	10.15
719.36	33.15
719.386	15.15
719.412	23.15
719.439	4.15
719.465	15.15
719.491	5.15
719.518	13.15
719.544	5.15
719.57	19.15
719.597	2.15
719.623	0.15
719.649	12.15
719.675	4.15
719.702	12.15
719.728	29.15
719.754	0.15
719.781	3.15
719.807	3.15
719.833	12.15
719.86	25.15
719.886	16.15
719.912	6.15
719.938	-0.85
719.965	9.15
719.991	0.15
720.017	1.15
720.044	1.15
720.07	3.15
720.096	14.15
720.122	8.15
720.149	27.15
720.175	23.15
720.201	2.15
720.227	-3.85
720.254	0.15
720.28	0.15
720.306	-7.85
720.332	5.15
720.359	5.15
720.385	5.15
720.411	19.15
720.437	5.15
720.463	1.15
720.49	15.15
720.516	0.15
720.542	-1.85
720.568	1.15
720.595	9.15
720.621	7.15
720.647	5.15
720.673	18.15
720.699	17.15
720.725	18.15
720.752	12.15
720.778	8.15
720.804	8.15
720.83	13.15
720.856	8.15
720.883	-7.85
720.909	1.15
720.935	16.15
720.961	11.15
720.987	20.15
721.013	18.15
721.04	-1.85
721.066	10.15
721.092	2.15
721.118	8.15
721.144	6.15
721.17	14.15
721.196	-0.85
721.223	-0.85
721.249	-1.85
721.275	12.15
721.301	1.15
721.327	27.15
721.353	8.15
721.379	9.15
721.405	12.15
721.432	17.15
721.458	6.15
721.484	17.15
721.51	-1.85
721.536	-0.85
721.562	6.15
721.588	10.15
721.614	-3.85
721.64	11.15
721.666	-5.85
721.693	6.15
721.719	-11.85
721.745	-1.85
721.771	-1.85
721.797	-3.85
721.823	7.15
721.849	11.15
721.875	6.15
721.901	8.15
721.927	2.15
721.953	2.15
721.979	14.15
722.005	19.15
722.031	5.15
722.057	6.15
722.083	4.15
722.109	14.15
722.135	7.15
722.161	16.15
722.187	14.15
722.214	9.15
722.24	6.15
722.266	9.15
722.292	17.15
722.318	33.15
722.344	3.15
722.37	-2.85
722.396	20.15
722.422	15.15
722.448	14.15
722.474	5.15
722.5	14.15
722.526	10.15
722.552	-14.85
722.578	-7.85
722.603	6.15
722.629	6.15
722.655	2.15
722.681	-5.85
722.707	7.15
722.733	0.15
722.759	-3.85
722.785	14.15
722.811	3.15
722.837	26.15
722.863	15.15
722.889	17.15
722.915	4.15
722.941	4.15
722.967	13.15
722.993	10.15
723.019	7.15
723.045	17.15
723.071	12.15
723.097	7.15
723.122	2.15
723.148	-0.85
723.174	4.15
723.2	4.15
723.226	1.15
723.252	3.15
723.278	11.15
723.304	9.15
723.33	12.15
723.356	-4.85
723.381	2.15
723.407	15.15
723.433	16.15
723.459	1.15
723.485	4.15
723.511	10.15
723.537	1.15
723.563	5.15
723.588	19.15
723.614	28.15
723.64	14.15
723.666	4.15
723.692	17.15
723.718	10.15
723.744	14.15
723.769	9.15
723.795	11.15
723.821	12.15
723.847	6.15
723.873	-0.85
723.899	21.15
723.924	-2.85
723.95	6.15
723.976	-7.85
724.002	-13.85
724.028	4.15
724.053	4.15
724.079	3.15
724.105	10.15
724.131	9.15
724.157	4.15
724.182	10.15
724.208	12.15
724.234	10.15
724.26	6.15
724.286	-0.85
724.311	10.15
724.337	6.15
724.363	3.15
724.389	5.15
724.415	11.15
724.44	11.15
724.466	4.15
724.492	23.15
724.518	18.15
724.543	-5.85
724.569	12.15
724.595	6.15
724.621	14.15
724.646	-2.85
724.672	6.15
724.698	0.15
724.723	-13.85
724.749	11.15
724.775	11.15
724.801	-6.85
724.826	3.15
724.852	-3.85
724.878	-3.85
724.904	-2.85
724.929	2.15
724.955	-8.85
724.981	1.15
725.006	0.15
725.032	10.15
725.058	8.15
725.083	4.15
725.109	-10.85
725.135	-3.85
725.161	9.15
725.186	2.15
725.212	4.15
725.238	6.15
725.263	5.15
725.289	-3.85
725.315	-21.85
725.34	12.15
725.366	13.15
725.392	8.15
725.417	-3.85
725.443	14.15
725.468	16.15
725.494	18.15
725.52	11.15
725.545	3.15
725.571	4.15
725.597	14.15
725.622	2.15
725.648	9.15
725.674	15.15
725.699	22.15
725.725	8.15
725.75	42.15
725.776	9.15
725.802	25.15
725.827	20.15
725.853	0.15
725.878	24.15
725.904	17.15
725.93	11.15
725.955	3.15
725.981	-3.85
726.006	4.15
726.032	14.15
726.057	7.15
726.083	5.15
726.109	9.15
726.134	19.15
726.16	10.15
726.185	12.15
726.211	-2.85
726.236	11.15
726.262	5.15
726.288	27.15
726.313	16.15
726.339	27.15
726.364	6.15
726.39	27.15
726.415	4.15
726.441	1.15
726.466	-12.85
726.492	4.15
726.517	3.15
726.543	16.15
726.568	-7.85
726.594	9.15
726.619	10.15
726.645	1.15
726.67	6.15
726.696	17.15
726.721	10.15
726.747	0.15
726.772	5.15
726.798	0.15
726.823	16.15
726.849	22.15
726.874	10.15
726.9	17.15
726.925	16.15
726.951	18.15
726.976	24.15
727.002	0.15
727.027	9.15
727.053	6.15
727.078	7.15
727.104	16.15
727.129	-2.85
727.155	4.15
727.18	6.15
727.205	9.15
727.231	-1.85
727.256	9.15
727.282	12.15
727.307	5.15
727.333	14.15
727.358	6.15
727.383	1.15
727.409	1.15
727.434	23.15
727.46	-2.85
727.485	-12.85
727.511	0.15
727.536	4.15
727.561	0.15
727.587	-6.85
727.612	6.15
727.637	15.15
727.663	0.15
727.688	28.15
727.714	9.15
727.739	3.15
727.764	15.15
727.79	10.15
727.815	-12.85
727.841	1.15
727.866	19.15
727.891	10.15
727.917	-4.85
727.942	-3.85
727.967	11.15
727.993	-5.85
728.018	-3.85
728.043	-6.85
728.069	2.15
728.094	19.15
728.119	10.15
728.145	25.15
728.17	12.15
728.195	24.15
728.221	19.15
728.246	2.15
728.271	-11.85
728.297	-6.85
728.322	-4.85
728.347	2.15
728.373	9.15
728.398	5.15
728.423	4.15
728.448	-7.85
728.474	6.15
728.499	24.15
728.524	-0.85
728.55	-7.85
728.575	1.15
728.6	17.15
728.625	5.15
728.651	23.15
728.676	5.15
728.701	16.15
728.727	9.15
728.752	-10.85
728.777	-14.85
728.802	0.15
728.828	19.15
728.853	15.15
728.878	5.15
728.903	-1.85
728.929	15.15
728.954	-5.85
728.979	28.15
729.004	13.15
729.03	5.15
729.055	13.15
729.08	-16.85
729.105	-9.85
729.13	18.15
729.156	8.15
729.181	4.15
729.206	1.15
729.231	2.15
729.256	9.15
729.282	-3.85
729.307	-6.85
729.332	3.15
729.357	-4.85
729.382	10.15
729.408	-3.85
729.433	-1.85
729.458	9.15
729.483	12.15
729.508	17.15
729.533	20.15
729.559	15.15
729.584	3.15
729.609	9.15
729.634	0.15
729.659	-2.85
729.684	0.15
729.71	25.15
729.735	-9.85
729.76	3.15
729.785	6.15
729.81	6.15
729.835	-3.85
729.86	-11.85
729.886	11.15
729.911	9.15
729.936	-3.85
729.961	13.15
729.986	-3.85
730.011	-9.85
730.036	-4.85
730.061	2.15
730.086	2.15
730.112	17.15
730.137	21.15
730.162	33.15
730.187	8.15
730.212	12.15
730.237	-6.85
730.262	4.15
730.287	4.15
730.312	6.15
730.337	-1.85
730.362	11.15
730.387	13.15
730.413	3.15
730.438	-6.85
730.463	12.15
730.488	8.15
730.513	0.15
730.538	-7.85
730.563	20.15
730.588	22.15
730.613	6.15
730.638	0.15
730.663	1.15
730.688	17.15
730.713	3.15
730.738	1.15
730.763	6.15
730.788	5.15
730.813	9.15
730.838	2.15
730.863	16.15
730.888	5.15
730.913	3.15
730.938	-3.85
730.963	15.15
730.988	8.15
731.013	29.15
731.038	11.15
731.063	-3.85
731.088	4.15
731.113	-0.85
731.138	18.15
731.163	4.15
731.188	9.15
731.213	9.15
731.238	1.15
731.263	6.15
731.288	6.15
731.313	3.15
731.338	9.15
731.363	8.15
731.388	18.15
731.413	6.15
731.438	15.15
731.463	15.15
731.487	13.15
731.512	17.15
731.537	9.15
731.562	-13.85
731.587	1.15
731.612	-1.85
731.637	0.15
731.662	-8.85
731.687	1.15
731.712	-17.85
731.737	8.15
731.762	6.15
731.786	6.15
731.811	22.15
731.836	2.15
731.861	-11.85
731.886	8.15
731.911	29.15
731.936	11.15
731.961	8.15
731.986	-9.85
732.01	-1.85
732.035	21.15
732.06	13.15
732.085	13.15
732.11	12.15
732.135	2.15
732.16	5.15
732.184	12.15
732.209	1.15
732.234	21.15
732.259	9.15
732.284	26.15
732.309	6.15
732.334	-5.85
732.358	5.15
732.383	0.15
732.408	3.15
732.433	4.15
732.458	3.15
732.482	8.15
732.507	-21.85
732.532	5.15
732.557	4.15
732.582	15.15
732.607	-4.85
732.631	-7.85
732.656	-2.85
732.681	2.15
732.706	2.15
732.73	15.15
732.755	8.15
732.78	4.15
732.805	-3.85
732.83	6.15
732.854	8.15
732.879	23.15
732.904	1.15
732.929	8.15
732.953	15.15
732.978	15.15
733.003	1.15
733.028	1.15
733.052	22.15
733.077	18.15
733.102	9.15
733.127	12.15
733.151	6.15
733.176	13.15
733.201	5.15
733.226	-4.85
733.25	16.15
733.275	7.15
733.3	10.15
733.324	21.15
733.349	13.15
733.374	17.15
733.399	10.15
733.423	8.15
733.448	6.15
733.473	0.15
733.497	2.15
733.522	1.15
733.547	18.15
733.571	13.15
733.596	10.15
733.621	12.15
733.646	0.15
733.67	7.15
733.695	5.15
733.72	17.15
733.744	17.15
733.769	-2.85
733.794	13.15
733.818	10.15
733.843	-1.85
733.867	0.15
733.892	10.15
733.917	1.15
733.941	1.15
733.966	-1.85
733.991	1.15
734.015	26.15
734.04	12.15
734.065	14.15
734.089	12.15
734.114	-1.85
734.138	12.15
734.163	6.15
734.188	14.15
734.212	11.15
734.237	29.15
734.261	8.15
734.286	-6.85
734.311	3.15
734.335	5.15
734.36	13.15
734.384	10.15
734.409	5.15
734.434	1.15
734.458	4.15
734.483	10.15
734.507	1.15
734.532	6.15
734.556	13.15
734.581	11.15
734.606	16.15
734.63	12.15
734.655	21.15
734.679	17.15
734.704	11.15
734.728	12.15
734.753	1.15
734.777	-4.85
734.802	-4.85
734.826	3.15
734.851	27.15
734.876	22.15
734.9	21.15
734.925	4.15
734.949	20.15
734.974	9.15
734.998	22.15
735.023	2.15
735.047	-5.85
735.072	13.15
735.096	6.15
735.121	11.15
735.145	29.15
735.17	20.15
735.194	21.15
735.219	6.15
735.243	-0.85
735.268	6.15
735.292	-2.85
735.317	5.15
735.341	18.15
735.365	-11.85
735.39	5.15
735.414	12.15
735.439	-4.85
735.463	-0.85
735.488	-1.85
735.512	8.15
735.537	10.15
735.561	-4.85
735.586	8.15
735.61	11.15
735.634	-18.85
735.659	-6.85
735.683	22.15
735.708	14.15
735.732	11.15
735.757	8.15
735.781	16.15
735.805	19.15
735.83	-0.85
735.854	8.15
735.879	20.15
735.903	16.15
735.927	6.15
735.952	16.15
735.976	-1.85
736.001	19.15
736.025	4.15
736.049	14.15
736.074	19.15
736.098	10.15
736.123	16.15
736.147	11.15
736.171	-9.85
736.196	16.15
736.22	8.15
736.244	8.15
736.269	18.15
736.293	8.15
736.317	1.15
736.342	4.15
736.366	13.15
736.39	17.15
736.415	4.15
736.439	6.15
736.463	5.15
736.488	16.15
736.512	15.15
736.536	8.15
736.561	22.15
736.585	4.15
736.609	17.15
736.634	3.15
736.658	0.15
736.682	1.15
736.707	-0.85
736.731	9.15
736.755	11.15
736.78	19.15
736.804	23.15
736.828	11.15
736.852	4.15
736.877	-5.85
736.901	2.15
736.925	5.15
736.949	4.15
736.974	7.15
736.998	5.15
737.022	13.15
737.047	0.15
737.071	7.15
737.095	6.15
737.119	34.15
737.144	24.15
737.168	10.15
737.192	8.15
737.216	9.15
737.241	3.15
737.265	0.15
737.289	2.15
737.313	15.15
737.337	25.15
737.362	3.15
737.386	0.15
737.41	3.15
737.434	20.15
737.459	10.15
737.483	20.15
737.507	9.15
737.531	19.15
737.555	12.15
737.58	8.15
737.604	9.15
737.628	2.15
737.652	-12.85
737.676	11.15
737.701	16.15
737.725	15.15
737.749	19.15
737.773	10.15
737.797	-3.85
737.821	13.15
737.846	6.15
737.87	28.15
737.894	5.15
737.918	2.15
737.942	6.15
737.966	18.15
737.99	29.15
738.015	24.15
738.039	3.15
738.063	9.15
738.087	16.15
738.111	9.15
738.135	12.15
738.159	2.15
738.184	4.15
738.208	14.15
738.232	22.15
738.256	28.15
738.28	21.15
738.304	18.15
738.328	-5.85
738.352	2.15
738.376	19.15
738.4	19.15
738.425	14.15
738.449	6.15
738.473	10.15
738.497	9.15
738.521	4.15
738.545	6.15
738.569	17.15
738.593	20.15
738.617	16.15
738.641	4.15
738.665	14.15
738.689	14.15
738.713	4.15
738.737	4.15
738.762	19.15
738.786	0.15
738.81	-6.85
738.834	28.15
738.858	17.15
738.882	18.15
738.906	8.15
738.93	19.15
738.954	13.15
738.978	9.15
739.002	-3.85
739.026	18.15
739.05	23.15
739.074	7.15
739.098	18.15
739.122	15.15
739.146	7.15
739.17	17.15
739.194	19.15
739.218	-6.85
739.242	-5.85
739.266	1.15
739.29	6.15
739.314	20.15
739.338	12.15
739.362	14.15
739.386	10.15
739.41	-6.85
739.434	-1.85
739.458	27.15
739.482	11.15
739.506	16.15
739.53	-6.85
739.554	20.15
739.577	6.15
739.601	24.15
739.625	4.15
739.649	6.15
739.673	1.15
739.697	20.15
739.721	-6.85
739.745	9.15
739.769	11.15
739.793	6.15
739.817	28.15
739.841	-4.85
739.865	5.15
739.889	0.15
739.912	5.15
739.936	4.15
739.96	8.15
739.984	24.15
740.008	18.15
740.032	13.15
740.056	3.15
740.08	14.15
740.104	14.15
740.127	14.15
740.151	18.15
740.175	18.15
740.199	5.15
740.223	37.15
740.247	14.15
740.271	5.15
740.295	6.15
740.318	-11.85
740.342	4.15
740.366	26.15
740.39	11.15
740.414	13.15
740.438	8.15
740.461	31.15
740.485	5.15
740.509	-10.85
740.533	30.15
740.557	10.15
740.581	1.15
740.604	-13.85
740.628	5.15
740.652	7.15
740.676	9.15
740.7	11.15
740.723	8.15
740.747	5.15
740.771	11.15
740.795	1.15
740.819	2.15
740.842	7.15
740.866	10.15
740.89	16.15
740.914	2.15
740.938	-5.85
740.961	10.15
740.985	13.15
741.009	15.15
741.033	6.15
741.056	12.15
741.08	3.15
741.104	9.15
741.128	-3.85
741.151	1.15
741.175	14.15
741.199	2.15
741.223	14.15
741.246	-8.85
741.27	15.15
741.294	28.15
741.318	12.15
741.341	-2.85
741.365	12.15
741.389	12.15
741.413	15.15
741.436	32.15
741.46	7.15
741.484	11.15
741.507	6.15
741.531	27.15
741.555	9.15
741.579	9.15
741.602	14.15
741.626	17.15
741.65	6.15
741.673	14.15
741.697	17.15
741.721	-3.85
741.744	-13.85
741.768	1.15
741.792	11.15
741.815	5.15
741.839	16.15
741.863	28.15
741.886	24.15
741.91	13.15
741.934	18.15
741.957	-6.85
741.981	22.15
742.005	16.15
742.028	5.15
742.052	0.15
742.075	22.15
742.099	16.15
742.123	18.15
742.146	-1.85
742.17	-1.85
742.194	1.15
742.217	13.15
742.241	-3.85
742.264	16.15
742.288	30.15
742.312	11.15
742.335	5.15
742.359	1.15
742.382	4.15
742.406	17.15
742.43	-8.85
742.453	9.15
742.477	-10.85
742.5	17.15
742.524	-5.85
742.548	-16.85
742.571	-16.85
742.595	11.15
742.618	3.15
742.642	2.15
742.665	26.15
742.689	1.15
742.712	12.15
742.736	6.15
742.76	5.15
742.783	6.15
742.807	13.15
742.83	13.15
742.854	1.15
742.877	8.15
742.901	4.15
742.924	4.15
742.948	15.15
742.971	11.15
742.995	19.15
743.018	-2.85
743.042	-10.85
743.065	-1.85
743.089	3.15
743.112	17.15
743.136	-3.85
743.159	16.15
743.183	9.15
743.206	12.15
743.23	-13.85
743.253	13.15
743.277	13.15
743.3	-2.85
743.324	-13.85
743.347	-2.85
743.371	28.15
743.394	22.15
743.418	28.15
743.441	18.15
743.465	8.15
743.488	9.15
743.512	8.15
743.535	9.15
743.558	3.15
743.582	8.15
743.605	9.15
743.629	17.15
743.652	1.15
743.676	3.15
743.699	10.15
743.723	14.15
743.746	6.15
743.769	1.15
743.793	26.15
743.816	4.15
743.84	21.15
743.863	-13.85
743.886	-3.85
743.91	-3.85
743.933	4.15
743.957	14.15
743.98	1.15
744.003	-2.85
744.027	8.15
744.05	2.15
744.074	7.15
744.097	1.15
744.12	6.15
744.144	-0.85
744.167	9.15
744.19	8.15
744.214	10.15
744.237	-3.85
744.26	16.15
744.284	-3.85
744.307	-2.85
744.331	-3.85
744.354	-9.85
744.377	3.15
744.401	7.15
744.424	1.15
744.447	-7.85
744.471	3.15
