Data from HighRes_H2D2_15_04_11_07_2024_HR4C61891__74__15-05-41-843.txt Node

Date: Thu Nov 07 15:05:41 EST 2024
User: crc00042
Spectrometer: HR4C6189
Trigger mode: 4
Integration Time (sec): 1.000000E-1
Scans to average: 1
Electric dark correction enabled: true
Nonlinearity correction enabled: false
Boxcar width: 0
XAxis mode: Wavelengths
Number of Pixels in Spectrum: 3648
>>>>>Begin Spectral Data<<<<<
639.567	-78.69
639.602	-78.69
639.636	-78.69
639.67	-52.69
639.704	-22.69
639.738	-18.69
639.773	10.31
639.807	-25.69
639.841	12.31
639.875	19.31
639.909	4.31
639.943	-5.69
639.978	-4.69
640.012	-0.69
640.046	15.31
640.08	7.31
640.114	-10.69
640.148	-2.69
640.182	-12.69
640.217	-0.69
640.251	20.31
640.285	8.31
640.319	-2.69
640.353	-8.69
640.387	2.31
640.421	5.31
640.455	-7.69
640.49	-1.69
640.524	-10.69
640.558	14.31
640.592	10.31
640.626	-9.69
640.66	13.31
640.694	-7.69
640.728	5.31
640.762	15.31
640.796	17.31
640.83	-1.69
640.865	-13.69
640.899	7.31
640.933	-2.69
640.967	1.31
641.001	1.31
641.035	8.31
641.069	-12.69
641.103	-10.69
641.137	-11.69
641.171	-6.69
641.205	0.31
641.239	-5.69
641.273	8.31
641.307	-4.69
641.341	-9.69
641.375	2.31
641.409	-0.69
641.443	2.31
641.477	4.31
641.511	-3.69
641.545	-13.69
641.579	-18.69
641.614	4.31
641.648	7.31
641.682	-13.69
641.716	-14.69
641.75	14.31
641.784	4.31
641.818	-7.69
641.852	-13.69
641.886	-4.69
641.919	7.31
641.953	4.31
641.987	-10.69
642.021	-0.69
642.055	2.31
642.089	-8.69
642.123	-6.69
642.157	-18.69
642.191	8.31
642.225	8.31
642.259	2.31
642.293	11.31
642.327	-4.69
642.361	-19.69
642.395	3.31
642.429	1.31
642.463	7.31
642.497	17.31
642.531	8.31
642.565	-16.69
642.599	10.31
642.633	-14.69
642.666	14.31
642.7	22.31
642.734	10.31
642.768	-22.69
642.802	-4.69
642.836	6.31
642.87	-5.69
642.904	15.31
642.938	3.31
642.972	7.31
643.005	11.31
643.039	28.31
643.073	6.31
643.107	4.31
643.141	-5.69
643.175	-2.69
643.209	-0.69
643.243	3.31
643.276	5.31
643.31	-9.69
643.344	5.31
643.378	0.31
643.412	2.31
643.446	10.31
643.48	-7.69
643.513	11.31
643.547	-4.69
643.581	-4.69
643.615	0.31
643.649	-7.69
643.683	-16.69
643.716	-11.69
643.75	7.31
643.784	-11.69
643.818	1.31
643.852	-9.69
643.886	2.31
643.919	-1.69
643.953	-5.69
643.987	2.31
644.021	12.31
644.055	6.31
644.088	-8.69
644.122	-6.69
644.156	-9.69
644.19	3.31
644.224	7.31
644.257	7.31
644.291	7.31
644.325	-3.69
644.359	-22.69
644.392	10.31
644.426	5.31
644.46	2.31
644.494	9.31
644.527	-7.69
644.561	2.31
644.595	-1.69
644.629	3.31
644.662	6.31
644.696	26.31
644.73	-13.69
644.764	4.31
644.797	5.31
644.831	-1.69
644.865	8.31
644.899	3.31
644.932	7.31
644.966	0.31
645	7.31
645.033	2.31
645.067	-9.69
645.101	-0.69
645.135	12.31
645.168	3.31
645.202	-12.69
645.236	2.31
645.269	0.31
645.303	0.31
645.337	-11.69
645.37	-6.69
645.404	-2.69
645.438	-8.69
645.471	-1.69
645.505	6.31
645.539	0.31
645.572	-20.69
645.606	-12.69
645.64	-6.69
645.673	3.31
645.707	9.31
645.741	-7.69
645.774	-0.69
645.808	5.31
645.842	-5.69
645.875	5.31
645.909	-8.69
645.943	5.31
645.976	4.31
646.01	4.31
646.043	-4.69
646.077	-5.69
646.111	2.31
646.144	1.31
646.178	17.31
646.212	-3.69
646.245	-1.69
646.279	-1.69
646.312	2.31
646.346	4.31
646.38	6.31
646.413	-2.69
646.447	-4.69
646.48	8.31
646.514	-6.69
646.547	0.31
646.581	9.31
646.615	8.31
646.648	-4.69
646.682	7.31
646.715	-6.69
646.749	8.31
646.782	5.31
646.816	-1.69
646.85	8.31
646.883	1.31
646.917	10.31
646.95	9.31
646.984	12.31
647.017	-7.69
647.051	-11.69
647.084	4.31
647.118	-14.69
647.151	1.31
647.185	-13.69
647.218	-30.69
647.252	2.31
647.285	-12.69
647.319	-11.69
647.353	11.31
647.386	13.31
647.42	-5.69
647.453	-18.69
647.487	-3.69
647.52	-4.69
647.553	0.31
647.587	0.31
647.62	-2.69
647.654	-3.69
647.687	3.31
647.721	6.31
647.754	-8.69
647.788	-7.69
647.821	-13.69
647.855	14.31
647.888	3.31
647.922	-6.69
647.955	14.31
647.989	-4.69
648.022	2.31
648.055	10.31
648.089	8.31
648.122	13.31
648.156	-8.69
648.189	7.31
648.223	13.31
648.256	20.31
648.29	6.31
648.323	6.31
648.356	14.31
648.39	2.31
648.423	7.31
648.457	1.31
648.49	20.31
648.523	-2.69
648.557	-9.69
648.59	-10.69
648.624	-17.69
648.657	-6.69
648.69	6.31
648.724	-7.69
648.757	9.31
648.791	4.31
648.824	11.31
648.857	16.31
648.891	0.31
648.924	2.31
648.957	10.31
648.991	-17.69
649.024	11.31
649.057	-2.69
649.091	-1.69
649.124	11.31
649.158	14.31
649.191	23.31
649.224	10.31
649.258	-1.69
649.291	12.31
649.324	14.31
649.358	6.31
649.391	7.31
649.424	4.31
649.458	-7.69
649.491	3.31
649.524	-21.69
649.557	-21.69
649.591	-22.69
649.624	15.31
649.657	-5.69
649.691	11.31
649.724	4.31
649.757	-13.69
649.791	-37.69
649.824	5.31
649.857	19.31
649.89	2.31
649.924	-18.69
649.957	-17.69
649.99	1.31
650.023	5.31
650.057	-2.69
650.09	5.31
650.123	14.31
650.157	3.31
650.19	19.31
650.223	-2.69
650.256	-21.69
650.29	-16.69
650.323	-8.69
650.356	13.31
650.389	0.31
650.423	1.31
650.456	-5.69
650.489	-4.69
650.522	-0.69
650.555	15.31
650.589	16.31
650.622	7.31
650.655	-0.69
650.688	16.31
650.721	-0.69
650.755	13.31
650.788	21.31
650.821	-4.69
650.854	-12.69
650.887	-18.69
650.921	-6.69
650.954	-13.69
650.987	8.31
651.02	4.31
651.053	0.31
651.087	-20.69
651.12	14.31
651.153	-7.69
651.186	1.31
651.219	-8.69
651.252	10.31
651.286	21.31
651.319	-2.69
651.352	-2.69
651.385	2.31
651.418	-7.69
651.451	8.31
651.484	13.31
651.518	-12.69
651.551	2.31
651.584	-14.69
651.617	13.31
651.65	5.31
651.683	-0.69
651.716	-3.69
651.749	-22.69
651.783	5.31
651.816	-0.69
651.849	9.31
651.882	-25.69
651.915	-7.69
651.948	11.31
651.981	-13.69
652.014	-14.69
652.047	-9.69
652.08	-1.69
652.114	-1.69
652.147	-4.69
652.18	2.31
652.213	33.31
652.246	-3.69
652.279	-10.69
652.312	5.31
652.345	2.31
652.378	13.31
652.411	19.31
652.444	6.31
652.477	2.31
652.51	-10.69
652.543	-9.69
652.576	-13.69
652.609	-0.69
652.642	1.31
652.675	12.31
652.709	2.31
652.742	10.31
652.775	10.31
652.808	18.31
652.841	5.31
652.874	4.31
652.907	-3.69
652.94	2.31
652.973	-13.69
653.006	-13.69
653.039	-21.69
653.072	-6.69
653.105	-11.69
653.138	-2.69
653.171	-7.69
653.204	-9.69
653.237	2.31
653.27	-13.69
653.303	-9.69
653.336	-3.69
653.368	-16.69
653.401	8.31
653.434	-1.69
653.467	4.31
653.5	-23.69
653.533	-23.69
653.566	10.31
653.599	-1.69
653.632	-5.69
653.665	14.31
653.698	-3.69
653.731	-10.69
653.764	-9.69
653.797	-0.69
653.83	10.31
653.863	4.31
653.896	-3.69
653.929	-9.69
653.961	-1.69
653.994	-0.69
654.027	-25.69
654.06	9.31
654.093	7.31
654.126	-0.69
654.159	-8.69
654.192	14.31
654.225	-4.69
654.258	1.31
654.29	5.31
654.323	8.31
654.356	-9.69
654.389	-4.69
654.422	3.31
654.455	8.31
654.488	-2.69
654.521	-19.69
654.553	-17.69
654.586	2.31
654.619	-3.69
654.652	-3.69
654.685	3.31
654.718	-13.69
654.751	15.31
654.783	-10.69
654.816	-3.69
654.849	-6.69
654.882	-13.69
654.915	-21.69
654.948	-9.69
654.98	-1.69
655.013	4.31
655.046	-9.69
655.079	-23.69
655.112	2.31
655.144	-16.69
655.177	11.31
655.21	17.31
655.243	32.31
655.276	13.31
655.308	-0.69
655.341	-12.69
655.374	-0.69
655.407	-5.69
655.44	-13.69
655.472	4.31
655.505	0.31
655.538	1.31
655.571	-3.69
655.603	-9.69
655.636	12.31
655.669	15.31
655.702	5.31
655.734	-12.69
655.767	-12.69
655.8	9.31
655.833	15.31
655.865	14.31
655.898	2.31
655.931	11.31
655.964	14.31
655.996	20.31
656.029	20.31
656.062	25.31
656.095	51.31
656.127	76.31
656.16	205.31
656.193	615.31
656.225	935.31
656.258	537.31
656.291	202.31
656.324	171.31
656.356	346.31
656.389	750.31
656.422	647.31
656.454	220.31
656.487	78.31
656.52	37.31
656.552	11.31
656.585	0.31
656.618	26.31
656.65	9.31
656.683	-3.69
656.716	3.31
656.748	-1.69
656.781	-5.69
656.814	5.31
656.846	-0.69
656.879	19.31
656.912	6.31
656.944	-14.69
656.977	-12.69
657.01	6.31
657.042	0.31
657.075	12.31
657.108	-10.69
657.14	4.31
657.173	30.31
657.205	32.31
657.238	-0.69
657.271	-5.69
657.303	-14.69
657.336	-5.69
657.369	4.31
657.401	4.31
657.434	-3.69
657.466	19.31
657.499	2.31
657.532	-9.69
657.564	5.31
657.597	-4.69
657.629	12.31
657.662	-10.69
657.694	6.31
657.727	-5.69
657.76	10.31
657.792	-0.69
657.825	-10.69
657.857	5.31
657.89	-6.69
657.922	-8.69
657.955	-2.69
657.987	10.31
658.02	22.31
658.053	0.31
658.085	-6.69
658.118	4.31
658.15	12.31
658.183	9.31
658.215	-2.69
658.248	9.31
658.28	-12.69
658.313	25.31
658.345	9.31
658.378	5.31
658.41	-5.69
658.443	10.31
658.475	9.31
658.508	-19.69
658.54	-2.69
658.573	1.31
658.605	-1.69
658.638	-20.69
658.67	1.31
658.703	-1.69
658.735	1.31
658.768	1.31
658.8	-19.69
658.833	11.31
658.865	-3.69
658.898	-6.69
658.93	5.31
658.963	-4.69
658.995	-11.69
659.028	-10.69
659.06	-2.69
659.092	-4.69
659.125	5.31
659.157	6.31
659.19	-10.69
659.222	-9.69
659.255	5.31
659.287	2.31
659.32	7.31
659.352	4.31
659.384	6.31
659.417	7.31
659.449	7.31
659.482	7.31
659.514	-9.69
659.546	-6.69
659.579	-10.69
659.611	14.31
659.644	7.31
659.676	-2.69
659.708	-4.69
659.741	-10.69
659.773	-12.69
659.806	-8.69
659.838	-7.69
659.87	-8.69
659.903	-6.69
659.935	-0.69
659.967	2.31
660	3.31
660.032	-19.69
660.065	14.31
660.097	-6.69
660.129	-8.69
660.162	-19.69
660.194	-7.69
660.226	5.31
660.259	6.31
660.291	-1.69
660.323	-20.69
660.356	-2.69
660.388	-10.69
660.42	8.31
660.453	7.31
660.485	10.31
660.517	8.31
660.55	7.31
660.582	-4.69
660.614	8.31
660.647	-2.69
660.679	-40.69
660.711	-3.69
660.743	-17.69
660.776	-9.69
660.808	1.31
660.84	3.31
660.873	-0.69
660.905	-11.69
660.937	-4.69
660.969	-9.69
661.002	-6.69
661.034	16.31
661.066	-6.69
661.099	2.31
661.131	10.31
661.163	14.31
661.195	15.31
661.228	19.31
661.26	-16.69
661.292	-17.69
661.324	-6.69
661.357	-1.69
661.389	2.31
661.421	-8.69
661.453	-13.69
661.485	10.31
661.518	5.31
661.55	-15.69
661.582	-17.69
661.614	-2.69
661.647	7.31
661.679	2.31
661.711	-9.69
661.743	-21.69
661.775	-2.69
661.808	21.31
661.84	1.31
661.872	9.31
661.904	7.31
661.936	-1.69
661.969	-9.69
662.001	-13.69
662.033	-5.69
662.065	1.31
662.097	10.31
662.129	4.31
662.162	-4.69
662.194	3.31
662.226	-6.69
662.258	-4.69
662.29	-7.69
662.322	-5.69
662.355	-11.69
662.387	7.31
662.419	17.31
662.451	9.31
662.483	15.31
662.515	3.31
662.547	4.31
662.58	4.31
662.612	-21.69
662.644	4.31
662.676	-6.69
662.708	16.31
662.74	18.31
662.772	8.31
662.804	6.31
662.836	12.31
662.869	-8.69
662.901	-0.69
662.933	0.31
662.965	8.31
662.997	-9.69
663.029	-11.69
663.061	-7.69
663.093	1.31
663.125	8.31
663.157	0.31
663.189	-4.69
663.221	11.31
663.254	4.31
663.286	8.31
663.318	-26.69
663.35	-24.69
663.382	-8.69
663.414	1.31
663.446	7.31
663.478	-4.69
663.51	8.31
663.542	2.31
663.574	1.31
663.606	6.31
663.638	-1.69
663.67	-9.69
663.702	-0.69
663.734	3.31
663.766	-5.69
663.798	-12.69
663.83	1.31
663.862	4.31
663.894	8.31
663.926	-2.69
663.958	7.31
663.99	-2.69
664.022	-11.69
664.054	10.31
664.086	-17.69
664.118	-12.69
664.15	-21.69
664.182	-6.69
664.214	-15.69
664.246	9.31
664.278	-3.69
664.31	-1.69
664.342	2.31
664.374	-11.69
664.406	-9.69
664.438	-8.69
664.47	13.31
664.502	1.31
664.534	-1.69
664.566	-6.69
664.598	10.31
664.63	-12.69
664.662	4.31
664.693	1.31
664.725	0.31
664.757	1.31
664.789	-12.69
664.821	-4.69
664.853	13.31
664.885	-15.69
664.917	-21.69
664.949	26.31
664.981	25.31
665.013	7.31
665.045	-11.69
665.076	-3.69
665.108	1.31
665.14	-9.69
665.172	-1.69
665.204	-5.69
665.236	-0.69
665.268	5.31
665.3	-2.69
665.331	-1.69
665.363	-4.69
665.395	-32.69
665.427	-25.69
665.459	11.31
665.491	-13.69
665.523	-3.69
665.555	1.31
665.586	7.31
665.618	-14.69
665.65	-24.69
665.682	-3.69
665.714	7.31
665.746	6.31
665.777	-1.69
665.809	-13.69
665.841	-6.69
665.873	-13.69
665.905	5.31
665.937	18.31
665.968	-9.69
666	-4.69
666.032	-8.69
666.064	-2.69
666.096	-2.69
666.127	-10.69
666.159	-1.69
666.191	-11.69
666.223	-0.69
666.255	14.31
666.286	5.31
666.318	-3.69
666.35	13.31
666.382	2.31
666.413	1.31
666.445	-16.69
666.477	-14.69
666.509	-10.69
666.54	0.31
666.572	1.31
666.604	-14.69
666.636	15.31
666.667	11.31
666.699	9.31
666.731	-1.69
666.763	-8.69
666.794	7.31
666.826	7.31
666.858	-27.69
666.89	2.31
666.921	3.31
666.953	2.31
666.985	12.31
667.017	16.31
667.048	-0.69
667.08	-2.69
667.112	-12.69
667.143	-16.69
667.175	10.31
667.207	16.31
667.238	8.31
667.27	-6.69
667.302	-10.69
667.334	-12.69
667.365	24.31
667.397	-0.69
667.429	8.31
667.46	8.31
667.492	-1.69
667.524	-18.69
667.555	2.31
667.587	-4.69
667.619	-9.69
667.65	-19.69
667.682	10.31
667.714	2.31
667.745	11.31
667.777	-16.69
667.808	-5.69
667.84	-1.69
667.872	-7.69
667.903	14.31
667.935	5.31
667.967	-10.69
667.998	-8.69
668.03	-3.69
668.061	0.31
668.093	-14.69
668.125	3.31
668.156	8.31
668.188	-0.69
668.22	-3.69
668.251	21.31
668.283	15.31
668.314	6.31
668.346	-14.69
668.377	-10.69
668.409	-4.69
668.441	23.31
668.472	3.31
668.504	-9.69
668.535	16.31
668.567	20.31
668.599	-7.69
668.63	3.31
668.662	8.31
668.693	25.31
668.725	-4.69
668.756	8.31
668.788	-16.69
668.819	-0.69
668.851	4.31
668.882	4.31
668.914	-11.69
668.946	-8.69
668.977	-8.69
669.009	-14.69
669.04	-7.69
669.072	6.31
669.103	-1.69
669.135	-4.69
669.166	-7.69
669.198	9.31
669.229	4.31
669.261	-10.69
669.292	-17.69
669.324	3.31
669.355	15.31
669.387	-12.69
669.418	-5.69
669.45	-12.69
669.481	11.31
669.513	0.31
669.544	-12.69
669.576	-19.69
669.607	3.31
669.639	0.31
669.67	-18.69
669.701	5.31
669.733	-13.69
669.764	-3.69
669.796	-8.69
669.827	-7.69
669.859	-21.69
669.89	-1.69
669.922	7.31
669.953	14.31
669.985	5.31
670.016	3.31
670.047	9.31
670.079	-0.69
670.11	3.31
670.142	-5.69
670.173	-4.69
670.204	-2.69
670.236	-0.69
670.267	-10.69
670.299	4.31
670.33	4.31
670.362	4.31
670.393	-28.69
670.424	-0.69
670.456	-15.69
670.487	-15.69
670.518	-23.69
670.55	-22.69
670.581	-2.69
670.613	-3.69
670.644	-19.69
670.675	-13.69
670.707	-16.69
670.738	6.31
670.769	-0.69
670.801	-8.69
670.832	4.31
670.864	-3.69
670.895	5.31
670.926	1.31
670.958	-9.69
670.989	-11.69
671.02	-9.69
671.052	2.31
671.083	-7.69
671.114	9.31
671.146	2.31
671.177	6.31
671.208	-10.69
671.24	-20.69
671.271	-5.69
671.302	17.31
671.333	-8.69
671.365	-24.69
671.396	4.31
671.427	5.31
671.459	-8.69
671.49	-0.69
671.521	6.31
671.553	9.31
671.584	15.31
671.615	-10.69
671.646	-3.69
671.678	5.31
671.709	-13.69
671.74	-0.69
671.771	-1.69
671.803	-6.69
671.834	6.31
671.865	-10.69
671.896	3.31
671.928	-16.69
671.959	-26.69
671.99	-18.69
672.021	7.31
672.053	-13.69
672.084	16.31
672.115	7.31
672.146	-13.69
672.178	-17.69
672.209	-14.69
672.24	-1.69
672.271	27.31
672.303	15.31
672.334	2.31
672.365	-11.69
672.396	-12.69
672.427	10.31
672.459	7.31
672.49	36.31
672.521	2.31
672.552	2.31
672.583	12.31
672.615	-0.69
672.646	-1.69
672.677	-10.69
672.708	-9.69
672.739	-13.69
672.77	-10.69
672.802	11.31
672.833	-5.69
672.864	-7.69
672.895	2.31
672.926	2.31
672.957	-14.69
672.989	9.31
673.02	11.31
673.051	-4.69
673.082	22.31
673.113	-5.69
673.144	8.31
673.175	17.31
673.206	2.31
673.238	-0.69
673.269	8.31
673.3	-12.69
673.331	3.31
673.362	9.31
673.393	5.31
673.424	12.31
673.455	20.31
673.487	-0.69
673.518	-0.69
673.549	18.31
673.58	8.31
673.611	-12.69
673.642	-1.69
673.673	-16.69
673.704	-5.69
673.735	-2.69
673.766	10.31
673.797	-6.69
673.828	-2.69
673.86	-2.69
673.891	-5.69
673.922	-4.69
673.953	-2.69
673.984	1.31
674.015	7.31
674.046	-8.69
674.077	-9.69
674.108	1.31
674.139	-3.69
674.17	-10.69
674.201	10.31
674.232	-6.69
674.263	-9.69
674.294	1.31
674.325	3.31
674.356	-0.69
674.387	6.31
674.418	6.31
674.449	2.31
674.48	6.31
674.511	-4.69
674.542	2.31
674.573	-11.69
674.604	14.31
674.635	-4.69
674.666	3.31
674.697	-7.69
674.728	-7.69
674.759	-5.69
674.79	-3.69
674.821	-6.69
674.852	3.31
674.883	-4.69
674.914	-6.69
674.945	-5.69
674.976	6.31
675.007	-5.69
675.038	-12.69
675.069	5.31
675.1	1.31
675.131	-6.69
675.162	-30.69
675.193	-3.69
675.224	-1.69
675.254	-3.69
675.285	3.31
675.316	5.31
675.347	8.31
675.378	-11.69
675.409	-6.69
675.44	13.31
675.471	-1.69
675.502	-16.69
675.533	-11.69
675.564	9.31
675.595	6.31
675.625	14.31
675.656	13.31
675.687	5.31
675.718	-11.69
675.749	9.31
675.78	5.31
675.811	-14.69
675.842	2.31
675.873	-0.69
675.903	1.31
675.934	1.31
675.965	-18.69
675.996	-23.69
676.027	13.31
676.058	-8.69
676.089	-14.69
676.119	5.31
676.15	15.31
676.181	-6.69
676.212	-8.69
676.243	11.31
676.274	-8.69
676.304	15.31
676.335	-6.69
676.366	1.31
676.397	-3.69
676.428	-5.69
676.459	-7.69
676.489	5.31
676.52	-13.69
676.551	-3.69
676.582	-6.69
676.613	-0.69
676.643	4.31
676.674	-1.69
676.705	-1.69
676.736	6.31
676.767	2.31
676.797	7.31
676.828	-13.69
676.859	-9.69
676.89	6.31
676.92	13.31
676.951	16.31
676.982	8.31
677.013	5.31
677.044	9.31
677.074	0.31
677.105	-12.69
677.136	8.31
677.167	10.31
677.197	9.31
677.228	-5.69
677.259	-11.69
677.289	-18.69
677.32	-16.69
677.351	-11.69
677.382	-12.69
677.412	-5.69
677.443	5.31
677.474	3.31
677.505	0.31
677.535	2.31
677.566	9.31
677.597	-2.69
677.627	-10.69
677.658	2.31
677.689	12.31
677.72	6.31
677.75	-4.69
677.781	-5.69
677.812	7.31
677.842	5.31
677.873	-10.69
677.904	-0.69
677.934	-6.69
677.965	-6.69
677.996	-11.69
678.026	5.31
678.057	2.31
678.088	-20.69
678.118	-7.69
678.149	-5.69
678.18	-5.69
678.21	11.31
678.241	6.31
678.272	-3.69
678.302	-8.69
678.333	-5.69
678.363	6.31
678.394	-1.69
678.425	-10.69
678.455	4.31
678.486	4.31
678.517	11.31
678.547	4.31
678.578	-3.69
678.608	-18.69
678.639	11.31
678.67	5.31
678.7	0.31
678.731	-11.69
678.761	-6.69
678.792	6.31
678.823	5.31
678.853	18.31
678.884	-13.69
678.914	8.31
678.945	-3.69
678.975	-18.69
679.006	8.31
679.037	-13.69
679.067	7.31
679.098	-15.69
679.128	-6.69
679.159	-22.69
679.189	-7.69
679.22	-21.69
679.25	-4.69
679.281	-9.69
679.312	-8.69
679.342	-1.69
679.373	24.31
679.403	13.31
679.434	10.31
679.464	-4.69
679.495	5.31
679.525	4.31
679.556	-8.69
679.586	14.31
679.617	10.31
679.647	5.31
679.678	-3.69
679.708	-21.69
679.739	-7.69
679.769	-10.69
679.8	-18.69
679.83	3.31
679.861	-13.69
679.891	-27.69
679.922	-24.69
679.952	2.31
679.983	11.31
680.013	5.31
680.044	1.31
680.074	11.31
680.105	1.31
680.135	-4.69
680.165	5.31
680.196	14.31
680.226	8.31
680.257	4.31
680.287	7.31
680.318	-2.69
680.348	-8.69
680.379	18.31
680.409	9.31
680.439	-9.69
680.47	-10.69
680.5	-8.69
680.531	-7.69
680.561	13.31
680.592	4.31
680.622	11.31
680.652	-2.69
680.683	7.31
680.713	-5.69
680.744	2.31
680.774	-9.69
680.804	23.31
680.835	10.31
680.865	-13.69
680.896	15.31
680.926	23.31
680.956	-5.69
680.987	-9.69
681.017	-14.69
681.047	-0.69
681.078	-8.69
681.108	-8.69
681.139	-7.69
681.169	-10.69
681.199	4.31
681.23	9.31
681.26	0.31
681.29	14.31
681.321	2.31
681.351	6.31
681.381	-10.69
681.412	-5.69
681.442	-1.69
681.472	14.31
681.503	-3.69
681.533	-7.69
681.563	4.31
681.594	-1.69
681.624	2.31
681.654	-6.69
681.685	7.31
681.715	17.31
681.745	0.31
681.775	1.31
681.806	-6.69
681.836	-6.69
681.866	-22.69
681.897	-10.69
681.927	-2.69
681.957	-4.69
681.987	-3.69
682.018	-5.69
682.048	7.31
682.078	2.31
682.109	18.31
682.139	16.31
682.169	9.31
682.199	-5.69
682.23	-4.69
682.26	-4.69
682.29	-14.69
682.32	-2.69
682.351	16.31
682.381	-4.69
682.411	-9.69
682.441	-1.69
682.472	-15.69
682.502	8.31
682.532	-0.69
682.562	2.31
682.592	1.31
682.623	18.31
682.653	-3.69
682.683	-1.69
682.713	-1.69
682.743	1.31
682.774	-1.69
682.804	-11.69
682.834	15.31
682.864	2.31
682.894	-5.69
682.925	-13.69
682.955	14.31
682.985	21.31
683.015	11.31
683.045	10.31
683.076	-0.69
683.106	5.31
683.136	-4.69
683.166	-5.69
683.196	-8.69
683.226	0.31
683.257	13.31
683.287	3.31
683.317	-10.69
683.347	-15.69
683.377	-17.69
683.407	10.31
683.437	8.31
683.468	25.31
683.498	-8.69
683.528	5.31
683.558	9.31
683.588	3.31
683.618	-7.69
683.648	-8.69
683.678	-1.69
683.708	2.31
683.739	13.31
683.769	-5.69
683.799	7.31
683.829	2.31
683.859	-2.69
683.889	-1.69
683.919	3.31
683.949	-13.69
683.979	-4.69
684.009	-12.69
684.039	-8.69
684.07	-16.69
684.1	12.31
684.13	14.31
684.16	10.31
684.19	-6.69
684.22	-5.69
684.25	-6.69
684.28	-7.69
684.31	19.31
684.34	20.31
684.37	10.31
684.4	5.31
684.43	9.31
684.46	14.31
684.49	5.31
684.52	1.31
684.55	3.31
684.58	-0.69
684.61	-3.69
684.64	6.31
684.67	2.31
684.7	-2.69
684.73	-0.69
684.76	-4.69
684.79	12.31
684.82	7.31
684.85	-10.69
684.88	4.31
684.91	-1.69
684.94	2.31
684.97	-27.69
685	-2.69
685.03	-12.69
685.06	-3.69
685.09	-8.69
685.12	15.31
685.15	4.31
685.18	-0.69
685.21	4.31
685.24	6.31
685.27	8.31
685.3	-5.69
685.33	15.31
685.36	3.31
685.39	3.31
685.42	3.31
685.45	-1.69
685.48	-8.69
685.51	-0.69
685.54	9.31
685.569	22.31
685.599	9.31
685.629	11.31
685.659	-5.69
685.689	-5.69
685.719	-6.69
685.749	-9.69
685.779	-7.69
685.809	3.31
685.839	-6.69
685.869	12.31
685.898	0.31
685.928	-5.69
685.958	3.31
685.988	10.31
686.018	-5.69
686.048	1.31
686.078	14.31
686.108	18.31
686.137	10.31
686.167	13.31
686.197	-7.69
686.227	-6.69
686.257	9.31
686.287	8.31
686.317	22.31
686.346	-10.69
686.376	-12.69
686.406	-19.69
686.436	3.31
686.466	-19.69
686.496	0.31
686.525	-6.69
686.555	0.31
686.585	21.31
686.615	18.31
686.645	6.31
686.675	5.31
686.704	17.31
686.734	-1.69
686.764	-12.69
686.794	-2.69
686.824	6.31
686.853	3.31
686.883	-5.69
686.913	2.31
686.943	-6.69
686.973	-4.69
687.002	2.31
687.032	2.31
687.062	6.31
687.092	11.31
687.121	15.31
687.151	7.31
687.181	-5.69
687.211	-5.69
687.24	1.31
687.27	5.31
687.3	-7.69
687.33	-3.69
687.359	-19.69
687.389	17.31
687.419	6.31
687.449	5.31
687.478	7.31
687.508	2.31
687.538	11.31
687.568	24.31
687.597	-0.69
687.627	-9.69
687.657	7.31
687.686	5.31
687.716	15.31
687.746	2.31
687.776	-2.69
687.805	0.31
687.835	5.31
687.865	7.31
687.894	-8.69
687.924	-8.69
687.954	-1.69
687.983	1.31
688.013	0.31
688.043	-0.69
688.072	7.31
688.102	9.31
688.132	-4.69
688.161	-5.69
688.191	-3.69
688.221	12.31
688.25	-16.69
688.28	10.31
688.31	11.31
688.339	-7.69
688.369	-3.69
688.399	-9.69
688.428	6.31
688.458	6.31
688.488	-8.69
688.517	11.31
688.547	-7.69
688.576	31.31
688.606	4.31
688.636	8.31
688.665	7.31
688.695	13.31
688.725	16.31
688.754	1.31
688.784	8.31
688.813	1.31
688.843	7.31
688.873	-5.69
688.902	-13.69
688.932	-7.69
688.961	-5.69
688.991	10.31
689.02	16.31
689.05	3.31
689.08	-8.69
689.109	10.31
689.139	-6.69
689.168	-8.69
689.198	-18.69
689.227	-12.69
689.257	4.31
689.287	11.31
689.316	14.31
689.346	-19.69
689.375	-7.69
689.405	6.31
689.434	-8.69
689.464	1.31
689.493	-7.69
689.523	-3.69
689.552	1.31
689.582	-5.69
689.611	-13.69
689.641	6.31
689.67	-0.69
689.7	-6.69
689.73	7.31
689.759	-9.69
689.789	6.31
689.818	-5.69
689.848	-2.69
689.877	5.31
689.906	-3.69
689.936	-6.69
689.965	9.31
689.995	11.31
690.024	-4.69
690.054	-8.69
690.083	7.31
690.113	4.31
690.142	7.31
690.172	3.31
690.201	7.31
690.231	3.31
690.26	15.31
690.29	15.31
690.319	6.31
690.348	-6.69
690.378	13.31
690.407	15.31
690.437	-2.69
690.466	-2.69
690.496	-12.69
690.525	5.31
690.555	3.31
690.584	-2.69
690.613	-1.69
690.643	5.31
690.672	15.31
690.702	14.31
690.731	-0.69
690.76	2.31
690.79	2.31
690.819	3.31
690.849	-1.69
690.878	-3.69
690.907	7.31
690.937	18.31
690.966	13.31
690.996	-1.69
691.025	-5.69
691.054	-0.69
691.084	0.31
691.113	-4.69
691.142	9.31
691.172	7.31
691.201	-4.69
691.23	15.31
691.26	7.31
691.289	-0.69
691.319	-12.69
691.348	0.31
691.377	6.31
691.407	2.31
691.436	6.31
691.465	14.31
691.495	4.31
691.524	0.31
691.553	-2.69
691.583	-12.69
691.612	7.31
691.641	3.31
691.67	-3.69
691.7	-5.69
691.729	-7.69
691.758	2.31
691.788	-6.69
691.817	-17.69
691.846	-10.69
691.876	6.31
691.905	16.31
691.934	3.31
691.963	20.31
691.993	7.31
692.022	-11.69
692.051	2.31
692.081	3.31
692.11	10.31
692.139	12.31
692.168	-2.69
692.198	10.31
692.227	9.31
692.256	12.31
692.285	1.31
692.315	-6.69
692.344	12.31
692.373	7.31
692.402	-22.69
692.432	-0.69
692.461	4.31
692.49	11.31
692.519	-8.69
692.548	10.31
692.578	10.31
692.607	-0.69
692.636	-29.69
692.665	9.31
692.694	-3.69
692.724	19.31
692.753	12.31
692.782	1.31
692.811	1.31
692.84	-4.69
692.87	5.31
692.899	-2.69
692.928	-10.69
692.957	-7.69
692.986	2.31
693.016	18.31
693.045	5.31
693.074	12.31
693.103	4.31
693.132	6.31
693.161	9.31
693.191	-0.69
693.22	-16.69
693.249	19.31
693.278	-4.69
693.307	5.31
693.336	-0.69
693.365	-2.69
693.395	-1.69
693.424	-2.69
693.453	16.31
693.482	-14.69
693.511	9.31
693.54	27.31
693.569	7.31
693.598	1.31
693.628	25.31
693.657	15.31
693.686	8.31
693.715	17.31
693.744	18.31
693.773	13.31
693.802	-0.69
693.831	-13.69
693.86	6.31
693.889	0.31
693.919	5.31
693.948	5.31
693.977	14.31
694.006	-6.69
694.035	1.31
694.064	-7.69
694.093	8.31
694.122	2.31
694.151	-9.69
694.18	5.31
694.209	19.31
694.238	5.31
694.267	10.31
694.296	17.31
694.325	6.31
694.354	14.31
694.383	8.31
694.412	-0.69
694.441	-4.69
694.471	-10.69
694.5	-15.69
694.529	-4.69
694.558	0.31
694.587	-17.69
694.616	-0.69
694.645	8.31
694.674	0.31
694.703	20.31
694.732	7.31
694.761	-6.69
694.79	4.31
694.819	-1.69
694.848	7.31
694.877	25.31
694.906	25.31
694.935	11.31
694.963	31.31
694.992	11.31
695.021	11.31
695.05	6.31
695.079	5.31
695.108	-5.69
695.137	28.31
695.166	8.31
695.195	-6.69
695.224	1.31
695.253	-0.69
695.282	5.31
695.311	10.31
695.34	11.31
695.369	8.31
695.398	-4.69
695.427	18.31
695.456	3.31
695.485	5.31
695.513	9.31
695.542	-6.69
695.571	4.31
695.6	7.31
695.629	10.31
695.658	9.31
695.687	10.31
695.716	1.31
695.745	37.31
695.774	-3.69
695.802	-1.69
695.831	22.31
695.86	9.31
695.889	12.31
695.918	0.31
695.947	4.31
695.976	2.31
696.005	11.31
696.033	3.31
696.062	13.31
696.091	-9.69
696.12	4.31
696.149	22.31
696.178	-7.69
696.207	3.31
696.235	-1.69
696.264	19.31
696.293	14.31
696.322	-0.69
696.351	5.31
696.38	-4.69
696.408	11.31
696.437	-7.69
696.466	7.31
696.495	6.31
696.524	25.31
696.553	5.31
696.581	12.31
696.61	-4.69
696.639	6.31
696.668	8.31
696.697	0.31
696.725	9.31
696.754	-8.69
696.783	0.31
696.812	-13.69
696.84	20.31
696.869	7.31
696.898	5.31
696.927	3.31
696.956	11.31
696.984	1.31
697.013	-0.69
697.042	-0.69
697.071	7.31
697.099	18.31
697.128	12.31
697.157	1.31
697.186	-6.69
697.214	1.31
697.243	3.31
697.272	9.31
697.301	10.31
697.329	21.31
697.358	6.31
697.387	28.31
697.415	13.31
697.444	2.31
697.473	-7.69
697.502	10.31
697.53	14.31
697.559	5.31
697.588	1.31
697.616	-5.69
697.645	-4.69
697.674	21.31
697.703	14.31
697.731	14.31
697.76	5.31
697.789	5.31
697.817	-4.69
697.846	27.31
697.875	6.31
697.903	17.31
697.932	9.31
697.961	7.31
697.989	15.31
698.018	19.31
698.047	8.31
698.075	7.31
698.104	7.31
698.133	5.31
698.161	-18.69
698.19	-3.69
698.218	12.31
698.247	0.31
698.276	-10.69
698.304	6.31
698.333	-5.69
698.362	12.31
698.39	6.31
698.419	0.31
698.447	-3.69
698.476	-6.69
698.505	17.31
698.533	13.31
698.562	1.31
698.591	-3.69
698.619	-21.69
698.648	5.31
698.676	0.31
698.705	6.31
698.733	-10.69
698.762	-4.69
698.791	15.31
698.819	5.31
698.848	-2.69
698.876	12.31
698.905	5.31
698.933	-2.69
698.962	4.31
698.991	9.31
699.019	10.31
699.048	3.31
699.076	4.31
699.105	-7.69
699.133	-8.69
699.162	2.31
699.19	26.31
699.219	-1.69
699.248	11.31
699.276	2.31
699.305	2.31
699.333	7.31
699.362	0.31
699.39	8.31
699.419	15.31
699.447	8.31
699.476	15.31
699.504	-1.69
699.533	15.31
699.561	-3.69
699.59	2.31
699.618	2.31
699.647	-4.69
699.675	-4.69
699.704	1.31
699.732	21.31
699.761	14.31
699.789	7.31
699.818	13.31
699.846	-1.69
699.874	-5.69
699.903	2.31
699.931	16.31
699.96	2.31
699.988	9.31
700.017	2.31
700.045	-5.69
700.074	-17.69
700.102	-18.69
700.13	-21.69
700.159	11.31
700.187	-13.69
700.216	2.31
700.244	-1.69
700.273	4.31
700.301	-6.69
700.329	18.31
700.358	4.31
700.386	12.31
700.415	-1.69
700.443	5.31
700.472	1.31
700.5	9.31
700.528	13.31
700.557	10.31
700.585	9.31
700.614	-1.69
700.642	10.31
700.67	20.31
700.699	17.31
700.727	-11.69
700.755	16.31
700.784	3.31
700.812	-10.69
700.841	-0.69
700.869	-8.69
700.897	-13.69
700.926	1.31
700.954	21.31
700.982	15.31
701.011	-6.69
701.039	13.31
701.067	7.31
701.096	7.31
701.124	-18.69
701.152	-2.69
701.181	-5.69
701.209	-16.69
701.237	-0.69
701.266	7.31
701.294	-2.69
701.322	-7.69
701.351	-4.69
701.379	-5.69
701.407	-11.69
701.435	-2.69
701.464	10.31
701.492	16.31
701.52	-0.69
701.549	0.31
701.577	-0.69
701.605	-8.69
701.634	-11.69
701.662	16.31
701.69	-7.69
701.718	-2.69
701.747	13.31
701.775	-1.69
701.803	-3.69
701.831	7.31
701.86	-5.69
701.888	7.31
701.916	0.31
701.944	-2.69
701.973	3.31
702.001	-23.69
702.029	-9.69
702.057	-6.69
702.086	-24.69
702.114	-9.69
702.142	20.31
702.17	-12.69
702.199	-1.69
702.227	5.31
702.255	2.31
702.283	-14.69
702.311	12.31
702.34	-0.69
702.368	5.31
702.396	-6.69
702.424	-4.69
702.452	-0.69
702.481	1.31
702.509	-17.69
702.537	13.31
702.565	4.31
702.593	-4.69
702.621	-6.69
702.65	4.31
702.678	-3.69
702.706	3.31
702.734	11.31
702.762	2.31
702.79	-2.69
702.819	-1.69
702.847	10.31
702.875	6.31
702.903	13.31
702.931	6.31
702.959	3.31
702.988	14.31
703.016	-7.69
703.044	4.31
703.072	5.31
703.1	-4.69
703.128	2.31
703.156	15.31
703.184	-0.69
703.212	3.31
703.241	-6.69
703.269	9.31
703.297	-7.69
703.325	-6.69
703.353	-6.69
703.381	-2.69
703.409	6.31
703.437	-8.69
703.465	-13.69
703.493	-7.69
703.522	4.31
703.55	3.31
703.578	-2.69
703.606	-9.69
703.634	-7.69
703.662	-3.69
703.69	9.31
703.718	8.31
703.746	14.31
703.774	2.31
703.802	2.31
703.83	5.31
703.858	6.31
703.886	-18.69
703.914	-10.69
703.942	6.31
703.97	6.31
703.998	9.31
704.027	27.31
704.055	8.31
704.083	8.31
704.111	-5.69
704.139	9.31
704.167	-9.69
704.195	0.31
704.223	-8.69
704.251	-7.69
704.279	14.31
704.307	-3.69
704.335	-9.69
704.363	22.31
704.391	-0.69
704.419	-6.69
704.447	7.31
704.475	-10.69
704.503	-1.69
704.531	13.31
704.558	-1.69
704.586	10.31
704.614	-10.69
704.642	6.31
704.67	1.31
704.698	3.31
704.726	8.31
704.754	0.31
704.782	10.31
704.81	4.31
704.838	23.31
704.866	12.31
704.894	-22.69
704.922	-10.69
704.95	3.31
704.978	9.31
705.006	-3.69
705.034	20.31
705.061	-3.69
705.089	-6.69
705.117	3.31
705.145	1.31
705.173	7.31
705.201	-1.69
705.229	4.31
705.257	4.31
705.285	1.31
705.313	-2.69
705.34	-5.69
705.368	-30.69
705.396	13.31
705.424	-4.69
705.452	-9.69
705.48	-4.69
705.508	-0.69
705.536	2.31
705.563	-12.69
705.591	-4.69
705.619	11.31
705.647	-8.69
705.675	-6.69
705.703	0.31
705.731	-5.69
705.758	16.31
705.786	5.31
705.814	25.31
705.842	4.31
705.87	21.31
705.898	3.31
705.925	-10.69
705.953	8.31
705.981	-10.69
706.009	-4.69
706.037	5.31
706.065	1.31
706.092	1.31
706.12	-1.69
706.148	3.31
706.176	-10.69
706.204	-4.69
706.231	-1.69
706.259	-3.69
706.287	-11.69
706.315	7.31
706.342	-0.69
706.37	13.31
706.398	0.31
706.426	-2.69
706.454	-14.69
706.481	-1.69
706.509	2.31
706.537	-11.69
706.565	-19.69
706.592	6.31
706.62	-2.69
706.648	-1.69
706.676	-2.69
706.703	1.31
706.731	-7.69
706.759	7.31
706.787	4.31
706.814	12.31
706.842	-8.69
706.87	-8.69
706.897	8.31
706.925	-2.69
706.953	10.31
706.981	4.31
707.008	-2.69
707.036	-1.69
707.064	10.31
707.091	-0.69
707.119	6.31
707.147	2.31
707.174	2.31
707.202	2.31
707.23	-6.69
707.258	-1.69
707.285	-4.69
707.313	-21.69
707.341	-12.69
707.368	-17.69
707.396	-12.69
707.424	8.31
707.451	-4.69
707.479	-5.69
707.507	-6.69
707.534	-10.69
707.562	-4.69
707.59	-1.69
707.617	-6.69
707.645	-4.69
707.672	-7.69
707.7	10.31
707.728	-1.69
707.755	-2.69
707.783	6.31
707.811	0.31
707.838	-4.69
707.866	-11.69
707.893	1.31
707.921	-7.69
707.949	-6.69
707.976	-14.69
708.004	-5.69
708.031	-4.69
708.059	-6.69
708.087	14.31
708.114	-4.69
708.142	-5.69
708.169	-3.69
708.197	-14.69
708.225	-5.69
708.252	-3.69
708.28	-2.69
708.307	-16.69
708.335	-0.69
708.362	-1.69
708.39	-3.69
708.418	6.31
708.445	-11.69
708.473	-5.69
708.5	-13.69
708.528	7.31
708.555	-3.69
708.583	-2.69
708.61	-13.69
708.638	7.31
708.665	-1.69
708.693	9.31
708.72	-4.69
708.748	-20.69
708.776	-11.69
708.803	7.31
708.831	6.31
708.858	4.31
708.886	8.31
708.913	9.31
708.941	-9.69
708.968	5.31
708.996	0.31
709.023	17.31
709.051	-2.69
709.078	-1.69
709.105	11.31
709.133	1.31
709.16	-5.69
709.188	15.31
709.215	5.31
709.243	12.31
709.27	-16.69
709.298	-9.69
709.325	-9.69
709.353	-13.69
709.38	-9.69
709.408	15.31
709.435	13.31
709.462	-4.69
709.49	9.31
709.517	-5.69
709.545	5.31
709.572	5.31
709.6	0.31
709.627	-3.69
709.655	-10.69
709.682	3.31
709.709	-12.69
709.737	-12.69
709.764	-20.69
709.792	-0.69
709.819	11.31
709.846	-5.69
709.874	-2.69
709.901	9.31
709.929	5.31
709.956	6.31
709.983	-5.69
710.011	10.31
710.038	-1.69
710.066	18.31
710.093	15.31
710.12	-1.69
710.148	-2.69
710.175	-12.69
710.202	-8.69
710.23	16.31
710.257	-7.69
710.284	12.31
710.312	-2.69
710.339	-1.69
710.366	-3.69
710.394	2.31
710.421	5.31
710.448	4.31
710.476	-8.69
710.503	-0.69
710.53	-1.69
710.558	8.31
710.585	6.31
710.612	2.31
710.64	0.31
710.667	-5.69
710.694	-10.69
710.722	9.31
710.749	2.31
710.776	12.31
710.804	10.31
710.831	18.31
710.858	5.31
710.885	-5.69
710.913	-2.69
710.94	28.31
710.967	-4.69
710.995	3.31
711.022	-7.69
711.049	0.31
711.076	2.31
711.104	-1.69
711.131	-6.69
711.158	-3.69
711.185	-6.69
711.213	-6.69
711.24	-8.69
711.267	-6.69
711.294	-8.69
711.322	11.31
711.349	10.31
711.376	-7.69
711.403	-10.69
711.431	2.31
711.458	1.31
711.485	-6.69
711.512	-5.69
711.54	2.31
711.567	-9.69
711.594	-1.69
711.621	2.31
711.648	-4.69
711.676	2.31
711.703	-2.69
711.73	-12.69
711.757	-9.69
711.784	-12.69
711.812	-2.69
711.839	-7.69
711.866	-17.69
711.893	-3.69
711.92	6.31
711.947	2.31
711.975	3.31
712.002	-5.69
712.029	3.31
712.056	-5.69
712.083	-17.69
712.11	-5.69
712.138	19.31
712.165	-1.69
712.192	3.31
712.219	-5.69
712.246	-6.69
712.273	-12.69
712.3	-10.69
712.328	2.31
712.355	2.31
712.382	-9.69
712.409	15.31
712.436	-11.69
712.463	12.31
712.49	4.31
712.517	1.31
712.544	-2.69
712.572	-4.69
712.599	1.31
712.626	17.31
712.653	2.31
712.68	-13.69
712.707	9.31
712.734	5.31
712.761	3.31
712.788	8.31
712.815	7.31
712.842	9.31
712.87	5.31
712.897	0.31
712.924	-9.69
712.951	0.31
712.978	17.31
713.005	20.31
713.032	4.31
713.059	-10.69
713.086	-2.69
713.113	-6.69
713.14	-8.69
713.167	-8.69
713.194	-7.69
713.221	0.31
713.248	16.31
713.275	-2.69
713.302	9.31
713.329	12.31
713.356	9.31
713.383	-1.69
713.41	4.31
713.437	-3.69
713.464	10.31
713.491	7.31
713.518	-2.69
713.545	2.31
713.572	6.31
713.599	12.31
713.626	-3.69
713.653	-4.69
713.68	-14.69
713.707	1.31
713.734	5.31
713.761	-3.69
713.788	11.31
713.815	17.31
713.842	-2.69
713.869	10.31
713.896	5.31
713.923	5.31
713.95	9.31
713.977	-8.69
714.004	-10.69
714.031	-14.69
714.058	-7.69
714.085	8.31
714.112	18.31
714.139	-2.69
714.165	-5.69
714.192	-0.69
714.219	6.31
714.246	1.31
714.273	-2.69
714.3	-12.69
714.327	0.31
714.354	1.31
714.381	-6.69
714.408	8.31
714.435	6.31
714.461	-2.69
714.488	0.31
714.515	-6.69
714.542	-1.69
714.569	-5.69
714.596	-6.69
714.623	5.31
714.65	-6.69
714.677	-0.69
714.703	12.31
714.73	7.31
714.757	0.31
714.784	-4.69
714.811	8.31
714.838	3.31
714.865	-1.69
714.891	10.31
714.918	-0.69
714.945	1.31
714.972	-1.69
714.999	-9.69
715.026	-8.69
715.052	-2.69
715.079	-7.69
715.106	-0.69
715.133	-3.69
715.16	-4.69
715.187	7.31
715.213	13.31
715.24	1.31
715.267	1.31
715.294	-0.69
715.321	-8.69
715.347	-1.69
715.374	-18.69
715.401	1.31
715.428	5.31
715.455	-1.69
715.481	-13.69
715.508	6.31
715.535	-5.69
715.562	13.31
715.588	15.31
715.615	-0.69
715.642	4.31
715.669	16.31
715.695	1.31
715.722	-16.69
715.749	4.31
715.776	2.31
715.802	10.31
715.829	-0.69
715.856	-3.69
715.883	12.31
715.909	-8.69
715.936	6.31
715.963	8.31
715.99	8.31
716.016	-7.69
716.043	-14.69
716.07	2.31
716.096	-12.69
716.123	-9.69
716.15	-18.69
716.177	15.31
716.203	19.31
716.23	2.31
716.257	5.31
716.283	20.31
716.31	0.31
716.337	7.31
716.363	12.31
716.39	5.31
716.417	12.31
716.443	3.31
716.47	18.31
716.497	1.31
716.523	18.31
716.55	6.31
716.577	24.31
716.603	-6.69
716.63	12.31
716.657	15.31
716.683	-6.69
716.71	-0.69
716.737	14.31
716.763	-1.69
716.79	14.31
716.817	16.31
716.843	-8.69
716.87	-2.69
716.897	14.31
716.923	13.31
716.95	2.31
716.976	-9.69
717.003	-15.69
717.03	-6.69
717.056	10.31
717.083	-5.69
717.109	-6.69
717.136	8.31
717.163	-5.69
717.189	0.31
717.216	-14.69
717.242	-7.69
717.269	-10.69
717.296	6.31
717.322	12.31
717.349	9.31
717.375	8.31
717.402	12.31
717.428	-1.69
717.455	8.31
717.481	3.31
717.508	4.31
717.535	16.31
717.561	1.31
717.588	1.31
717.614	-3.69
717.641	1.31
717.667	-11.69
717.694	-7.69
717.72	3.31
717.747	-2.69
717.773	-12.69
717.8	16.31
717.826	-6.69
717.853	-3.69
717.88	6.31
717.906	-0.69
717.933	11.31
717.959	3.31
717.986	20.31
718.012	-6.69
718.039	6.31
718.065	22.31
718.092	12.31
718.118	-0.69
718.144	-4.69
718.171	9.31
718.197	9.31
718.224	7.31
718.25	-8.69
718.277	-4.69
718.303	14.31
718.33	3.31
718.356	-17.69
718.383	-12.69
718.409	-5.69
718.436	0.31
718.462	3.31
718.489	-2.69
718.515	21.31
718.541	24.31
718.568	20.31
718.594	7.31
718.621	3.31
718.647	5.31
718.674	9.31
718.7	2.31
718.726	7.31
718.753	11.31
718.779	-3.69
718.806	-3.69
718.832	-4.69
718.858	1.31
718.885	6.31
718.911	2.31
718.938	9.31
718.964	-13.69
718.99	-2.69
719.017	3.31
719.043	1.31
719.07	26.31
719.096	-13.69
719.122	-2.69
719.149	-6.69
719.175	-1.69
719.201	13.31
719.228	-1.69
719.254	6.31
719.281	-5.69
719.307	6.31
719.333	1.31
719.36	15.31
719.386	1.31
719.412	9.31
719.439	-1.69
719.465	13.31
719.491	-14.69
719.518	12.31
719.544	1.31
719.57	5.31
719.597	-3.69
719.623	-7.69
719.649	-6.69
719.675	-9.69
719.702	-0.69
719.728	19.31
719.754	-2.69
719.781	3.31
719.807	6.31
719.833	-8.69
719.86	-5.69
719.886	1.31
719.912	9.31
719.938	-3.69
719.965	-2.69
719.991	7.31
720.017	-0.69
720.044	-7.69
720.07	-1.69
720.096	4.31
720.122	-13.69
720.149	3.31
720.175	18.31
720.201	-1.69
720.227	-12.69
720.254	6.31
720.28	1.31
720.306	-15.69
720.332	2.31
720.359	-8.69
720.385	12.31
720.411	9.31
720.437	9.31
720.463	-0.69
720.49	13.31
720.516	1.31
720.542	-0.69
720.568	4.31
720.595	1.31
720.621	-2.69
720.647	11.31
720.673	6.31
720.699	6.31
720.725	6.31
720.752	4.31
720.778	-0.69
720.804	14.31
720.83	5.31
720.856	-13.69
720.883	-17.69
720.909	1.31
720.935	-5.69
720.961	15.31
720.987	8.31
721.013	4.31
721.04	-3.69
721.066	-1.69
721.092	-8.69
721.118	4.31
721.144	12.31
721.17	5.31
721.196	1.31
721.223	3.31
721.249	-13.69
721.275	16.31
721.301	-1.69
721.327	2.31
721.353	17.31
721.379	9.31
721.405	6.31
721.432	13.31
721.458	1.31
721.484	8.31
721.51	-0.69
721.536	12.31
721.562	0.31
721.588	-4.69
721.614	8.31
721.64	-1.69
721.666	-6.69
721.693	-9.69
721.719	-4.69
721.745	-21.69
721.771	-8.69
721.797	-0.69
721.823	2.31
721.849	18.31
721.875	8.31
721.901	6.31
721.927	-3.69
721.953	2.31
721.979	13.31
722.005	3.31
722.031	-2.69
722.057	1.31
722.083	2.31
722.109	2.31
722.135	7.31
722.161	-10.69
722.187	-9.69
722.214	-12.69
722.24	-0.69
722.266	-9.69
722.292	11.31
722.318	1.31
722.344	1.31
722.37	10.31
722.396	16.31
722.422	-14.69
722.448	8.31
722.474	-8.69
722.5	6.31
722.526	3.31
722.552	-5.69
722.578	-8.69
722.603	18.31
722.629	-2.69
722.655	-1.69
722.681	-4.69
722.707	-4.69
722.733	-8.69
722.759	-8.69
722.785	1.31
722.811	-1.69
722.837	-5.69
722.863	-2.69
722.889	5.31
722.915	14.31
722.941	-1.69
722.967	-1.69
722.993	-0.69
723.019	-2.69
723.045	13.31
723.071	-8.69
723.097	3.31
723.122	22.31
723.148	-10.69
723.174	-8.69
723.2	3.31
723.226	5.31
723.252	8.31
723.278	-8.69
723.304	-4.69
723.33	9.31
723.356	-26.69
723.381	-3.69
723.407	-20.69
723.433	5.31
723.459	-1.69
723.485	11.31
723.511	0.31
723.537	10.31
723.563	12.31
723.588	10.31
723.614	21.31
723.64	-6.69
723.666	12.31
723.692	12.31
723.718	-5.69
723.744	-4.69
723.769	-0.69
723.795	-6.69
723.821	3.31
723.847	9.31
723.873	14.31
723.899	14.31
723.924	-3.69
723.95	5.31
723.976	-9.69
724.002	7.31
724.028	10.31
724.053	-4.69
724.079	-11.69
724.105	-0.69
724.131	-1.69
724.157	10.31
724.182	8.31
724.208	3.31
724.234	7.31
724.26	4.31
724.286	-2.69
724.311	1.31
724.337	-12.69
724.363	-4.69
724.389	-0.69
724.415	-1.69
724.44	24.31
724.466	-0.69
724.492	3.31
724.518	-5.69
724.543	-6.69
724.569	-2.69
724.595	12.31
724.621	1.31
724.646	1.31
724.672	-17.69
724.698	-7.69
724.723	-17.69
724.749	-10.69
724.775	12.31
724.801	10.31
724.826	7.31
724.852	-0.69
724.878	-5.69
724.904	-19.69
724.929	-8.69
724.955	-16.69
724.981	2.31
725.006	22.31
725.032	11.31
725.058	4.31
725.083	-0.69
725.109	6.31
725.135	12.31
725.161	-1.69
725.186	-11.69
725.212	-9.69
725.238	-3.69
725.263	1.31
725.289	-14.69
725.315	-13.69
725.34	-5.69
725.366	11.31
725.392	-5.69
725.417	5.31
725.443	4.31
725.468	1.31
725.494	-6.69
725.52	-0.69
725.545	-0.69
725.571	-5.69
725.597	-2.69
725.622	5.31
725.648	6.31
725.674	3.31
725.699	6.31
725.725	-2.69
725.75	8.31
725.776	-0.69
725.802	-2.69
725.827	10.31
725.853	-5.69
725.878	-6.69
725.904	-20.69
725.93	-3.69
725.955	-7.69
725.981	-18.69
726.006	-7.69
726.032	1.31
726.057	-3.69
726.083	-5.69
726.109	3.31
726.134	-9.69
726.16	2.31
726.185	-4.69
726.211	-18.69
726.236	-5.69
726.262	10.31
726.288	18.31
726.313	18.31
726.339	10.31
726.364	2.31
726.39	8.31
726.415	9.31
726.441	-5.69
726.466	-12.69
726.492	-8.69
726.517	-13.69
726.543	-10.69
726.568	-4.69
726.594	-5.69
726.619	11.31
726.645	2.31
726.67	9.31
726.696	12.31
726.721	-6.69
726.747	-13.69
726.772	-4.69
726.798	-1.69
726.823	16.31
726.849	8.31
726.874	3.31
726.9	10.31
726.925	20.31
726.951	2.31
726.976	23.31
727.002	-2.69
727.027	-2.69
727.053	16.31
727.078	-1.69
727.104	5.31
727.129	-1.69
727.155	1.31
727.18	2.31
727.205	5.31
727.231	-10.69
727.256	6.31
727.282	6.31
727.307	9.31
727.333	-6.69
727.358	-17.69
727.383	-9.69
727.409	-7.69
727.434	-3.69
727.46	-2.69
727.485	-9.69
727.511	7.31
727.536	-19.69
727.561	-25.69
727.587	-1.69
727.612	-14.69
727.637	-2.69
727.663	-10.69
727.688	18.31
727.714	-3.69
727.739	-1.69
727.764	-2.69
727.79	-3.69
727.815	7.31
727.841	28.31
727.866	6.31
727.891	17.31
727.917	-3.69
727.942	4.31
727.967	3.31
727.993	-6.69
728.018	6.31
728.043	6.31
728.069	10.31
728.094	1.31
728.119	-5.69
728.145	14.31
728.17	-4.69
728.195	-3.69
728.221	-8.69
728.246	-2.69
728.271	-12.69
728.297	15.31
728.322	2.31
728.347	-7.69
728.373	2.31
728.398	-5.69
728.423	-4.69
728.448	-12.69
728.474	-9.69
728.499	2.31
728.524	-10.69
728.55	-14.69
728.575	11.31
728.6	11.31
728.625	-18.69
728.651	10.31
728.676	-6.69
728.701	-0.69
728.727	-1.69
728.752	11.31
728.777	-5.69
728.802	6.31
728.828	-2.69
728.853	2.31
728.878	17.31
728.903	-6.69
728.929	-8.69
728.954	5.31
728.979	11.31
729.004	17.31
729.03	7.31
729.055	4.31
729.08	-17.69
729.105	-2.69
729.13	8.31
729.156	1.31
729.181	-8.69
729.206	-11.69
729.231	-2.69
729.256	21.31
729.282	7.31
729.307	-13.69
729.332	-5.69
729.357	-12.69
729.382	-12.69
729.408	-0.69
729.433	-6.69
729.458	-14.69
729.483	-0.69
729.508	23.31
729.533	5.31
729.559	4.31
729.584	-4.69
729.609	7.31
729.634	5.31
729.659	-2.69
729.684	-6.69
729.71	15.31
729.735	7.31
729.76	-7.69
729.785	8.31
729.81	8.31
729.835	10.31
729.86	-8.69
729.886	16.31
729.911	6.31
729.936	-4.69
729.961	3.31
729.986	-12.69
730.011	6.31
730.036	-3.69
730.061	-4.69
730.086	12.31
730.112	-3.69
730.137	14.31
730.162	-1.69
730.187	0.31
730.212	5.31
730.237	-3.69
730.262	-11.69
730.287	-6.69
730.312	15.31
730.337	2.31
730.362	15.31
730.387	-1.69
730.413	-11.69
730.438	-11.69
730.463	-3.69
730.488	-2.69
730.513	6.31
730.538	-6.69
730.563	18.31
730.588	11.31
730.613	11.31
730.638	-1.69
730.663	13.31
730.688	13.31
730.713	7.31
730.738	7.31
730.763	-2.69
730.788	-10.69
730.813	12.31
730.838	-2.69
730.863	9.31
730.888	-0.69
730.913	-15.69
730.938	-8.69
730.963	-3.69
730.988	1.31
731.013	26.31
731.038	-10.69
731.063	0.31
731.088	8.31
731.113	7.31
731.138	2.31
731.163	-9.69
731.188	-2.69
731.213	9.31
731.238	27.31
731.263	5.31
731.288	-6.69
731.313	1.31
731.338	-19.69
731.363	1.31
731.388	-14.69
731.413	-3.69
731.438	5.31
731.463	16.31
731.487	5.31
731.512	-11.69
731.537	-4.69
731.562	3.31
731.587	8.31
731.612	0.31
731.637	-13.69
731.662	2.31
731.687	3.31
731.712	-16.69
731.737	2.31
731.762	12.31
731.786	11.31
731.811	1.31
731.836	1.31
731.861	2.31
731.886	3.31
731.911	21.31
731.936	23.31
731.961	2.31
731.986	-9.69
732.01	13.31
732.035	1.31
732.06	-0.69
732.085	-0.69
732.11	4.31
732.135	-7.69
732.16	6.31
732.184	-2.69
732.209	-2.69
732.234	7.31
732.259	1.31
732.284	8.31
732.309	-2.69
732.334	1.31
732.358	-12.69
732.383	-7.69
732.408	-1.69
732.433	-0.69
732.458	6.31
732.482	1.31
732.507	-7.69
732.532	2.31
732.557	1.31
732.582	6.31
732.607	-13.69
732.631	-8.69
732.656	0.31
732.681	-17.69
732.706	14.31
732.73	-9.69
732.755	-10.69
732.78	-1.69
732.805	15.31
732.83	-2.69
732.854	6.31
732.879	24.31
732.904	3.31
732.929	-1.69
732.953	4.31
732.978	9.31
733.003	-4.69
733.028	-18.69
733.052	6.31
733.077	7.31
733.102	9.31
733.127	-2.69
733.151	-0.69
733.176	7.31
733.201	1.31
733.226	-6.69
733.25	-4.69
733.275	-5.69
733.3	-7.69
733.324	-1.69
733.349	6.31
733.374	12.31
733.399	-12.69
733.423	6.31
733.448	8.31
733.473	10.31
733.497	-10.69
733.522	-7.69
733.547	21.31
733.571	22.31
733.596	5.31
733.621	5.31
733.646	-9.69
733.67	-2.69
733.695	-7.69
733.72	1.31
733.744	-1.69
733.769	6.31
733.794	15.31
733.818	11.31
733.843	-8.69
733.867	-9.69
733.892	-4.69
733.917	0.31
733.941	1.31
733.966	-2.69
733.991	-4.69
734.015	15.31
734.04	-1.69
734.065	21.31
734.089	10.31
734.114	17.31
734.138	16.31
734.163	0.31
734.188	3.31
734.212	5.31
734.237	10.31
734.261	0.31
734.286	4.31
734.311	0.31
734.335	6.31
734.36	17.31
734.384	14.31
734.409	-2.69
734.434	1.31
734.458	-1.69
734.483	10.31
734.507	4.31
734.532	-1.69
734.556	6.31
734.581	-2.69
734.606	-1.69
734.63	-12.69
734.655	8.31
734.679	-0.69
734.704	-2.69
734.728	12.31
734.753	9.31
734.777	7.31
734.802	3.31
734.826	6.31
734.851	3.31
734.876	13.31
734.9	1.31
734.925	-3.69
734.949	8.31
734.974	5.31
734.998	13.31
735.023	-18.69
735.047	-7.69
735.072	17.31
735.096	-3.69
735.121	12.31
735.145	6.31
735.17	7.31
735.194	8.31
735.219	18.31
735.243	1.31
735.268	6.31
735.292	8.31
735.317	-4.69
735.341	9.31
735.365	-18.69
735.39	-5.69
735.414	1.31
735.439	1.31
735.463	-1.69
735.488	5.31
735.512	2.31
735.537	17.31
735.561	5.31
735.586	-3.69
735.61	7.31
735.634	4.31
735.659	1.31
735.683	13.31
735.708	3.31
735.732	4.31
735.757	0.31
735.781	13.31
735.805	18.31
735.83	-7.69
735.854	-5.69
735.879	2.31
735.903	15.31
735.927	6.31
735.952	11.31
735.976	-0.69
736.001	7.31
736.025	-3.69
736.049	-4.69
736.074	-3.69
736.098	0.31
736.123	14.31
736.147	1.31
736.171	16.31
736.196	15.31
736.22	-18.69
736.244	-0.69
736.269	8.31
736.293	0.31
736.317	9.31
736.342	-2.69
736.366	-1.69
736.39	35.31
736.415	-6.69
736.439	9.31
736.463	-3.69
736.488	6.31
736.512	-0.69
736.536	3.31
736.561	21.31
736.585	-0.69
736.609	-3.69
736.634	-10.69
736.658	-13.69
736.682	-5.69
736.707	-6.69
736.731	-12.69
736.755	-2.69
736.78	4.31
736.804	6.31
736.828	6.31
736.852	-12.69
736.877	2.31
736.901	-0.69
736.925	-5.69
736.949	-5.69
736.974	-3.69
736.998	-4.69
737.022	3.31
737.047	-14.69
737.071	4.31
737.095	20.31
737.119	25.31
737.144	21.31
737.168	-4.69
737.192	9.31
737.216	23.31
737.241	1.31
737.265	-0.69
737.289	-9.69
737.313	-20.69
737.337	-1.69
737.362	-0.69
737.386	8.31
737.41	-2.69
737.434	18.31
737.459	-1.69
737.483	1.31
737.507	16.31
737.531	23.31
737.555	23.31
737.58	9.31
737.604	7.31
737.628	-19.69
737.652	-11.69
737.676	1.31
737.701	3.31
737.725	-1.69
737.749	13.31
737.773	-2.69
737.797	-12.69
737.821	3.31
737.846	4.31
737.87	23.31
737.894	1.31
737.918	-6.69
737.942	2.31
737.966	7.31
737.99	2.31
738.015	4.31
738.039	-3.69
738.063	-12.69
738.087	8.31
738.111	2.31
738.135	18.31
738.159	-4.69
738.184	-1.69
738.208	3.31
738.232	18.31
738.256	18.31
738.28	9.31
738.304	16.31
738.328	-7.69
738.352	10.31
738.376	-1.69
738.4	-1.69
738.425	9.31
738.449	-0.69
738.473	14.31
738.497	-2.69
738.521	8.31
738.545	-14.69
738.569	-7.69
738.593	8.31
738.617	13.31
738.641	1.31
738.665	2.31
738.689	23.31
738.713	5.31
738.737	2.31
738.762	4.31
738.786	3.31
738.81	-19.69
738.834	-2.69
738.858	12.31
738.882	10.31
738.906	5.31
738.93	6.31
738.954	10.31
738.978	10.31
739.002	1.31
739.026	12.31
739.05	11.31
739.074	4.31
739.098	46.31
739.122	13.31
739.146	2.31
739.17	6.31
739.194	5.31
739.218	-1.69
739.242	-2.69
739.266	5.31
739.29	23.31
739.314	8.31
739.338	9.31
739.362	13.31
739.386	11.31
739.41	13.31
739.434	-10.69
739.458	12.31
739.482	16.31
739.506	14.31
739.53	-9.69
739.554	25.31
739.577	2.31
739.601	-1.69
739.625	5.31
739.649	-6.69
739.673	-19.69
739.697	2.31
739.721	-1.69
739.745	5.31
739.769	18.31
739.793	11.31
739.817	11.31
739.841	-3.69
739.865	-5.69
739.889	-14.69
739.912	10.31
739.936	6.31
739.96	-8.69
739.984	12.31
740.008	4.31
740.032	-9.69
740.056	2.31
740.08	-0.69
740.104	5.31
740.127	10.31
740.151	2.31
740.175	14.31
740.199	-0.69
740.223	49.31
740.247	24.31
740.271	11.31
740.295	7.31
740.318	-14.69
740.342	8.31
740.366	10.31
740.39	10.31
740.414	0.31
740.438	1.31
740.461	13.31
740.485	-4.69
740.509	-16.69
740.533	9.31
740.557	-4.69
740.581	11.31
740.604	5.31
740.628	-7.69
740.652	5.31
740.676	-11.69
740.7	5.31
740.723	-1.69
740.747	-13.69
740.771	-12.69
740.795	-2.69
740.819	1.31
740.842	5.31
740.866	8.31
740.89	1.31
740.914	-4.69
740.938	-6.69
740.961	22.31
740.985	6.31
741.009	-8.69
741.033	13.31
741.056	6.31
741.08	-2.69
741.104	-3.69
741.128	5.31
741.151	2.31
741.175	2.31
741.199	-7.69
741.223	10.31
741.246	-0.69
741.27	-5.69
741.294	-7.69
741.318	1.31
741.341	11.31
741.365	17.31
741.389	10.31
741.413	10.31
741.436	12.31
741.46	7.31
741.484	14.31
741.507	6.31
741.531	10.31
741.555	3.31
741.579	4.31
741.602	11.31
741.626	20.31
741.65	-4.69
741.673	-3.69
741.697	15.31
741.721	19.31
741.744	1.31
741.768	14.31
741.792	21.31
741.815	0.31
741.839	25.31
741.863	12.31
741.886	9.31
741.91	18.31
741.934	13.31
741.957	-21.69
741.981	14.31
742.005	-4.69
742.028	-5.69
742.052	-1.69
742.075	14.31
742.099	17.31
742.123	0.31
742.146	-4.69
742.17	8.31
742.194	-1.69
742.217	7.31
742.241	-0.69
742.264	-8.69
742.288	20.31
742.312	-0.69
742.335	5.31
742.359	19.31
742.382	14.31
742.406	21.31
742.43	-7.69
742.453	4.31
742.477	6.31
742.5	-4.69
742.524	2.31
742.548	-7.69
742.571	-6.69
742.595	7.31
742.618	-1.69
742.642	-5.69
742.665	-2.69
742.689	-13.69
742.712	12.31
742.736	-1.69
742.76	14.31
742.783	-12.69
742.807	2.31
742.83	9.31
742.854	-9.69
742.877	-5.69
742.901	12.31
742.924	-12.69
742.948	-7.69
742.971	-4.69
742.995	-2.69
743.018	-1.69
743.042	-12.69
743.065	-6.69
743.089	4.31
743.112	-2.69
743.136	1.31
743.159	-13.69
743.183	-2.69
743.206	3.31
743.23	2.31
743.253	-4.69
743.277	15.31
743.3	7.31
743.324	-4.69
743.347	-9.69
743.371	6.31
743.394	13.31
743.418	20.31
743.441	10.31
743.465	4.31
743.488	22.31
743.512	-7.69
743.535	-1.69
743.558	-3.69
743.582	-5.69
743.605	-6.69
743.629	-1.69
743.652	4.31
743.676	-13.69
743.699	-1.69
743.723	23.31
743.746	13.31
743.769	13.31
743.793	-1.69
743.816	-13.69
743.84	17.31
743.863	11.31
743.886	10.31
743.91	2.31
743.933	1.31
743.957	3.31
743.98	-6.69
744.003	-6.69
744.027	-1.69
744.05	-5.69
744.074	-9.69
744.097	-3.69
744.12	-6.69
744.144	-22.69
744.167	1.31
744.19	8.31
744.214	-2.69
744.237	-6.69
744.26	5.31
744.284	-1.69
744.307	-4.69
744.331	-9.69
744.354	-13.69
744.377	-10.69
744.401	-5.69
744.424	1.31
744.447	-8.69
744.471	-0.69
