Data from HighRes_H2D2_15_04_11_07_2024_HR4C61891__55__15-05-39-943.txt Node

Date: Thu Nov 07 15:05:39 EST 2024
User: crc00042
Spectrometer: HR4C6189
Trigger mode: 4
Integration Time (sec): 1.000000E-1
Scans to average: 1
Electric dark correction enabled: true
Nonlinearity correction enabled: false
Boxcar width: 0
XAxis mode: Wavelengths
Number of Pixels in Spectrum: 3648
>>>>>Begin Spectral Data<<<<<
639.567	-54.69
639.602	-54.69
639.636	-54.69
639.67	-46.69
639.704	-25.69
639.738	-8.69
639.773	28.31
639.807	-12.69
639.841	15.31
639.875	16.31
639.909	-8.69
639.943	-14.69
639.978	2.31
640.012	-3.69
640.046	-8.69
640.08	-8.69
640.114	0.31
640.148	3.31
640.182	-4.69
640.217	-10.69
640.251	15.31
640.285	10.31
640.319	-2.69
640.353	12.31
640.387	4.31
640.421	-3.69
640.455	-0.69
640.49	-2.69
640.524	-7.69
640.558	13.31
640.592	4.31
640.626	-1.69
640.66	19.31
640.694	-5.69
640.728	17.31
640.762	30.31
640.796	22.31
640.83	10.31
640.865	0.31
640.899	15.31
640.933	13.31
640.967	5.31
641.001	11.31
641.035	6.31
641.069	9.31
641.103	9.31
641.137	11.31
641.171	6.31
641.205	20.31
641.239	13.31
641.273	16.31
641.307	17.31
641.341	8.31
641.375	-2.69
641.409	-0.69
641.443	1.31
641.477	8.31
641.511	2.31
641.545	1.31
641.579	-6.69
641.614	8.31
641.648	21.31
641.682	1.31
641.716	10.31
641.75	17.31
641.784	-2.69
641.818	-2.69
641.852	10.31
641.886	13.31
641.919	18.31
641.953	-7.69
641.987	-17.69
642.021	0.31
642.055	-12.69
642.089	-0.69
642.123	-19.69
642.157	-5.69
642.191	1.31
642.225	18.31
642.259	-2.69
642.293	5.31
642.327	8.31
642.361	14.31
642.395	12.31
642.429	15.31
642.463	8.31
642.497	11.31
642.531	-7.69
642.565	-16.69
642.599	5.31
642.633	-3.69
642.666	21.31
642.7	0.31
642.734	20.31
642.768	-7.69
642.802	5.31
642.836	2.31
642.87	-13.69
642.904	10.31
642.938	12.31
642.972	-12.69
643.005	19.31
643.039	27.31
643.073	10.31
643.107	4.31
643.141	8.31
643.175	4.31
643.209	-1.69
643.243	3.31
643.276	1.31
643.31	3.31
643.344	-6.69
643.378	14.31
643.412	13.31
643.446	3.31
643.48	-9.69
643.513	-2.69
643.547	-12.69
643.581	2.31
643.615	13.31
643.649	0.31
643.683	14.31
643.716	6.31
643.75	2.31
643.784	-12.69
643.818	13.31
643.852	5.31
643.886	7.31
643.919	2.31
643.953	-14.69
643.987	-19.69
644.021	2.31
644.055	2.31
644.088	-7.69
644.122	-22.69
644.156	-6.69
644.19	15.31
644.224	15.31
644.257	2.31
644.291	0.31
644.325	11.31
644.359	10.31
644.392	21.31
644.426	24.31
644.46	11.31
644.494	20.31
644.527	-17.69
644.561	23.31
644.595	10.31
644.629	-2.69
644.662	-3.69
644.696	3.31
644.73	8.31
644.764	8.31
644.797	-11.69
644.831	-4.69
644.865	22.31
644.899	11.31
644.932	20.31
644.966	2.31
645	35.31
645.033	23.31
645.067	8.31
645.101	18.31
645.135	15.31
645.168	15.31
645.202	7.31
645.236	16.31
645.269	17.31
645.303	-11.69
645.337	-9.69
645.37	5.31
645.404	11.31
645.438	2.31
645.471	3.31
645.505	16.31
645.539	15.31
645.572	-2.69
645.606	1.31
645.64	8.31
645.673	9.31
645.707	11.31
645.741	10.31
645.774	-1.69
645.808	12.31
645.842	-3.69
645.875	15.31
645.909	2.31
645.943	-11.69
645.976	-0.69
646.01	10.31
646.043	19.31
646.077	11.31
646.111	-1.69
646.144	16.31
646.178	13.31
646.212	0.31
646.245	-1.69
646.279	7.31
646.312	12.31
646.346	9.31
646.38	4.31
646.413	10.31
646.447	19.31
646.48	5.31
646.514	17.31
646.547	9.31
646.581	-2.69
646.615	-0.69
646.648	5.31
646.682	-2.69
646.715	12.31
646.749	23.31
646.782	9.31
646.816	2.31
646.85	6.31
646.883	3.31
646.917	3.31
646.95	11.31
646.984	5.31
647.017	-3.69
647.051	-1.69
647.084	13.31
647.118	3.31
647.151	0.31
647.185	1.31
647.218	-18.69
647.252	2.31
647.285	-4.69
647.319	-8.69
647.353	3.31
647.386	12.31
647.42	-4.69
647.453	4.31
647.487	-3.69
647.52	10.31
647.553	10.31
647.587	-7.69
647.62	-1.69
647.654	-1.69
647.687	-6.69
647.721	10.31
647.754	11.31
647.788	8.31
647.821	-0.69
647.855	-9.69
647.888	7.31
647.922	19.31
647.955	5.31
647.989	18.31
648.022	4.31
648.055	23.31
648.089	-8.69
648.122	10.31
648.156	14.31
648.189	8.31
648.223	21.31
648.256	17.31
648.29	16.31
648.323	-3.69
648.356	20.31
648.39	26.31
648.423	3.31
648.457	-14.69
648.49	-0.69
648.523	8.31
648.557	2.31
648.59	-0.69
648.624	13.31
648.657	11.31
648.69	19.31
648.724	14.31
648.757	12.31
648.791	27.31
648.824	16.31
648.857	16.31
648.891	-10.69
648.924	12.31
648.957	35.31
648.991	-7.69
649.024	6.31
649.057	-2.69
649.091	-22.69
649.124	16.31
649.158	-1.69
649.191	32.31
649.224	-1.69
649.258	-2.69
649.291	14.31
649.324	3.31
649.358	4.31
649.391	12.31
649.424	-5.69
649.458	14.31
649.491	9.31
649.524	2.31
649.557	-11.69
649.591	-10.69
649.624	11.31
649.657	-20.69
649.691	4.31
649.724	8.31
649.757	7.31
649.791	-2.69
649.824	25.31
649.857	17.31
649.89	12.31
649.924	-6.69
649.957	-14.69
649.99	4.31
650.023	12.31
650.057	8.31
650.09	11.31
650.123	9.31
650.157	17.31
650.19	22.31
650.223	-1.69
650.256	0.31
650.29	-2.69
650.323	0.31
650.356	19.31
650.389	-3.69
650.423	-15.69
650.456	-3.69
650.489	-5.69
650.522	2.31
650.555	23.31
650.589	0.31
650.622	6.31
650.655	19.31
650.688	20.31
650.721	5.31
650.755	16.31
650.788	7.31
650.821	7.31
650.854	-4.69
650.887	7.31
650.921	-5.69
650.954	-0.69
650.987	-2.69
651.02	12.31
651.053	-17.69
651.087	-12.69
651.12	21.31
651.153	9.31
651.186	-5.69
651.219	5.31
651.252	8.31
651.286	9.31
651.319	12.31
651.352	26.31
651.385	13.31
651.418	11.31
651.451	14.31
651.484	12.31
651.518	-4.69
651.551	25.31
651.584	1.31
651.617	29.31
651.65	16.31
651.683	5.31
651.716	7.31
651.749	-2.69
651.783	-3.69
651.816	10.31
651.849	12.31
651.882	17.31
651.915	1.31
651.948	10.31
651.981	-5.69
652.014	0.31
652.047	3.31
652.08	-12.69
652.114	25.31
652.147	1.31
652.18	17.31
652.213	4.31
652.246	0.31
652.279	-7.69
652.312	4.31
652.345	5.31
652.378	12.31
652.411	30.31
652.444	5.31
652.477	-12.69
652.51	4.31
652.543	-11.69
652.576	14.31
652.609	-2.69
652.642	-4.69
652.675	19.31
652.709	8.31
652.742	-0.69
652.775	8.31
652.808	2.31
652.841	7.31
652.874	14.31
652.907	2.31
652.94	12.31
652.973	-6.69
653.006	5.31
653.039	7.31
653.072	-10.69
653.105	-7.69
653.138	3.31
653.171	-20.69
653.204	-11.69
653.237	18.31
653.27	9.31
653.303	30.31
653.336	13.31
653.368	4.31
653.401	3.31
653.434	-11.69
653.467	24.31
653.5	-3.69
653.533	5.31
653.566	11.31
653.599	7.31
653.632	3.31
653.665	10.31
653.698	6.31
653.731	4.31
653.764	1.31
653.797	16.31
653.83	14.31
653.863	12.31
653.896	15.31
653.929	4.31
653.961	2.31
653.994	15.31
654.027	2.31
654.06	9.31
654.093	16.31
654.126	20.31
654.159	18.31
654.192	12.31
654.225	-3.69
654.258	15.31
654.29	8.31
654.323	15.31
654.356	3.31
654.389	11.31
654.422	0.31
654.455	-10.69
654.488	1.31
654.521	-34.69
654.553	-12.69
654.586	12.31
654.619	4.31
654.652	-6.69
654.685	12.31
654.718	20.31
654.751	-0.69
654.783	-2.69
654.816	18.31
654.849	22.31
654.882	0.31
654.915	13.31
654.948	7.31
654.98	7.31
655.013	10.31
655.046	6.31
655.079	-1.69
655.112	6.31
655.144	-17.69
655.177	-1.69
655.21	15.31
655.243	13.31
655.276	-7.69
655.308	4.31
655.341	-18.69
655.374	8.31
655.407	-5.69
655.44	13.31
655.472	10.31
655.505	8.31
655.538	9.31
655.571	36.31
655.603	6.31
655.636	-0.69
655.669	7.31
655.702	13.31
655.734	-0.69
655.767	-5.69
655.8	3.31
655.833	19.31
655.865	31.31
655.898	8.31
655.931	2.31
655.964	29.31
655.996	24.31
656.029	25.31
656.062	27.31
656.095	46.31
656.127	92.31
656.16	218.31
656.193	617.31
656.225	952.31
656.258	569.31
656.291	221.31
656.324	177.31
656.356	363.31
656.389	759.31
656.422	691.31
656.454	241.31
656.487	76.31
656.52	42.31
656.552	28.31
656.585	19.31
656.618	12.31
656.65	35.31
656.683	-1.69
656.716	11.31
656.748	-1.69
656.781	-17.69
656.814	0.31
656.846	6.31
656.879	14.31
656.912	5.31
656.944	-5.69
656.977	-7.69
657.01	-9.69
657.042	2.31
657.075	21.31
657.108	5.31
657.14	5.31
657.173	16.31
657.205	33.31
657.238	2.31
657.271	12.31
657.303	-4.69
657.336	-10.69
657.369	1.31
657.401	-3.69
657.434	6.31
657.466	25.31
657.499	8.31
657.532	-0.69
657.564	0.31
657.597	3.31
657.629	-1.69
657.662	10.31
657.694	10.31
657.727	-13.69
657.76	19.31
657.792	-4.69
657.825	-4.69
657.857	-6.69
657.89	4.31
657.922	7.31
657.955	-17.69
657.987	1.31
658.02	16.31
658.053	13.31
658.085	10.31
658.118	5.31
658.15	21.31
658.183	31.31
658.215	-2.69
658.248	12.31
658.28	2.31
658.313	25.31
658.345	13.31
658.378	8.31
658.41	17.31
658.443	24.31
658.475	5.31
658.508	-6.69
658.54	8.31
658.573	1.31
658.605	0.31
658.638	-6.69
658.67	-6.69
658.703	2.31
658.735	-8.69
658.768	10.31
658.8	5.31
658.833	16.31
658.865	-9.69
658.898	12.31
658.93	4.31
658.963	5.31
658.995	7.31
659.028	10.31
659.06	4.31
659.092	1.31
659.125	-4.69
659.157	20.31
659.19	-1.69
659.222	2.31
659.255	5.31
659.287	8.31
659.32	4.31
659.352	8.31
659.384	12.31
659.417	-1.69
659.449	0.31
659.482	13.31
659.514	-15.69
659.546	-26.69
659.579	10.31
659.611	1.31
659.644	1.31
659.676	-5.69
659.708	-1.69
659.741	10.31
659.773	15.31
659.806	-2.69
659.838	9.31
659.87	-4.69
659.903	-12.69
659.935	8.31
659.967	1.31
660	-3.69
660.032	-15.69
660.065	2.31
660.097	-0.69
660.129	0.31
660.162	-4.69
660.194	24.31
660.226	-4.69
660.259	-2.69
660.291	4.31
660.323	-1.69
660.356	2.31
660.388	1.31
660.42	3.31
660.453	26.31
660.485	13.31
660.517	14.31
660.55	23.31
660.582	2.31
660.614	1.31
660.647	-0.69
660.679	-20.69
660.711	16.31
660.743	-13.69
660.776	-8.69
660.808	3.31
660.84	6.31
660.873	14.31
660.905	13.31
660.937	-0.69
660.969	-12.69
661.002	-8.69
661.034	7.31
661.066	8.31
661.099	9.31
661.131	14.31
661.163	15.31
661.195	7.31
661.228	3.31
661.26	10.31
661.292	-5.69
661.324	-1.69
661.357	22.31
661.389	17.31
661.421	18.31
661.453	-3.69
661.485	19.31
661.518	17.31
661.55	-10.69
661.582	-7.69
661.614	2.31
661.647	5.31
661.679	20.31
661.711	18.31
661.743	-3.69
661.775	8.31
661.808	29.31
661.84	-15.69
661.872	5.31
661.904	8.31
661.936	11.31
661.969	-10.69
662.001	-8.69
662.033	9.31
662.065	6.31
662.097	10.31
662.129	23.31
662.162	8.31
662.194	3.31
662.226	1.31
662.258	7.31
662.29	-0.69
662.322	-12.69
662.355	-13.69
662.387	14.31
662.419	0.31
662.451	6.31
662.483	3.31
662.515	3.31
662.547	1.31
662.58	-11.69
662.612	0.31
662.644	-7.69
662.676	17.31
662.708	41.31
662.74	16.31
662.772	6.31
662.804	24.31
662.836	7.31
662.869	-2.69
662.901	21.31
662.933	4.31
662.965	14.31
662.997	10.31
663.029	1.31
663.061	-4.69
663.093	1.31
663.125	19.31
663.157	13.31
663.189	8.31
663.221	10.31
663.254	16.31
663.286	10.31
663.318	3.31
663.35	-4.69
663.382	1.31
663.414	-1.69
663.446	7.31
663.478	-0.69
663.51	23.31
663.542	10.31
663.574	15.31
663.606	6.31
663.638	-7.69
663.67	8.31
663.702	7.31
663.734	7.31
663.766	-0.69
663.798	0.31
663.83	7.31
663.862	8.31
663.894	21.31
663.926	7.31
663.958	17.31
663.99	-7.69
664.022	4.31
664.054	-2.69
664.086	-11.69
664.118	-14.69
664.15	0.31
664.182	-5.69
664.214	9.31
664.246	11.31
664.278	6.31
664.31	14.31
664.342	0.31
664.374	9.31
664.406	9.31
664.438	0.31
664.47	24.31
664.502	-2.69
664.534	-4.69
664.566	-6.69
664.598	22.31
664.63	-3.69
664.662	0.31
664.693	0.31
664.725	-6.69
664.757	-2.69
664.789	6.31
664.821	-16.69
664.853	13.31
664.885	3.31
664.917	-8.69
664.949	17.31
664.981	11.31
665.013	-3.69
665.045	13.31
665.076	1.31
665.108	13.31
665.14	-7.69
665.172	-5.69
665.204	10.31
665.236	10.31
665.268	29.31
665.3	-4.69
665.331	-21.69
665.363	3.31
665.395	-0.69
665.427	-4.69
665.459	17.31
665.491	9.31
665.523	-0.69
665.555	6.31
665.586	7.31
665.618	1.31
665.65	-20.69
665.682	8.31
665.714	6.31
665.746	-12.69
665.777	-10.69
665.809	-3.69
665.841	4.31
665.873	12.31
665.905	14.31
665.937	21.31
665.968	9.31
666	-12.69
666.032	-3.69
666.064	-9.69
666.096	15.31
666.127	27.31
666.159	9.31
666.191	10.31
666.223	27.31
666.255	22.31
666.286	6.31
666.318	2.31
666.35	22.31
666.382	7.31
666.413	3.31
666.445	-0.69
666.477	-22.69
666.509	1.31
666.54	4.31
666.572	-2.69
666.604	7.31
666.636	16.31
666.667	13.31
666.699	21.31
666.731	13.31
666.763	0.31
666.794	0.31
666.826	1.31
666.858	-2.69
666.89	7.31
666.921	15.31
666.953	13.31
666.985	17.31
667.017	10.31
667.048	6.31
667.08	-13.69
667.112	-8.69
667.143	-0.69
667.175	4.31
667.207	0.31
667.238	15.31
667.27	16.31
667.302	19.31
667.334	0.31
667.365	28.31
667.397	16.31
667.429	-3.69
667.46	16.31
667.492	3.31
667.524	-16.69
667.555	-5.69
667.587	-19.69
667.619	-13.69
667.65	-7.69
667.682	7.31
667.714	19.31
667.745	0.31
667.777	4.31
667.808	6.31
667.84	15.31
667.872	5.31
667.903	27.31
667.935	11.31
667.967	6.31
667.998	9.31
668.03	5.31
668.061	-4.69
668.093	-17.69
668.125	16.31
668.156	12.31
668.188	0.31
668.22	-0.69
668.251	16.31
668.283	22.31
668.314	23.31
668.346	0.31
668.377	4.31
668.409	6.31
668.441	13.31
668.472	-0.69
668.504	12.31
668.535	12.31
668.567	6.31
668.599	-12.69
668.63	4.31
668.662	5.31
668.693	12.31
668.725	5.31
668.756	12.31
668.788	4.31
668.819	7.31
668.851	-6.69
668.882	3.31
668.914	-5.69
668.946	7.31
668.977	-6.69
669.009	-8.69
669.04	-8.69
669.072	7.31
669.103	-4.69
669.135	15.31
669.166	-9.69
669.198	-6.69
669.229	6.31
669.261	7.31
669.292	-3.69
669.324	17.31
669.355	21.31
669.387	4.31
669.418	10.31
669.45	-14.69
669.481	-3.69
669.513	3.31
669.544	-0.69
669.576	-5.69
669.607	18.31
669.639	17.31
669.67	-6.69
669.701	24.31
669.733	-7.69
669.764	-2.69
669.796	0.31
669.827	1.31
669.859	0.31
669.89	5.31
669.922	1.31
669.953	1.31
669.985	3.31
670.016	0.31
670.047	-6.69
670.079	11.31
670.11	13.31
670.142	6.31
670.173	2.31
670.204	-11.69
670.236	6.31
670.267	1.31
670.299	-10.69
670.33	-5.69
670.362	2.31
670.393	8.31
670.424	2.31
670.456	-13.69
670.487	-8.69
670.518	13.31
670.55	14.31
670.581	13.31
670.613	20.31
670.644	12.31
670.675	-2.69
670.707	4.31
670.738	16.31
670.769	3.31
670.801	-13.69
670.832	-2.69
670.864	-13.69
670.895	0.31
670.926	5.31
670.958	9.31
670.989	-7.69
671.02	12.31
671.052	18.31
671.083	-2.69
671.114	-1.69
671.146	22.31
671.177	13.31
671.208	7.31
671.24	-10.69
671.271	9.31
671.302	3.31
671.333	15.31
671.365	1.31
671.396	2.31
671.427	4.31
671.459	6.31
671.49	14.31
671.521	16.31
671.553	9.31
671.584	16.31
671.615	3.31
671.646	21.31
671.678	6.31
671.709	-4.69
671.74	-7.69
671.771	5.31
671.803	0.31
671.834	-4.69
671.865	-3.69
671.896	7.31
671.928	3.31
671.959	5.31
671.99	6.31
672.021	13.31
672.053	-2.69
672.084	30.31
672.115	10.31
672.146	8.31
672.178	-15.69
672.209	-5.69
672.24	10.31
672.271	11.31
672.303	5.31
672.334	5.31
672.365	1.31
672.396	14.31
672.427	7.31
672.459	11.31
672.49	18.31
672.521	12.31
672.552	14.31
672.583	14.31
672.615	11.31
672.646	9.31
672.677	2.31
672.708	8.31
672.739	15.31
672.77	10.31
672.802	7.31
672.833	6.31
672.864	8.31
672.895	11.31
672.926	2.31
672.957	4.31
672.989	9.31
673.02	14.31
673.051	11.31
673.082	30.31
673.113	21.31
673.144	3.31
673.175	12.31
673.206	-0.69
673.238	-26.69
673.269	5.31
673.3	4.31
673.331	13.31
673.362	-19.69
673.393	-7.69
673.424	2.31
673.455	22.31
673.487	4.31
673.518	18.31
673.549	4.31
673.58	16.31
673.611	7.31
673.642	4.31
673.673	-10.69
673.704	2.31
673.735	14.31
673.766	13.31
673.797	-2.69
673.828	0.31
673.86	-4.69
673.891	9.31
673.922	-8.69
673.953	5.31
673.984	-0.69
674.015	8.31
674.046	2.31
674.077	20.31
674.108	-3.69
674.139	5.31
674.17	-10.69
674.201	3.31
674.232	-7.69
674.263	-18.69
674.294	-8.69
674.325	7.31
674.356	9.31
674.387	12.31
674.418	5.31
674.449	-8.69
674.48	3.31
674.511	11.31
674.542	17.31
674.573	8.31
674.604	16.31
674.635	-3.69
674.666	12.31
674.697	8.31
674.728	20.31
674.759	4.31
674.79	-13.69
674.821	-11.69
674.852	4.31
674.883	-5.69
674.914	8.31
674.945	2.31
674.976	3.31
675.007	-2.69
675.038	-5.69
675.069	-7.69
675.1	-2.69
675.131	-0.69
675.162	5.31
675.193	10.31
675.224	0.31
675.254	2.31
675.285	4.31
675.316	9.31
675.347	8.31
675.378	-2.69
675.409	-6.69
675.44	12.31
675.471	4.31
675.502	-3.69
675.533	-5.69
675.564	1.31
675.595	7.31
675.625	27.31
675.656	23.31
675.687	8.31
675.718	-10.69
675.749	2.31
675.78	16.31
675.811	-11.69
675.842	13.31
675.873	-4.69
675.903	-6.69
675.934	0.31
675.965	3.31
675.996	2.31
676.027	10.31
676.058	-1.69
676.089	-13.69
676.119	10.31
676.15	12.31
676.181	9.31
676.212	3.31
676.243	-2.69
676.274	0.31
676.304	-1.69
676.335	-0.69
676.366	1.31
676.397	12.31
676.428	-0.69
676.459	1.31
676.489	21.31
676.52	20.31
676.551	11.31
676.582	6.31
676.613	2.31
676.643	-18.69
676.674	2.31
676.705	8.31
676.736	15.31
676.767	14.31
676.797	17.31
676.828	9.31
676.859	1.31
676.89	1.31
676.92	3.31
676.951	7.31
676.982	9.31
677.013	-5.69
677.044	27.31
677.074	8.31
677.105	2.31
677.136	3.31
677.167	-4.69
677.197	30.31
677.228	-0.69
677.259	-7.69
677.289	10.31
677.32	-9.69
677.351	5.31
677.382	-3.69
677.412	-5.69
677.443	8.31
677.474	6.31
677.505	1.31
677.535	11.31
677.566	6.31
677.597	-7.69
677.627	0.31
677.658	5.31
677.689	11.31
677.72	3.31
677.75	-2.69
677.781	12.31
677.812	-11.69
677.842	14.31
677.873	0.31
677.904	4.31
677.934	3.31
677.965	4.31
677.996	-15.69
678.026	2.31
678.057	6.31
678.088	6.31
678.118	-10.69
678.149	-6.69
678.18	-5.69
678.21	5.31
678.241	8.31
678.272	-4.69
678.302	18.31
678.333	7.31
678.363	11.31
678.394	11.31
678.425	7.31
678.455	-6.69
678.486	21.31
678.517	-6.69
678.547	-3.69
678.578	11.31
678.608	-4.69
678.639	10.31
678.67	12.31
678.7	4.31
678.731	-10.69
678.761	-2.69
678.792	18.31
678.823	28.31
678.853	7.31
678.884	11.31
678.914	3.31
678.945	20.31
678.975	4.31
679.006	8.31
679.037	-5.69
679.067	40.31
679.098	3.31
679.128	4.31
679.159	13.31
679.189	11.31
679.22	3.31
679.25	2.31
679.281	7.31
679.312	-0.69
679.342	-0.69
679.373	23.31
679.403	9.31
679.434	18.31
679.464	10.31
679.495	4.31
679.525	6.31
679.556	-10.69
679.586	7.31
679.617	17.31
679.647	-4.69
679.678	11.31
679.708	10.31
679.739	17.31
679.769	12.31
679.8	-9.69
679.83	13.31
679.861	19.31
679.891	-2.69
679.922	-1.69
679.952	11.31
679.983	2.31
680.013	3.31
680.044	-7.69
680.074	18.31
680.105	25.31
680.135	3.31
680.165	1.31
680.196	1.31
680.226	-18.69
680.257	5.31
680.287	6.31
680.318	16.31
680.348	8.31
680.379	34.31
680.409	17.31
680.439	11.31
680.47	6.31
680.5	1.31
680.531	0.31
680.561	15.31
680.592	-6.69
680.622	25.31
680.652	12.31
680.683	8.31
680.713	-5.69
680.744	2.31
680.774	-0.69
680.804	7.31
680.835	2.31
680.865	7.31
680.896	22.31
680.926	30.31
680.956	1.31
680.987	-6.69
681.017	2.31
681.047	20.31
681.078	13.31
681.108	9.31
681.139	3.31
681.169	-10.69
681.199	-3.69
681.23	12.31
681.26	27.31
681.29	16.31
681.321	-6.69
681.351	12.31
681.381	-11.69
681.412	8.31
681.442	7.31
681.472	16.31
681.503	16.31
681.533	13.31
681.563	4.31
681.594	4.31
681.624	6.31
681.654	3.31
681.685	0.31
681.715	8.31
681.745	4.31
681.775	3.31
681.806	9.31
681.836	15.31
681.866	-1.69
681.897	10.31
681.927	-3.69
681.957	1.31
681.987	12.31
682.018	-11.69
682.048	3.31
682.078	19.31
682.109	18.31
682.139	12.31
682.169	9.31
682.199	12.31
682.23	-7.69
682.26	12.31
682.29	8.31
682.32	2.31
682.351	7.31
682.381	10.31
682.411	-1.69
682.441	13.31
682.472	0.31
682.502	1.31
682.532	-9.69
682.562	-3.69
682.592	22.31
682.623	29.31
682.653	8.31
682.683	8.31
682.713	19.31
682.743	6.31
682.774	0.31
682.804	14.31
682.834	6.31
682.864	-1.69
682.894	8.31
682.925	4.31
682.955	5.31
682.985	-3.69
683.015	-3.69
683.045	-0.69
683.076	-21.69
683.106	7.31
683.136	-10.69
683.166	-18.69
683.196	-3.69
683.226	5.31
683.257	-15.69
683.287	16.31
683.317	8.31
683.347	5.31
683.377	-7.69
683.407	12.31
683.437	0.31
683.468	26.31
683.498	5.31
683.528	2.31
683.558	2.31
683.588	9.31
683.618	-10.69
683.648	0.31
683.678	7.31
683.708	-0.69
683.739	-6.69
683.769	3.31
683.799	-1.69
683.829	-0.69
683.859	16.31
683.889	18.31
683.919	-0.69
683.949	13.31
683.979	7.31
684.009	0.31
684.039	13.31
684.07	3.31
684.1	3.31
684.13	13.31
684.16	6.31
684.19	-8.69
684.22	-15.69
684.25	15.31
684.28	-5.69
684.31	1.31
684.34	11.31
684.37	14.31
684.4	-2.69
684.43	7.31
684.46	15.31
684.49	2.31
684.52	12.31
684.55	28.31
684.58	2.31
684.61	3.31
684.64	22.31
684.67	15.31
684.7	12.31
684.73	9.31
684.76	-1.69
684.79	19.31
684.82	5.31
684.85	-1.69
684.88	5.31
684.91	-2.69
684.94	1.31
684.97	9.31
685	0.31
685.03	-2.69
685.06	-9.69
685.09	13.31
685.12	27.31
685.15	10.31
685.18	17.31
685.21	20.31
685.24	16.31
685.27	-3.69
685.3	-3.69
685.33	13.31
685.36	4.31
685.39	11.31
685.42	1.31
685.45	7.31
685.48	1.31
685.51	0.31
685.54	29.31
685.569	17.31
685.599	17.31
685.629	21.31
685.659	9.31
685.689	-7.69
685.719	-1.69
685.749	-8.69
685.779	15.31
685.809	13.31
685.839	-1.69
685.869	8.31
685.898	22.31
685.928	11.31
685.958	7.31
685.988	25.31
686.018	3.31
686.048	20.31
686.078	29.31
686.108	31.31
686.137	9.31
686.167	19.31
686.197	-0.69
686.227	-11.69
686.257	35.31
686.287	27.31
686.317	26.31
686.346	17.31
686.376	7.31
686.406	1.31
686.436	9.31
686.466	-5.69
686.496	4.31
686.525	7.31
686.555	2.31
686.585	29.31
686.615	46.31
686.645	20.31
686.675	6.31
686.704	7.31
686.734	12.31
686.764	-7.69
686.794	8.31
686.824	6.31
686.853	16.31
686.883	4.31
686.913	17.31
686.943	14.31
686.973	3.31
687.002	7.31
687.032	-1.69
687.062	6.31
687.092	22.31
687.121	7.31
687.151	-2.69
687.181	9.31
687.211	15.31
687.24	16.31
687.27	8.31
687.3	-12.69
687.33	5.31
687.359	-13.69
687.389	-2.69
687.419	20.31
687.449	4.31
687.478	8.31
687.508	1.31
687.538	21.31
687.568	20.31
687.597	10.31
687.627	4.31
687.657	9.31
687.686	12.31
687.716	40.31
687.746	11.31
687.776	0.31
687.805	17.31
687.835	7.31
687.865	26.31
687.894	16.31
687.924	4.31
687.954	9.31
687.983	16.31
688.013	22.31
688.043	4.31
688.072	13.31
688.102	8.31
688.132	8.31
688.161	-1.69
688.191	-6.69
688.221	15.31
688.25	-4.69
688.28	8.31
688.31	10.31
688.339	7.31
688.369	-2.69
688.399	4.31
688.428	7.31
688.458	7.31
688.488	-1.69
688.517	17.31
688.547	6.31
688.576	35.31
688.606	13.31
688.636	-3.69
688.665	16.31
688.695	8.31
688.725	8.31
688.754	-7.69
688.784	-14.69
688.813	7.31
688.843	6.31
688.873	-0.69
688.902	-11.69
688.932	-14.69
688.961	7.31
688.991	11.31
689.02	3.31
689.05	0.31
689.08	5.31
689.109	17.31
689.139	10.31
689.168	7.31
689.198	13.31
689.227	0.31
689.257	6.31
689.287	10.31
689.316	-6.69
689.346	7.31
689.375	6.31
689.405	16.31
689.434	0.31
689.464	-0.69
689.493	-2.69
689.523	10.31
689.552	-3.69
689.582	5.31
689.611	-1.69
689.641	0.31
689.67	13.31
689.7	17.31
689.73	20.31
689.759	15.31
689.789	25.31
689.818	-1.69
689.848	-1.69
689.877	19.31
689.906	5.31
689.936	-8.69
689.965	2.31
689.995	15.31
690.024	7.31
690.054	-3.69
690.083	-0.69
690.113	-1.69
690.142	7.31
690.172	11.31
690.201	11.31
690.231	9.31
690.26	17.31
690.29	-0.69
690.319	11.31
690.348	8.31
690.378	19.31
690.407	15.31
690.437	19.31
690.466	1.31
690.496	8.31
690.525	7.31
690.555	10.31
690.584	9.31
690.613	11.31
690.643	18.31
690.672	10.31
690.702	18.31
690.731	8.31
690.76	-3.69
690.79	0.31
690.819	4.31
690.849	4.31
690.878	0.31
690.907	11.31
690.937	34.31
690.966	19.31
690.996	11.31
691.025	-3.69
691.054	-7.69
691.084	6.31
691.113	9.31
691.142	3.31
691.172	3.31
691.201	18.31
691.23	14.31
691.26	3.31
691.289	15.31
691.319	9.31
691.348	-6.69
691.377	19.31
691.407	7.31
691.436	7.31
691.465	12.31
691.495	7.31
691.524	-2.69
691.553	11.31
691.583	-4.69
691.612	9.31
691.641	3.31
691.67	12.31
691.7	9.31
691.729	-16.69
691.758	-2.69
691.788	-1.69
691.817	11.31
691.846	2.31
691.876	-2.69
691.905	18.31
691.934	-3.69
691.963	12.31
691.993	9.31
692.022	4.31
692.051	-2.69
692.081	16.31
692.11	31.31
692.139	11.31
692.168	5.31
692.198	24.31
692.227	12.31
692.256	1.31
692.285	7.31
692.315	11.31
692.344	15.31
692.373	9.31
692.402	-16.69
692.432	-12.69
692.461	0.31
692.49	-6.69
692.519	0.31
692.548	19.31
692.578	24.31
692.607	-2.69
692.636	-5.69
692.665	13.31
692.694	2.31
692.724	3.31
692.753	4.31
692.782	6.31
692.811	-17.69
692.84	4.31
692.87	3.31
692.899	15.31
692.928	8.31
692.957	17.31
692.986	20.31
693.016	8.31
693.045	9.31
693.074	10.31
693.103	9.31
693.132	15.31
693.161	13.31
693.191	11.31
693.22	-5.69
693.249	1.31
693.278	-3.69
693.307	18.31
693.336	-19.69
693.365	-6.69
693.395	12.31
693.424	12.31
693.453	17.31
693.482	-1.69
693.511	16.31
693.54	10.31
693.569	11.31
693.598	8.31
693.628	13.31
693.657	5.31
693.686	15.31
693.715	17.31
693.744	16.31
693.773	9.31
693.802	20.31
693.831	7.31
693.86	19.31
693.889	4.31
693.919	14.31
693.948	20.31
693.977	4.31
694.006	-1.69
694.035	-3.69
694.064	-4.69
694.093	9.31
694.122	7.31
694.151	2.31
694.18	4.31
694.209	27.31
694.238	10.31
694.267	23.31
694.296	14.31
694.325	14.31
694.354	23.31
694.383	7.31
694.412	-1.69
694.441	-7.69
694.471	14.31
694.5	-2.69
694.529	1.31
694.558	32.31
694.587	21.31
694.616	-2.69
694.645	2.31
694.674	12.31
694.703	8.31
694.732	9.31
694.761	27.31
694.79	33.31
694.819	7.31
694.848	16.31
694.877	18.31
694.906	27.31
694.935	9.31
694.963	28.31
694.992	12.31
695.021	18.31
695.05	-4.69
695.079	-6.69
695.108	4.31
695.137	18.31
695.166	3.31
695.195	-7.69
695.224	15.31
695.253	2.31
695.282	2.31
695.311	5.31
695.34	17.31
695.369	6.31
695.398	11.31
695.427	25.31
695.456	7.31
695.485	10.31
695.513	0.31
695.542	10.31
695.571	-6.69
695.6	12.31
695.629	-4.69
695.658	-3.69
695.687	-0.69
695.716	7.31
695.745	26.31
695.774	-2.69
695.802	4.31
695.831	4.31
695.86	7.31
695.889	13.31
695.918	10.31
695.947	8.31
695.976	8.31
696.005	3.31
696.033	15.31
696.062	10.31
696.091	-0.69
696.12	0.31
696.149	7.31
696.178	15.31
696.207	2.31
696.235	0.31
696.264	15.31
696.293	14.31
696.322	13.31
696.351	15.31
696.38	11.31
696.408	5.31
696.437	9.31
696.466	26.31
696.495	15.31
696.524	24.31
696.553	21.31
696.581	19.31
696.61	12.31
696.639	-7.69
696.668	11.31
696.697	8.31
696.725	21.31
696.754	25.31
696.783	11.31
696.812	10.31
696.84	28.31
696.869	10.31
696.898	16.31
696.927	16.31
696.956	22.31
696.984	3.31
697.013	13.31
697.042	7.31
697.071	18.31
697.099	29.31
697.128	18.31
697.157	19.31
697.186	6.31
697.214	1.31
697.243	24.31
697.272	3.31
697.301	15.31
697.329	8.31
697.358	7.31
697.387	19.31
697.415	10.31
697.444	12.31
697.473	0.31
697.502	0.31
697.53	9.31
697.559	-1.69
697.588	11.31
697.616	3.31
697.645	3.31
697.674	17.31
697.703	18.31
697.731	18.31
697.76	8.31
697.789	6.31
697.817	5.31
697.846	18.31
697.875	0.31
697.903	20.31
697.932	26.31
697.961	18.31
697.989	14.31
698.018	20.31
698.047	6.31
698.075	22.31
698.104	4.31
698.133	5.31
698.161	4.31
698.19	4.31
698.218	17.31
698.247	8.31
698.276	11.31
698.304	6.31
698.333	22.31
698.362	9.31
698.39	12.31
698.419	-0.69
698.447	-3.69
698.476	-1.69
698.505	4.31
698.533	4.31
698.562	5.31
698.591	-4.69
698.619	2.31
698.648	9.31
698.676	22.31
698.705	22.31
698.733	-7.69
698.762	4.31
698.791	-0.69
698.819	4.31
698.848	8.31
698.876	27.31
698.905	15.31
698.933	10.31
698.962	0.31
698.991	11.31
699.019	11.31
699.048	6.31
699.076	2.31
699.105	-6.69
699.133	14.31
699.162	15.31
699.19	13.31
699.219	24.31
699.248	13.31
699.276	7.31
699.305	4.31
699.333	-0.69
699.362	-15.69
699.39	-3.69
699.419	-0.69
699.447	5.31
699.476	11.31
699.504	0.31
699.533	0.31
699.561	-20.69
699.59	4.31
699.618	3.31
699.647	-2.69
699.675	10.31
699.704	15.31
699.732	17.31
699.761	9.31
699.789	4.31
699.818	14.31
699.846	4.31
699.874	7.31
699.903	10.31
699.931	12.31
699.96	2.31
699.988	8.31
700.017	2.31
700.045	13.31
700.074	-7.69
700.102	18.31
700.13	7.31
700.159	10.31
700.187	-1.69
700.216	7.31
700.244	-5.69
700.273	-14.69
700.301	15.31
700.329	11.31
700.358	20.31
700.386	15.31
700.415	12.31
700.443	12.31
700.472	4.31
700.5	10.31
700.528	16.31
700.557	23.31
700.585	-7.69
700.614	0.31
700.642	1.31
700.67	21.31
700.699	11.31
700.727	5.31
700.755	13.31
700.784	10.31
700.812	14.31
700.841	7.31
700.869	9.31
700.897	-8.69
700.926	4.31
700.954	9.31
700.982	10.31
701.011	16.31
701.039	21.31
701.067	17.31
701.096	5.31
701.124	1.31
701.152	5.31
701.181	0.31
701.209	1.31
701.237	6.31
701.266	-8.69
701.294	-0.69
701.322	10.31
701.351	11.31
701.379	0.31
701.407	15.31
701.435	16.31
701.464	10.31
701.492	18.31
701.52	9.31
701.549	0.31
701.577	1.31
701.605	-2.69
701.634	8.31
701.662	9.31
701.69	-5.69
701.718	10.31
701.747	13.31
701.775	8.31
701.803	0.31
701.831	-3.69
701.86	4.31
701.888	11.31
701.916	15.31
701.944	14.31
701.973	-2.69
702.001	-1.69
702.029	-13.69
702.057	9.31
702.086	-6.69
702.114	3.31
702.142	-3.69
702.17	0.31
702.199	0.31
702.227	5.31
702.255	4.31
702.283	14.31
702.311	20.31
702.34	2.31
702.368	-4.69
702.396	0.31
702.424	-5.69
702.452	-0.69
702.481	-1.69
702.509	9.31
702.537	1.31
702.565	14.31
702.593	-0.69
702.621	-4.69
702.65	9.31
702.678	17.31
702.706	9.31
702.734	2.31
702.762	3.31
702.79	15.31
702.819	8.31
702.847	15.31
702.875	25.31
702.903	18.31
702.931	-8.69
702.959	2.31
702.988	4.31
703.016	-12.69
703.044	4.31
703.072	11.31
703.1	2.31
703.128	21.31
703.156	31.31
703.184	-9.69
703.212	20.31
703.241	11.31
703.269	11.31
703.297	13.31
703.325	3.31
703.353	9.31
703.381	-1.69
703.409	4.31
703.437	0.31
703.465	5.31
703.493	13.31
703.522	19.31
703.55	15.31
703.578	15.31
703.606	8.31
703.634	-3.69
703.662	5.31
703.69	-4.69
703.718	14.31
703.746	31.31
703.774	-4.69
703.802	11.31
703.83	4.31
703.858	17.31
703.886	8.31
703.914	-5.69
703.942	9.31
703.97	-8.69
703.998	0.31
704.027	15.31
704.055	12.31
704.083	3.31
704.111	3.31
704.139	-6.69
704.167	-0.69
704.195	19.31
704.223	-0.69
704.251	11.31
704.279	-0.69
704.307	9.31
704.335	4.31
704.363	2.31
704.391	4.31
704.419	-4.69
704.447	5.31
704.475	-1.69
704.503	-2.69
704.531	4.31
704.558	23.31
704.586	-11.69
704.614	1.31
704.642	21.31
704.67	-5.69
704.698	6.31
704.726	14.31
704.754	5.31
704.782	6.31
704.81	-3.69
704.838	17.31
704.866	28.31
704.894	-8.69
704.922	4.31
704.95	14.31
704.978	7.31
705.006	11.31
705.034	26.31
705.061	6.31
705.089	12.31
705.117	-9.69
705.145	3.31
705.173	8.31
705.201	12.31
705.229	12.31
705.257	21.31
705.285	18.31
705.313	11.31
705.34	-8.69
705.368	-14.69
705.396	12.31
705.424	22.31
705.452	10.31
705.48	5.31
705.508	-6.69
705.536	4.31
705.563	5.31
705.591	20.31
705.619	1.31
705.647	-6.69
705.675	15.31
705.703	5.31
705.731	4.31
705.758	11.31
705.786	-5.69
705.814	23.31
705.842	10.31
705.87	9.31
705.898	18.31
705.925	7.31
705.953	16.31
705.981	-0.69
706.009	-7.69
706.037	8.31
706.065	16.31
706.092	-6.69
706.12	11.31
706.148	-3.69
706.176	-6.69
706.204	19.31
706.231	22.31
706.259	3.31
706.287	-5.69
706.315	3.31
706.342	5.31
706.37	15.31
706.398	-0.69
706.426	-5.69
706.454	11.31
706.481	1.31
706.509	5.31
706.537	8.31
706.565	-2.69
706.592	4.31
706.62	2.31
706.648	23.31
706.676	-14.69
706.703	4.31
706.731	11.31
706.759	5.31
706.787	14.31
706.814	9.31
706.842	13.31
706.87	-3.69
706.897	9.31
706.925	10.31
706.953	18.31
706.981	22.31
707.008	22.31
707.036	21.31
707.064	-0.69
707.091	-5.69
707.119	10.31
707.147	11.31
707.174	15.31
707.202	14.31
707.23	4.31
707.258	25.31
707.285	-4.69
707.313	-3.69
707.341	-14.69
707.368	-1.69
707.396	12.31
707.424	24.31
707.451	15.31
707.479	6.31
707.507	4.31
707.534	-14.69
707.562	2.31
707.59	6.31
707.617	-3.69
707.645	6.31
707.672	9.31
707.7	9.31
707.728	3.31
707.755	8.31
707.783	7.31
707.811	8.31
707.838	1.31
707.866	-6.69
707.893	-10.69
707.921	1.31
707.949	-3.69
707.976	9.31
708.004	5.31
708.031	10.31
708.059	2.31
708.087	-2.69
708.114	-14.69
708.142	-3.69
708.169	-3.69
708.197	-4.69
708.225	4.31
708.252	-7.69
708.28	19.31
708.307	7.31
708.335	-2.69
708.362	-2.69
708.39	-7.69
708.418	11.31
708.445	8.31
708.473	10.31
708.5	0.31
708.528	12.31
708.555	6.31
708.583	16.31
708.61	0.31
708.638	6.31
708.665	-16.69
708.693	10.31
708.72	-0.69
708.748	-13.69
708.776	1.31
708.803	25.31
708.831	26.31
708.858	9.31
708.886	11.31
708.913	15.31
708.941	3.31
708.968	12.31
708.996	-1.69
709.023	22.31
709.051	7.31
709.078	-10.69
709.105	8.31
709.133	9.31
709.16	9.31
709.188	21.31
709.215	15.31
709.243	1.31
709.27	-12.69
709.298	8.31
709.325	14.31
709.353	7.31
709.38	2.31
709.408	15.31
709.435	-8.69
709.462	8.31
709.49	10.31
709.517	-1.69
709.545	4.31
709.572	6.31
709.6	-5.69
709.627	2.31
709.655	0.31
709.682	-3.69
709.709	-8.69
709.737	15.31
709.764	11.31
709.792	13.31
709.819	22.31
709.846	-0.69
709.874	17.31
709.901	16.31
709.929	17.31
709.956	23.31
709.983	0.31
710.011	7.31
710.038	2.31
710.066	8.31
710.093	11.31
710.12	11.31
710.148	1.31
710.175	5.31
710.202	-0.69
710.23	13.31
710.257	5.31
710.284	7.31
710.312	14.31
710.339	7.31
710.366	-5.69
710.394	-0.69
710.421	-3.69
710.448	14.31
710.476	-15.69
710.503	-3.69
710.53	16.31
710.558	21.31
710.585	23.31
710.612	5.31
710.64	6.31
710.667	0.31
710.694	9.31
710.722	-3.69
710.749	1.31
710.776	8.31
710.804	16.31
710.831	13.31
710.858	19.31
710.885	13.31
710.913	10.31
710.94	21.31
710.967	1.31
710.995	5.31
711.022	0.31
711.049	14.31
711.076	3.31
711.104	-0.69
711.131	-19.69
711.158	16.31
711.185	29.31
711.213	4.31
711.24	-0.69
711.267	-5.69
711.294	9.31
711.322	14.31
711.349	13.31
711.376	2.31
711.403	0.31
711.431	2.31
711.458	7.31
711.485	8.31
711.512	8.31
711.54	1.31
711.567	14.31
711.594	7.31
711.621	11.31
711.648	10.31
711.676	1.31
711.703	9.31
711.73	-3.69
711.757	7.31
711.784	-0.69
711.812	4.31
711.839	5.31
711.866	-5.69
711.893	5.31
711.92	8.31
711.947	0.31
711.975	5.31
712.002	11.31
712.029	17.31
712.056	8.31
712.083	4.31
712.11	-16.69
712.138	2.31
712.165	7.31
712.192	-3.69
712.219	-3.69
712.246	-18.69
712.273	4.31
712.3	1.31
712.328	-0.69
712.355	5.31
712.382	9.31
712.409	23.31
712.436	6.31
712.463	9.31
712.49	16.31
712.517	3.31
712.544	8.31
712.572	13.31
712.599	-3.69
712.626	9.31
712.653	-3.69
712.68	-12.69
712.707	12.31
712.734	9.31
712.761	-0.69
712.788	15.31
712.815	4.31
712.842	10.31
712.87	3.31
712.897	3.31
712.924	21.31
712.951	19.31
712.978	12.31
713.005	17.31
713.032	10.31
713.059	9.31
713.086	14.31
713.113	-10.69
713.14	-2.69
713.167	10.31
713.194	0.31
713.221	-5.69
713.248	9.31
713.275	13.31
713.302	-7.69
713.329	13.31
713.356	9.31
713.383	0.31
713.41	11.31
713.437	-3.69
713.464	7.31
713.491	15.31
713.518	-10.69
713.545	12.31
713.572	10.31
713.599	17.31
713.626	14.31
713.653	22.31
713.68	-18.69
713.707	10.31
713.734	14.31
713.761	27.31
713.788	7.31
713.815	7.31
713.842	3.31
713.869	-7.69
713.896	0.31
713.923	-4.69
713.95	-2.69
713.977	1.31
714.004	0.31
714.031	-4.69
714.058	0.31
714.085	-1.69
714.112	20.31
714.139	5.31
714.165	5.31
714.192	-4.69
714.219	17.31
714.246	-13.69
714.273	4.31
714.3	5.31
714.327	0.31
714.354	6.31
714.381	3.31
714.408	0.31
714.435	-2.69
714.461	-0.69
714.488	21.31
714.515	-0.69
714.542	-1.69
714.569	-10.69
714.596	-13.69
714.623	0.31
714.65	2.31
714.677	3.31
714.703	3.31
714.73	7.31
714.757	20.31
714.784	4.31
714.811	2.31
714.838	13.31
714.865	0.31
714.891	11.31
714.918	4.31
714.945	2.31
714.972	1.31
714.999	19.31
715.026	-3.69
715.052	23.31
715.079	-0.69
715.106	5.31
715.133	6.31
715.16	0.31
715.187	7.31
715.213	0.31
715.24	2.31
715.267	16.31
715.294	3.31
715.321	-18.69
715.347	-6.69
715.374	-7.69
715.401	5.31
715.428	-5.69
715.455	8.31
715.481	-10.69
715.508	21.31
715.535	16.31
715.562	17.31
715.588	18.31
715.615	11.31
715.642	0.31
715.669	15.31
715.695	9.31
715.722	-6.69
715.749	5.31
715.776	12.31
715.802	8.31
715.829	8.31
715.856	5.31
715.883	8.31
715.909	-6.69
715.936	4.31
715.963	0.31
715.99	-9.69
716.016	-3.69
716.043	13.31
716.07	-0.69
716.096	-4.69
716.123	17.31
716.15	0.31
716.177	3.31
716.203	14.31
716.23	17.31
716.257	24.31
716.283	18.31
716.31	7.31
716.337	-5.69
716.363	-2.69
716.39	7.31
716.417	15.31
716.443	8.31
716.47	0.31
716.497	17.31
716.523	5.31
716.55	2.31
716.577	26.31
716.603	10.31
716.63	6.31
716.657	8.31
716.683	1.31
716.71	11.31
716.737	6.31
716.763	7.31
716.79	8.31
716.817	25.31
716.843	13.31
716.87	12.31
716.897	13.31
716.923	13.31
716.95	6.31
716.976	0.31
717.003	0.31
717.03	9.31
717.056	22.31
717.083	4.31
717.109	10.31
717.136	15.31
717.163	3.31
717.189	9.31
717.216	-1.69
717.242	-1.69
717.269	7.31
717.296	12.31
717.322	16.31
717.349	15.31
717.375	20.31
717.402	6.31
717.428	12.31
717.455	5.31
717.481	4.31
717.508	27.31
717.535	5.31
717.561	5.31
717.588	-7.69
717.614	1.31
717.641	-1.69
717.667	4.31
717.694	3.31
717.72	7.31
717.747	7.31
717.773	-2.69
717.8	28.31
717.826	24.31
717.853	8.31
717.88	16.31
717.906	0.31
717.933	9.31
717.959	-6.69
717.986	19.31
718.012	10.31
718.039	20.31
718.065	4.31
718.092	3.31
718.118	11.31
718.144	3.31
718.171	15.31
718.197	23.31
718.224	12.31
718.25	-3.69
718.277	-7.69
718.303	8.31
718.33	-3.69
718.356	-7.69
718.383	-10.69
718.409	14.31
718.436	7.31
718.462	2.31
718.489	6.31
718.515	6.31
718.541	21.31
718.568	10.31
718.594	20.31
718.621	18.31
718.647	20.31
718.674	12.31
718.7	10.31
718.726	2.31
718.753	22.31
718.779	13.31
718.806	-3.69
718.832	-3.69
718.858	1.31
718.885	-4.69
718.911	-0.69
718.938	5.31
718.964	-14.69
718.99	-8.69
719.017	5.31
719.043	0.31
719.07	6.31
719.096	-8.69
719.122	0.31
719.149	11.31
719.175	16.31
719.201	13.31
719.228	8.31
719.254	12.31
719.281	16.31
719.307	14.31
719.333	4.31
719.36	16.31
719.386	17.31
719.412	6.31
719.439	0.31
719.465	4.31
719.491	-6.69
719.518	4.31
719.544	7.31
719.57	26.31
719.597	17.31
719.623	10.31
719.649	28.31
719.675	9.31
719.702	11.31
719.728	4.31
719.754	-9.69
719.781	2.31
719.807	8.31
719.833	-3.69
719.86	12.31
719.886	-1.69
719.912	3.31
719.938	-5.69
719.965	1.31
719.991	1.31
720.017	7.31
720.044	11.31
720.07	4.31
720.096	15.31
720.122	-5.69
720.149	17.31
720.175	23.31
720.201	5.31
720.227	-1.69
720.254	1.31
720.28	-3.69
720.306	-2.69
720.332	0.31
720.359	12.31
720.385	-3.69
720.411	5.31
720.437	15.31
720.463	13.31
720.49	8.31
720.516	-1.69
720.542	2.31
720.568	3.31
720.595	20.31
720.621	4.31
720.647	4.31
720.673	12.31
720.699	23.31
720.725	17.31
720.752	6.31
720.778	23.31
720.804	17.31
720.83	13.31
720.856	-0.69
720.883	-2.69
720.909	8.31
720.935	16.31
720.961	23.31
720.987	9.31
721.013	19.31
721.04	18.31
721.066	7.31
721.092	-0.69
721.118	7.31
721.144	16.31
721.17	-13.69
721.196	5.31
721.223	-4.69
721.249	-4.69
721.275	25.31
721.301	4.31
721.327	11.31
721.353	15.31
721.379	21.31
721.405	7.31
721.432	15.31
721.458	5.31
721.484	21.31
721.51	0.31
721.536	13.31
721.562	8.31
721.588	2.31
721.614	11.31
721.64	14.31
721.666	2.31
721.693	-3.69
721.719	4.31
721.745	-11.69
721.771	2.31
721.797	4.31
721.823	18.31
721.849	0.31
721.875	1.31
721.901	17.31
721.927	12.31
721.953	0.31
721.979	32.31
722.005	11.31
722.031	-0.69
722.057	18.31
722.083	-3.69
722.109	14.31
722.135	26.31
722.161	13.31
722.187	-6.69
722.214	2.31
722.24	7.31
722.266	3.31
722.292	23.31
722.318	14.31
722.344	5.31
722.37	10.31
722.396	17.31
722.422	-0.69
722.448	5.31
722.474	-14.69
722.5	3.31
722.526	-8.69
722.552	-2.69
722.578	9.31
722.603	35.31
722.629	-4.69
722.655	0.31
722.681	-7.69
722.707	4.31
722.733	2.31
722.759	2.31
722.785	8.31
722.811	-4.69
722.837	10.31
722.863	4.31
722.889	24.31
722.915	11.31
722.941	-0.69
722.967	1.31
722.993	24.31
723.019	14.31
723.045	7.31
723.071	10.31
723.097	9.31
723.122	14.31
723.148	-6.69
723.174	2.31
723.2	13.31
723.226	9.31
723.252	1.31
723.278	2.31
723.304	12.31
723.33	17.31
723.356	-6.69
723.381	-13.69
723.407	-15.69
723.433	7.31
723.459	2.31
723.485	-4.69
723.511	10.31
723.537	-1.69
723.563	3.31
723.588	16.31
723.614	18.31
723.64	11.31
723.666	8.31
723.692	11.31
723.718	7.31
723.744	11.31
723.769	7.31
723.795	-7.69
723.821	12.31
723.847	7.31
723.873	7.31
723.899	8.31
723.924	8.31
723.95	4.31
723.976	-10.69
724.002	12.31
724.028	25.31
724.053	7.31
724.079	10.31
724.105	7.31
724.131	-0.69
724.157	-2.69
724.182	7.31
724.208	12.31
724.234	7.31
724.26	1.31
724.286	1.31
724.311	-8.69
724.337	0.31
724.363	-0.69
724.389	30.31
724.415	19.31
724.44	24.31
724.466	11.31
724.492	5.31
724.518	11.31
724.543	-2.69
724.569	13.31
724.595	15.31
724.621	-4.69
724.646	-0.69
724.672	3.31
724.698	1.31
724.723	2.31
724.749	13.31
724.775	23.31
724.801	5.31
724.826	4.31
724.852	8.31
724.878	-1.69
724.904	-7.69
724.929	5.31
724.955	0.31
724.981	17.31
725.006	7.31
725.032	3.31
725.058	13.31
725.083	8.31
725.109	5.31
725.135	0.31
725.161	2.31
725.186	8.31
725.212	10.31
725.238	14.31
725.263	7.31
725.289	-4.69
725.315	-22.69
725.34	1.31
725.366	11.31
725.392	3.31
725.417	-3.69
725.443	4.31
725.468	0.31
725.494	12.31
725.52	14.31
725.545	-6.69
725.571	-7.69
725.597	2.31
725.622	5.31
725.648	-3.69
725.674	12.31
725.699	18.31
725.725	4.31
725.75	15.31
725.776	-4.69
725.802	-8.69
725.827	15.31
725.853	6.31
725.878	9.31
725.904	4.31
725.93	17.31
725.955	1.31
725.981	-6.69
726.006	6.31
726.032	-1.69
726.057	3.31
726.083	8.31
726.109	4.31
726.134	29.31
726.16	11.31
726.185	-2.69
726.211	1.31
726.236	7.31
726.262	6.31
726.288	7.31
726.313	17.31
726.339	12.31
726.364	26.31
726.39	-2.69
726.415	-6.69
726.441	8.31
726.466	16.31
726.492	17.31
726.517	-2.69
726.543	4.31
726.568	2.31
726.594	-4.69
726.619	-3.69
726.645	12.31
726.67	5.31
726.696	18.31
726.721	-3.69
726.747	-2.69
726.772	17.31
726.798	17.31
726.823	13.31
726.849	-11.69
726.874	22.31
726.9	28.31
726.925	7.31
726.951	8.31
726.976	7.31
727.002	2.31
727.027	4.31
727.053	9.31
727.078	9.31
727.104	8.31
727.129	-9.69
727.155	1.31
727.18	16.31
727.205	10.31
727.231	1.31
727.256	5.31
727.282	9.31
727.307	5.31
727.333	-2.69
727.358	-3.69
727.383	-4.69
727.409	-6.69
727.434	5.31
727.46	0.31
727.485	5.31
727.511	8.31
727.536	1.31
727.561	1.31
727.587	4.31
727.612	-1.69
727.637	3.31
727.663	-4.69
727.688	28.31
727.714	3.31
727.739	11.31
727.764	-8.69
727.79	2.31
727.815	12.31
727.841	8.31
727.866	17.31
727.891	1.31
727.917	-8.69
727.942	4.31
727.967	1.31
727.993	-11.69
728.018	1.31
728.043	2.31
728.069	16.31
728.094	9.31
728.119	4.31
728.145	14.31
728.17	7.31
728.195	9.31
728.221	25.31
728.246	10.31
728.271	-8.69
728.297	20.31
728.322	8.31
728.347	9.31
728.373	17.31
728.398	17.31
728.423	7.31
728.448	-2.69
728.474	-3.69
728.499	6.31
728.524	-9.69
728.55	-7.69
728.575	3.31
728.6	4.31
728.625	1.31
728.651	11.31
728.676	13.31
728.701	18.31
728.727	10.31
728.752	-0.69
728.777	-0.69
728.802	13.31
728.828	2.31
728.853	23.31
728.878	14.31
728.903	7.31
728.929	-10.69
728.954	4.31
728.979	20.31
729.004	3.31
729.03	-2.69
729.055	19.31
729.08	0.31
729.105	5.31
729.13	27.31
729.156	8.31
729.181	-9.69
729.206	-21.69
729.231	4.31
729.256	12.31
729.282	12.31
729.307	4.31
729.332	-10.69
729.357	6.31
729.382	5.31
729.408	-4.69
729.433	4.31
729.458	11.31
729.483	17.31
729.508	24.31
729.533	8.31
729.559	8.31
729.584	1.31
729.609	9.31
729.634	26.31
729.659	0.31
729.684	15.31
729.71	37.31
729.735	5.31
729.76	15.31
729.785	9.31
729.81	14.31
729.835	4.31
729.86	-2.69
729.886	11.31
729.911	4.31
729.936	6.31
729.961	7.31
729.986	-8.69
730.011	7.31
730.036	-6.69
730.061	12.31
730.086	4.31
730.112	8.31
730.137	7.31
730.162	13.31
730.187	-5.69
730.212	12.31
730.237	6.31
730.262	-0.69
730.287	-12.69
730.312	24.31
730.337	5.31
730.362	3.31
730.387	4.31
730.413	5.31
730.438	-7.69
730.463	-4.69
730.488	-12.69
730.513	-2.69
730.538	4.31
730.563	11.31
730.588	7.31
730.613	10.31
730.638	9.31
730.663	9.31
730.688	22.31
730.713	4.31
730.738	12.31
730.763	13.31
730.788	7.31
730.813	12.31
730.838	-1.69
730.863	6.31
730.888	-1.69
730.913	0.31
730.938	-3.69
730.963	-3.69
730.988	12.31
731.013	10.31
731.038	2.31
731.063	11.31
731.088	31.31
731.113	11.31
731.138	13.31
731.163	8.31
731.188	9.31
731.213	19.31
731.238	33.31
731.263	6.31
731.288	4.31
731.313	7.31
731.338	11.31
731.363	1.31
731.388	7.31
731.413	10.31
731.438	18.31
731.463	13.31
731.487	8.31
731.512	-7.69
731.537	1.31
731.562	-2.69
731.587	8.31
731.612	5.31
731.637	3.31
731.662	10.31
731.687	1.31
731.712	4.31
731.737	9.31
731.762	7.31
731.786	12.31
731.811	10.31
731.836	8.31
731.861	5.31
731.886	9.31
731.911	16.31
731.936	7.31
731.961	7.31
731.986	2.31
732.01	8.31
732.035	9.31
732.06	32.31
732.085	8.31
732.11	9.31
732.135	-10.69
732.16	3.31
732.184	-5.69
732.209	8.31
732.234	20.31
732.259	11.31
732.284	19.31
732.309	-1.69
732.334	-3.69
732.358	-15.69
732.383	-15.69
732.408	5.31
732.433	24.31
732.458	23.31
732.482	16.31
732.507	5.31
732.532	17.31
732.557	27.31
732.582	-4.69
732.607	-8.69
732.631	-4.69
732.656	8.31
732.681	9.31
732.706	2.31
732.73	8.31
732.755	7.31
732.78	10.31
732.805	26.31
732.83	-5.69
732.854	7.31
732.879	30.31
732.904	15.31
732.929	18.31
732.953	13.31
732.978	16.31
733.003	-5.69
733.028	5.31
733.052	11.31
733.077	19.31
733.102	21.31
733.127	-0.69
733.151	-10.69
733.176	2.31
733.201	-2.69
733.226	-7.69
733.25	4.31
733.275	8.31
733.3	15.31
733.324	18.31
733.349	12.31
733.374	23.31
733.399	21.31
733.423	1.31
733.448	16.31
733.473	12.31
733.497	-3.69
733.522	-7.69
733.547	15.31
733.571	11.31
733.596	7.31
733.621	7.31
733.646	8.31
733.67	7.31
733.695	3.31
733.72	1.31
733.744	5.31
733.769	3.31
733.794	8.31
733.818	10.31
733.843	-9.69
733.867	-3.69
733.892	-2.69
733.917	-1.69
733.941	6.31
733.966	0.31
733.991	6.31
734.015	31.31
734.04	10.31
734.065	6.31
734.089	7.31
734.114	3.31
734.138	6.31
734.163	11.31
734.188	21.31
734.212	21.31
734.237	23.31
734.261	12.31
734.286	4.31
734.311	-9.69
734.335	9.31
734.36	8.31
734.384	3.31
734.409	11.31
734.434	-4.69
734.458	6.31
734.483	13.31
734.507	0.31
734.532	-6.69
734.556	4.31
734.581	7.31
734.606	5.31
734.63	-11.69
734.655	8.31
734.679	11.31
734.704	-3.69
734.728	4.31
734.753	8.31
734.777	7.31
734.802	18.31
734.826	16.31
734.851	8.31
734.876	21.31
734.9	13.31
734.925	8.31
734.949	10.31
734.974	10.31
734.998	11.31
735.023	3.31
735.047	1.31
735.072	26.31
735.096	15.31
735.121	10.31
735.145	2.31
735.17	19.31
735.194	23.31
735.219	10.31
735.243	13.31
735.268	10.31
735.292	7.31
735.317	12.31
735.341	10.31
735.365	-15.69
735.39	23.31
735.414	11.31
735.439	-4.69
735.463	3.31
735.488	19.31
735.512	7.31
735.537	-6.69
735.561	15.31
735.586	3.31
735.61	-0.69
735.634	11.31
735.659	11.31
735.683	19.31
735.708	10.31
735.732	16.31
735.757	13.31
735.781	19.31
735.805	23.31
735.83	4.31
735.854	10.31
735.879	5.31
735.903	11.31
735.927	25.31
735.952	17.31
735.976	4.31
736.001	9.31
736.025	19.31
736.049	16.31
736.074	16.31
736.098	4.31
736.123	21.31
736.147	11.31
736.171	-1.69
736.196	7.31
736.22	-4.69
736.244	4.31
736.269	9.31
736.293	-0.69
736.317	19.31
736.342	9.31
736.366	6.31
736.39	3.31
736.415	13.31
736.439	4.31
736.463	10.31
736.488	21.31
736.512	7.31
736.536	7.31
736.561	20.31
736.585	8.31
736.609	25.31
736.634	5.31
736.658	4.31
736.682	0.31
736.707	-3.69
736.731	-10.69
736.755	8.31
736.78	28.31
736.804	3.31
736.828	15.31
736.852	7.31
736.877	20.31
736.901	5.31
736.925	12.31
736.949	16.31
736.974	3.31
736.998	9.31
737.022	15.31
737.047	15.31
737.071	12.31
737.095	25.31
737.119	32.31
737.144	15.31
737.168	-8.69
737.192	0.31
737.216	7.31
737.241	0.31
737.265	8.31
737.289	19.31
737.313	4.31
737.337	11.31
737.362	-2.69
737.386	-6.69
737.41	1.31
737.434	4.31
737.459	2.31
737.483	17.31
737.507	32.31
737.531	21.31
737.555	17.31
737.58	18.31
737.604	-1.69
737.628	4.31
737.652	9.31
737.676	-1.69
737.701	8.31
737.725	12.31
737.749	3.31
737.773	-6.69
737.797	-8.69
737.821	5.31
737.846	8.31
737.87	27.31
737.894	0.31
737.918	-3.69
737.942	5.31
737.966	16.31
737.99	27.31
738.015	0.31
738.039	11.31
738.063	-2.69
738.087	18.31
738.111	9.31
738.135	19.31
738.159	14.31
738.184	11.31
738.208	18.31
738.232	6.31
738.256	15.31
738.28	11.31
738.304	12.31
738.328	1.31
738.352	0.31
738.376	-4.69
738.4	10.31
738.425	11.31
738.449	15.31
738.473	15.31
738.497	-5.69
738.521	17.31
738.545	13.31
738.569	24.31
738.593	5.31
738.617	8.31
738.641	14.31
738.665	9.31
738.689	12.31
738.713	-0.69
738.737	4.31
738.762	22.31
738.786	16.31
738.81	2.31
738.834	20.31
738.858	-1.69
738.882	3.31
738.906	9.31
738.93	8.31
738.954	12.31
738.978	15.31
739.002	0.31
739.026	9.31
739.05	7.31
739.074	4.31
739.098	32.31
739.122	21.31
739.146	4.31
739.17	21.31
739.194	20.31
739.218	-0.69
739.242	-4.69
739.266	0.31
739.29	11.31
739.314	13.31
739.338	11.31
739.362	1.31
739.386	4.31
739.41	-13.69
739.434	-5.69
739.458	16.31
739.482	18.31
739.506	5.31
739.53	3.31
739.554	11.31
739.577	10.31
739.601	19.31
739.625	-0.69
739.649	4.31
739.673	8.31
739.697	17.31
739.721	-4.69
739.745	26.31
739.769	8.31
739.793	11.31
739.817	20.31
739.841	-0.69
739.865	9.31
739.889	0.31
739.912	-1.69
739.936	12.31
739.96	3.31
739.984	20.31
740.008	15.31
740.032	10.31
740.056	-3.69
740.08	-7.69
740.104	4.31
740.127	12.31
740.151	8.31
740.175	12.31
740.199	13.31
740.223	59.31
740.247	5.31
740.271	11.31
740.295	-7.69
740.318	-0.69
740.342	9.31
740.366	12.31
740.39	-0.69
740.414	1.31
740.438	-2.69
740.461	22.31
740.485	22.31
740.509	-4.69
740.533	-0.69
740.557	-8.69
740.581	5.31
740.604	-8.69
740.628	-3.69
740.652	12.31
740.676	1.31
740.7	14.31
740.723	7.31
740.747	3.31
740.771	-9.69
740.795	3.31
740.819	12.31
740.842	12.31
740.866	27.31
740.89	5.31
740.914	-0.69
740.938	-15.69
740.961	15.31
740.985	15.31
741.009	3.31
741.033	-0.69
741.056	21.31
741.08	1.31
741.104	8.31
741.128	9.31
741.151	20.31
741.175	16.31
741.199	-10.69
741.223	7.31
741.246	1.31
741.27	1.31
741.294	0.31
741.318	5.31
741.341	9.31
741.365	9.31
741.389	12.31
741.413	5.31
741.436	4.31
741.46	11.31
741.484	19.31
741.507	12.31
741.531	24.31
741.555	8.31
741.579	4.31
741.602	7.31
741.626	16.31
741.65	1.31
741.673	7.31
741.697	7.31
741.721	8.31
741.744	-14.69
741.768	9.31
741.792	14.31
741.815	1.31
741.839	8.31
741.863	27.31
741.886	24.31
741.91	22.31
741.934	-0.69
741.957	-2.69
741.981	4.31
742.005	-1.69
742.028	1.31
742.052	-11.69
742.075	18.31
742.099	24.31
742.123	-6.69
742.146	4.31
742.17	-3.69
742.194	3.31
742.217	1.31
742.241	11.31
742.264	2.31
742.288	5.31
742.312	7.31
742.335	14.31
742.359	18.31
742.382	19.31
742.406	20.31
742.43	0.31
742.453	-1.69
742.477	0.31
742.5	-3.69
742.524	-0.69
742.548	3.31
742.571	1.31
742.595	-4.69
742.618	-4.69
742.642	8.31
742.665	16.31
742.689	-9.69
742.712	14.31
742.736	7.31
742.76	16.31
742.783	-0.69
742.807	8.31
742.83	11.31
742.854	-11.69
742.877	0.31
742.901	7.31
742.924	-10.69
742.948	8.31
742.971	4.31
742.995	7.31
743.018	-6.69
743.042	-4.69
743.065	11.31
743.089	4.31
743.112	4.31
743.136	14.31
743.159	-0.69
743.183	-8.69
743.206	17.31
743.23	-2.69
743.253	-1.69
743.277	3.31
743.3	-14.69
743.324	7.31
743.347	5.31
743.371	17.31
743.394	3.31
743.418	24.31
743.441	19.31
743.465	8.31
743.488	17.31
743.512	-3.69
743.535	-4.69
743.558	11.31
743.582	8.31
743.605	14.31
743.629	24.31
743.652	5.31
743.676	1.31
743.699	9.31
743.723	17.31
743.746	27.31
743.769	5.31
743.793	13.31
743.816	2.31
743.84	19.31
743.863	0.31
743.886	0.31
743.91	12.31
743.933	10.31
743.957	18.31
743.98	-1.69
744.003	-4.69
744.027	7.31
744.05	16.31
744.074	7.31
744.097	-8.69
744.12	-1.69
744.144	-4.69
744.167	5.31
744.19	12.31
744.214	5.31
744.237	2.31
744.26	8.31
744.284	8.31
744.307	-7.69
744.331	-4.69
744.354	-14.69
744.377	-13.69
744.401	-5.69
744.424	-0.69
744.447	-10.69
744.471	-3.69
