Data from HighRes_H2D2_15_04_11_07_2024_HR4C61891__96__15-05-44-042.txt Node

Date: Thu Nov 07 15:05:44 EST 2024
User: crc00042
Spectrometer: HR4C6189
Trigger mode: 4
Integration Time (sec): 1.000000E-1
Scans to average: 1
Electric dark correction enabled: true
Nonlinearity correction enabled: false
Boxcar width: 0
XAxis mode: Wavelengths
Number of Pixels in Spectrum: 3648
>>>>>Begin Spectral Data<<<<<
639.567	-76.31
639.602	-76.31
639.636	-76.31
639.67	-52.31
639.704	-27.31
639.738	1.69
639.773	0.69
639.807	-13.31
639.841	9.69
639.875	10.69
639.909	-15.31
639.943	-6.31
639.978	0.69
640.012	6.69
640.046	20.69
640.08	3.69
640.114	6.69
640.148	-26.31
640.182	-13.31
640.217	-0.31
640.251	7.69
640.285	-8.31
640.319	-13.31
640.353	0.69
640.387	-1.31
640.421	-9.31
640.455	-3.31
640.49	6.69
640.524	1.69
640.558	20.69
640.592	-19.31
640.626	-0.31
640.66	9.69
640.694	-19.31
640.728	-0.31
640.762	8.69
640.796	13.69
640.83	7.69
640.865	-1.31
640.899	-0.31
640.933	9.69
640.967	1.69
641.001	3.69
641.035	3.69
641.069	4.69
641.103	11.69
641.137	1.69
641.171	-10.31
641.205	11.69
641.239	-14.31
641.273	16.69
641.307	19.69
641.341	6.69
641.375	-4.31
641.409	-11.31
641.443	-7.31
641.477	-8.31
641.511	-7.31
641.545	1.69
641.579	-4.31
641.614	17.69
641.648	3.69
641.682	-9.31
641.716	8.69
641.75	-0.31
641.784	-21.31
641.818	0.69
641.852	2.69
641.886	5.69
641.919	21.69
641.953	-2.31
641.987	-10.31
642.021	7.69
642.055	3.69
642.089	6.69
642.123	-19.31
642.157	4.69
642.191	1.69
642.225	8.69
642.259	7.69
642.293	12.69
642.327	-4.31
642.361	-8.31
642.395	21.69
642.429	4.69
642.463	-8.31
642.497	16.69
642.531	6.69
642.565	-17.31
642.599	19.69
642.633	-14.31
642.666	-2.31
642.7	2.69
642.734	4.69
642.768	-11.31
642.802	5.69
642.836	9.69
642.87	10.69
642.904	14.69
642.938	13.69
642.972	-1.31
643.005	-13.31
643.039	14.69
643.073	-6.31
643.107	5.69
643.141	-1.31
643.175	-6.31
643.209	-8.31
643.243	1.69
643.276	6.69
643.31	4.69
643.344	-3.31
643.378	-0.31
643.412	7.69
643.446	-4.31
643.48	-0.31
643.513	21.69
643.547	-1.31
643.581	-0.31
643.615	11.69
643.649	-14.31
643.683	1.69
643.716	-8.31
643.75	-7.31
643.784	2.69
643.818	3.69
643.852	-4.31
643.886	14.69
643.919	-3.31
643.953	-6.31
643.987	-1.31
644.021	4.69
644.055	5.69
644.088	2.69
644.122	-3.31
644.156	-10.31
644.19	-5.31
644.224	1.69
644.257	10.69
644.291	19.69
644.325	3.69
644.359	-9.31
644.392	0.69
644.426	3.69
644.46	0.69
644.494	18.69
644.527	1.69
644.561	1.69
644.595	-3.31
644.629	-1.31
644.662	-8.31
644.696	-5.31
644.73	1.69
644.764	-15.31
644.797	-13.31
644.831	-1.31
644.865	11.69
644.899	10.69
644.932	18.69
644.966	-7.31
645	8.69
645.033	18.69
645.067	-4.31
645.101	14.69
645.135	-5.31
645.168	-8.31
645.202	-2.31
645.236	13.69
645.269	-1.31
645.303	-2.31
645.337	-6.31
645.37	-9.31
645.404	9.69
645.438	20.69
645.471	-3.31
645.505	-4.31
645.539	-8.31
645.572	-16.31
645.606	-12.31
645.64	-3.31
645.673	-5.31
645.707	8.69
645.741	5.69
645.774	-14.31
645.808	-2.31
645.842	-7.31
645.875	16.69
645.909	-2.31
645.943	4.69
645.976	4.69
646.01	6.69
646.043	17.69
646.077	11.69
646.111	6.69
646.144	9.69
646.178	-3.31
646.212	-9.31
646.245	-13.31
646.279	-7.31
646.312	6.69
646.346	14.69
646.38	5.69
646.413	2.69
646.447	6.69
646.48	-7.31
646.514	9.69
646.547	6.69
646.581	-0.31
646.615	-26.31
646.648	-18.31
646.682	-15.31
646.715	8.69
646.749	12.69
646.782	4.69
646.816	-4.31
646.85	9.69
646.883	-10.31
646.917	8.69
646.95	9.69
646.984	6.69
647.017	1.69
647.051	4.69
647.084	11.69
647.118	8.69
647.151	-0.31
647.185	-0.31
647.218	-5.31
647.252	-15.31
647.285	-5.31
647.319	-6.31
647.353	1.69
647.386	24.69
647.42	1.69
647.453	13.69
647.487	7.69
647.52	-1.31
647.553	9.69
647.587	11.69
647.62	4.69
647.654	9.69
647.687	7.69
647.721	0.69
647.754	-3.31
647.788	-6.31
647.821	-3.31
647.855	-4.31
647.888	7.69
647.922	13.69
647.955	8.69
647.989	9.69
648.022	2.69
648.055	8.69
648.089	-10.31
648.122	28.69
648.156	-9.31
648.189	-11.31
648.223	13.69
648.256	17.69
648.29	6.69
648.323	14.69
648.356	12.69
648.39	-3.31
648.423	-15.31
648.457	1.69
648.49	4.69
648.523	10.69
648.557	-8.31
648.59	0.69
648.624	4.69
648.657	-5.31
648.69	-0.31
648.724	4.69
648.757	14.69
648.791	5.69
648.824	5.69
648.857	11.69
648.891	-7.31
648.924	5.69
648.957	16.69
648.991	3.69
649.024	8.69
649.057	2.69
649.091	0.69
649.124	13.69
649.158	12.69
649.191	10.69
649.224	9.69
649.258	7.69
649.291	1.69
649.324	22.69
649.358	15.69
649.391	9.69
649.424	-3.31
649.458	-12.31
649.491	7.69
649.524	-1.31
649.557	3.69
649.591	-14.31
649.624	11.69
649.657	0.69
649.691	2.69
649.724	7.69
649.757	10.69
649.791	9.69
649.824	3.69
649.857	11.69
649.89	-3.31
649.924	-20.31
649.957	13.69
649.99	-7.31
650.023	-9.31
650.057	6.69
650.09	12.69
650.123	-2.31
650.157	7.69
650.19	27.69
650.223	-4.31
650.256	-11.31
650.29	-7.31
650.323	1.69
650.356	14.69
650.389	-7.31
650.423	-3.31
650.456	-6.31
650.489	10.69
650.522	7.69
650.555	10.69
650.589	-3.31
650.622	-0.31
650.655	21.69
650.688	14.69
650.721	-0.31
650.755	6.69
650.788	2.69
650.821	4.69
650.854	13.69
650.887	13.69
650.921	3.69
650.954	-10.31
650.987	11.69
651.02	-9.31
651.053	0.69
651.087	-3.31
651.12	24.69
651.153	10.69
651.186	8.69
651.219	-11.31
651.252	14.69
651.286	17.69
651.319	7.69
651.352	5.69
651.385	0.69
651.418	2.69
651.451	9.69
651.484	8.69
651.518	2.69
651.551	13.69
651.584	-3.31
651.617	13.69
651.65	-7.31
651.683	14.69
651.716	6.69
651.749	0.69
651.783	5.69
651.816	-15.31
651.849	9.69
651.882	4.69
651.915	1.69
651.948	19.69
651.981	-5.31
652.014	-14.31
652.047	9.69
652.08	-1.31
652.114	10.69
652.147	-3.31
652.18	4.69
652.213	24.69
652.246	-4.31
652.279	-4.31
652.312	22.69
652.345	3.69
652.378	15.69
652.411	11.69
652.444	11.69
652.477	-6.31
652.51	9.69
652.543	-8.31
652.576	-7.31
652.609	0.69
652.642	-5.31
652.675	-7.31
652.709	-4.31
652.742	1.69
652.775	18.69
652.808	14.69
652.841	5.69
652.874	18.69
652.907	5.69
652.94	4.69
652.973	-4.31
653.006	-13.31
653.039	3.69
653.072	16.69
653.105	0.69
653.138	-25.31
653.171	-6.31
653.204	-7.31
653.237	8.69
653.27	-3.31
653.303	11.69
653.336	12.69
653.368	-4.31
653.401	8.69
653.434	6.69
653.467	15.69
653.5	-11.31
653.533	-18.31
653.566	-3.31
653.599	-2.31
653.632	7.69
653.665	-0.31
653.698	-9.31
653.731	-1.31
653.764	-5.31
653.797	6.69
653.83	4.69
653.863	13.69
653.896	9.69
653.929	-8.31
653.961	16.69
653.994	-1.31
654.027	0.69
654.06	-0.31
654.093	7.69
654.126	12.69
654.159	8.69
654.192	15.69
654.225	-0.31
654.258	-6.31
654.29	-8.31
654.323	-5.31
654.356	7.69
654.389	7.69
654.422	5.69
654.455	7.69
654.488	15.69
654.521	-18.31
654.553	-28.31
654.586	5.69
654.619	-5.31
654.652	0.69
654.685	15.69
654.718	16.69
654.751	13.69
654.783	4.69
654.816	17.69
654.849	3.69
654.882	-7.31
654.915	-17.31
654.948	4.69
654.98	2.69
655.013	10.69
655.046	-5.31
655.079	1.69
655.112	-4.31
655.144	-15.31
655.177	-3.31
655.21	8.69
655.243	15.69
655.276	9.69
655.308	-5.31
655.341	-8.31
655.374	7.69
655.407	-10.31
655.44	0.69
655.472	5.69
655.505	-8.31
655.538	-8.31
655.571	10.69
655.603	5.69
655.636	0.69
655.669	11.69
655.702	-3.31
655.734	-15.31
655.767	3.69
655.8	5.69
655.833	7.69
655.865	12.69
655.898	4.69
655.931	11.69
655.964	9.69
655.996	15.69
656.029	33.69
656.062	24.69
656.095	43.69
656.127	75.69
656.16	181.69
656.193	619.69
656.225	964.69
656.258	543.69
656.291	216.69
656.324	177.69
656.356	349.69
656.389	770.69
656.422	661.69
656.454	209.69
656.487	76.69
656.52	42.69
656.552	0.69
656.585	4.69
656.618	1.69
656.65	11.69
656.683	7.69
656.716	14.69
656.748	8.69
656.781	13.69
656.814	-1.31
656.846	19.69
656.879	-0.31
656.912	5.69
656.944	-13.31
656.977	-15.31
657.01	5.69
657.042	6.69
657.075	7.69
657.108	-1.31
657.14	-4.31
657.173	9.69
657.205	33.69
657.238	7.69
657.271	-3.31
657.303	-9.31
657.336	-2.31
657.369	3.69
657.401	-10.31
657.434	-3.31
657.466	6.69
657.499	5.69
657.532	-16.31
657.564	3.69
657.597	-3.31
657.629	-1.31
657.662	-5.31
657.694	1.69
657.727	-1.31
657.76	8.69
657.792	-6.31
657.825	-9.31
657.857	-8.31
657.89	-3.31
657.922	5.69
657.955	-1.31
657.987	-2.31
658.02	4.69
658.053	19.69
658.085	-1.31
658.118	-3.31
658.15	13.69
658.183	17.69
658.215	-5.31
658.248	-14.31
658.28	-17.31
658.313	24.69
658.345	6.69
658.378	20.69
658.41	0.69
658.443	13.69
658.475	8.69
658.508	12.69
658.54	-17.31
658.573	-18.31
658.605	8.69
658.638	0.69
658.67	-2.31
658.703	4.69
658.735	2.69
658.768	10.69
658.8	-10.31
658.833	37.69
658.865	-0.31
658.898	-5.31
658.93	-10.31
658.963	-8.31
658.995	-20.31
659.028	-1.31
659.06	-2.31
659.092	-6.31
659.125	-0.31
659.157	-2.31
659.19	-12.31
659.222	-5.31
659.255	0.69
659.287	-0.31
659.32	2.69
659.352	7.69
659.384	16.69
659.417	4.69
659.449	-4.31
659.482	8.69
659.514	-7.31
659.546	-3.31
659.579	9.69
659.611	12.69
659.644	-3.31
659.676	-3.31
659.708	-6.31
659.741	-6.31
659.773	18.69
659.806	3.69
659.838	-11.31
659.87	19.69
659.903	3.69
659.935	2.69
659.967	12.69
660	4.69
660.032	-8.31
660.065	22.69
660.097	16.69
660.129	0.69
660.162	1.69
660.194	-0.31
660.226	10.69
660.259	16.69
660.291	-6.31
660.323	-6.31
660.356	5.69
660.388	-16.31
660.42	-17.31
660.453	1.69
660.485	-2.31
660.517	18.69
660.55	20.69
660.582	8.69
660.614	9.69
660.647	-9.31
660.679	-28.31
660.711	14.69
660.743	-3.31
660.776	-0.31
660.808	9.69
660.84	4.69
660.873	6.69
660.905	-1.31
660.937	-0.31
660.969	-7.31
661.002	0.69
661.034	7.69
661.066	3.69
661.099	-6.31
661.131	9.69
661.163	-5.31
661.195	14.69
661.228	12.69
661.26	-4.31
661.292	-11.31
661.324	4.69
661.357	-0.31
661.389	-2.31
661.421	-0.31
661.453	6.69
661.485	11.69
661.518	4.69
661.55	-16.31
661.582	-3.31
661.614	-8.31
661.647	-7.31
661.679	1.69
661.711	17.69
661.743	-5.31
661.775	15.69
661.808	11.69
661.84	-11.31
661.872	-0.31
661.904	0.69
661.936	11.69
661.969	-3.31
662.001	-10.31
662.033	7.69
662.065	-0.31
662.097	5.69
662.129	18.69
662.162	-1.31
662.194	9.69
662.226	10.69
662.258	28.69
662.29	8.69
662.322	-7.31
662.355	-23.31
662.387	9.69
662.419	5.69
662.451	20.69
662.483	18.69
662.515	4.69
662.547	9.69
662.58	-11.31
662.612	-8.31
662.644	-16.31
662.676	7.69
662.708	14.69
662.74	-10.31
662.772	-2.31
662.804	4.69
662.836	1.69
662.869	-13.31
662.901	11.69
662.933	-18.31
662.965	19.69
662.997	20.69
663.029	4.69
663.061	-10.31
663.093	-0.31
663.125	-9.31
663.157	16.69
663.189	7.69
663.221	17.69
663.254	3.69
663.286	8.69
663.318	-5.31
663.35	-0.31
663.382	-18.31
663.414	-24.31
663.446	-17.31
663.478	-3.31
663.51	30.69
663.542	-12.31
663.574	-16.31
663.606	6.69
663.638	-8.31
663.67	-7.31
663.702	9.69
663.734	9.69
663.766	8.69
663.798	-9.31
663.83	-14.31
663.862	-0.31
663.894	-2.31
663.926	-5.31
663.958	8.69
663.99	9.69
664.022	-8.31
664.054	6.69
664.086	-3.31
664.118	-11.31
664.15	-9.31
664.182	1.69
664.214	3.69
664.246	3.69
664.278	-3.31
664.31	6.69
664.342	-1.31
664.374	-9.31
664.406	12.69
664.438	3.69
664.47	16.69
664.502	-2.31
664.534	12.69
664.566	-11.31
664.598	9.69
664.63	2.69
664.662	-3.31
664.693	-3.31
664.725	-18.31
664.757	-11.31
664.789	-10.31
664.821	-2.31
664.853	24.69
664.885	-2.31
664.917	-11.31
664.949	11.69
664.981	19.69
665.013	0.69
665.045	-10.31
665.076	-10.31
665.108	-2.31
665.14	-16.31
665.172	9.69
665.204	-5.31
665.236	5.69
665.268	14.69
665.3	-1.31
665.331	-5.31
665.363	7.69
665.395	-14.31
665.427	1.69
665.459	-3.31
665.491	-2.31
665.523	-0.31
665.555	-7.31
665.586	2.69
665.618	2.69
665.65	-2.31
665.682	3.69
665.714	-3.31
665.746	1.69
665.777	5.69
665.809	3.69
665.841	6.69
665.873	-5.31
665.905	5.69
665.937	16.69
665.968	-1.31
666	3.69
666.032	-0.31
666.064	-11.31
666.096	-4.31
666.127	-16.31
666.159	-1.31
666.191	-6.31
666.223	9.69
666.255	-5.31
666.286	12.69
666.318	14.69
666.35	24.69
666.382	9.69
666.413	-0.31
666.445	-7.31
666.477	-9.31
666.509	4.69
666.54	7.69
666.572	7.69
666.604	-3.31
666.636	-0.31
666.667	17.69
666.699	18.69
666.731	12.69
666.763	-4.31
666.794	16.69
666.826	-0.31
666.858	-9.31
666.89	5.69
666.921	-2.31
666.953	-10.31
666.985	4.69
667.017	9.69
667.048	3.69
667.08	-2.31
667.112	7.69
667.143	-14.31
667.175	11.69
667.207	-15.31
667.238	-5.31
667.27	-1.31
667.302	15.69
667.334	12.69
667.365	8.69
667.397	16.69
667.429	-1.31
667.46	8.69
667.492	5.69
667.524	-2.31
667.555	-7.31
667.587	2.69
667.619	-5.31
667.65	-3.31
667.682	14.69
667.714	-20.31
667.745	-7.31
667.777	-18.31
667.808	2.69
667.84	14.69
667.872	7.69
667.903	17.69
667.935	-13.31
667.967	5.69
667.998	5.69
668.03	-9.31
668.061	-24.31
668.093	-5.31
668.125	8.69
668.156	0.69
668.188	4.69
668.22	-0.31
668.251	1.69
668.283	13.69
668.314	1.69
668.346	-8.31
668.377	-9.31
668.409	-18.31
668.441	0.69
668.472	5.69
668.504	12.69
668.535	12.69
668.567	18.69
668.599	14.69
668.63	5.69
668.662	1.69
668.693	24.69
668.725	13.69
668.756	17.69
668.788	9.69
668.819	0.69
668.851	12.69
668.882	-5.31
668.914	-18.31
668.946	-1.31
668.977	-2.31
669.009	-10.31
669.04	-9.31
669.072	5.69
669.103	1.69
669.135	-6.31
669.166	-5.31
669.198	-3.31
669.229	9.69
669.261	-1.31
669.292	7.69
669.324	-4.31
669.355	-2.31
669.387	-10.31
669.418	7.69
669.45	-10.31
669.481	-9.31
669.513	-1.31
669.544	-6.31
669.576	-7.31
669.607	26.69
669.639	14.69
669.67	-17.31
669.701	8.69
669.733	-1.31
669.764	-1.31
669.796	9.69
669.827	-7.31
669.859	-3.31
669.89	-10.31
669.922	-8.31
669.953	-5.31
669.985	-3.31
670.016	4.69
670.047	-16.31
670.079	-9.31
670.11	15.69
670.142	8.69
670.173	6.69
670.204	-4.31
670.236	-7.31
670.267	-3.31
670.299	-7.31
670.33	19.69
670.362	3.69
670.393	-15.31
670.424	7.69
670.456	-19.31
670.487	4.69
670.518	-15.31
670.55	4.69
670.581	5.69
670.613	-7.31
670.644	-21.31
670.675	-7.31
670.707	-0.31
670.738	8.69
670.769	-1.31
670.801	-5.31
670.832	17.69
670.864	-3.31
670.895	-14.31
670.926	0.69
670.958	1.69
670.989	1.69
671.02	-7.31
671.052	-10.31
671.083	1.69
671.114	-4.31
671.146	6.69
671.177	-3.31
671.208	-6.31
671.24	-11.31
671.271	-7.31
671.302	12.69
671.333	-1.31
671.365	2.69
671.396	5.69
671.427	6.69
671.459	2.69
671.49	6.69
671.521	5.69
671.553	5.69
671.584	-0.31
671.615	0.69
671.646	5.69
671.678	-3.31
671.709	-14.31
671.74	-28.31
671.771	-5.31
671.803	-6.31
671.834	9.69
671.865	4.69
671.896	2.69
671.928	-1.31
671.959	-0.31
671.99	2.69
672.021	-4.31
672.053	-8.31
672.084	7.69
672.115	6.69
672.146	-2.31
672.178	-1.31
672.209	-2.31
672.24	-2.31
672.271	13.69
672.303	7.69
672.334	7.69
672.365	1.69
672.396	7.69
672.427	-4.31
672.459	15.69
672.49	41.69
672.521	14.69
672.552	18.69
672.583	20.69
672.615	-0.31
672.646	2.69
672.677	-10.31
672.708	-11.31
672.739	-18.31
672.77	22.69
672.802	8.69
672.833	-11.31
672.864	7.69
672.895	-1.31
672.926	-0.31
672.957	-1.31
672.989	4.69
673.02	-14.31
673.051	-17.31
673.082	12.69
673.113	3.69
673.144	-0.31
673.175	14.69
673.206	5.69
673.238	-0.31
673.269	-7.31
673.3	-17.31
673.331	-1.31
673.362	-7.31
673.393	18.69
673.424	9.69
673.455	26.69
673.487	5.69
673.518	-0.31
673.549	-7.31
673.58	-5.31
673.611	-6.31
673.642	17.69
673.673	1.69
673.704	0.69
673.735	-0.31
673.766	6.69
673.797	-15.31
673.828	1.69
673.86	6.69
673.891	-20.31
673.922	-17.31
673.953	-23.31
673.984	-2.31
674.015	0.69
674.046	-7.31
674.077	4.69
674.108	3.69
674.139	-4.31
674.17	3.69
674.201	-3.31
674.232	-2.31
674.263	0.69
674.294	-8.31
674.325	-1.31
674.356	8.69
674.387	30.69
674.418	3.69
674.449	-13.31
674.48	4.69
674.511	4.69
674.542	11.69
674.573	-5.31
674.604	14.69
674.635	-4.31
674.666	4.69
674.697	-0.31
674.728	10.69
674.759	-14.31
674.79	-21.31
674.821	-11.31
674.852	7.69
674.883	-3.31
674.914	7.69
674.945	-4.31
674.976	2.69
675.007	-1.31
675.038	0.69
675.069	-2.31
675.1	-6.31
675.131	0.69
675.162	-11.31
675.193	-20.31
675.224	6.69
675.254	-2.31
675.285	7.69
675.316	16.69
675.347	-0.31
675.378	-5.31
675.409	-0.31
675.44	20.69
675.471	15.69
675.502	-1.31
675.533	3.69
675.564	12.69
675.595	3.69
675.625	27.69
675.656	10.69
675.687	10.69
675.718	0.69
675.749	3.69
675.78	9.69
675.811	-0.31
675.842	-0.31
675.873	-1.31
675.903	3.69
675.934	7.69
675.965	-8.31
675.996	-24.31
676.027	-11.31
676.058	-11.31
676.089	-14.31
676.119	-3.31
676.15	11.69
676.181	-3.31
676.212	8.69
676.243	1.69
676.274	8.69
676.304	13.69
676.335	-26.31
676.366	10.69
676.397	6.69
676.428	-11.31
676.459	-0.31
676.489	1.69
676.52	0.69
676.551	14.69
676.582	-9.31
676.613	-10.31
676.643	-16.31
676.674	14.69
676.705	2.69
676.736	4.69
676.767	24.69
676.797	25.69
676.828	16.69
676.859	3.69
676.89	-10.31
676.92	0.69
676.951	-11.31
676.982	7.69
677.013	-7.31
677.044	16.69
677.074	1.69
677.105	-5.31
677.136	4.69
677.167	15.69
677.197	20.69
677.228	1.69
677.259	-2.31
677.289	1.69
677.32	-10.31
677.351	-12.31
677.382	-3.31
677.412	0.69
677.443	16.69
677.474	9.69
677.505	6.69
677.535	-6.31
677.566	-21.31
677.597	-15.31
677.627	-13.31
677.658	-13.31
677.689	-1.31
677.72	-5.31
677.75	-4.31
677.781	7.69
677.812	-2.31
677.842	7.69
677.873	-1.31
677.904	-5.31
677.934	-7.31
677.965	-13.31
677.996	-20.31
678.026	4.69
678.057	-4.31
678.088	-15.31
678.118	-18.31
678.149	0.69
678.18	-2.31
678.21	3.69
678.241	-12.31
678.272	-3.31
678.302	6.69
678.333	8.69
678.363	40.69
678.394	6.69
678.425	8.69
678.455	4.69
678.486	16.69
678.517	-0.31
678.547	-1.31
678.578	5.69
678.608	-9.31
678.639	4.69
678.67	-3.31
678.7	-8.31
678.731	7.69
678.761	-8.31
678.792	-9.31
678.823	14.69
678.853	-2.31
678.884	-9.31
678.914	5.69
678.945	1.69
678.975	-13.31
679.006	-10.31
679.037	-7.31
679.067	13.69
679.098	-6.31
679.128	1.69
679.159	0.69
679.189	13.69
679.22	-10.31
679.25	12.69
679.281	1.69
679.312	7.69
679.342	24.69
679.373	19.69
679.403	-2.31
679.434	-7.31
679.464	-6.31
679.495	1.69
679.525	-0.31
679.556	5.69
679.586	22.69
679.617	1.69
679.647	0.69
679.678	1.69
679.708	-1.31
679.739	-11.31
679.769	-10.31
679.8	-2.31
679.83	-0.31
679.861	-5.31
679.891	-0.31
679.922	-6.31
679.952	-7.31
679.983	6.69
680.013	-1.31
680.044	-6.31
680.074	6.69
680.105	12.69
680.135	9.69
680.165	11.69
680.196	10.69
680.226	-1.31
680.257	10.69
680.287	-0.31
680.318	-0.31
680.348	-10.31
680.379	12.69
680.409	1.69
680.439	-11.31
680.47	4.69
680.5	-8.31
680.531	-5.31
680.561	-0.31
680.592	4.69
680.622	18.69
680.652	17.69
680.683	28.69
680.713	0.69
680.744	19.69
680.774	4.69
680.804	6.69
680.835	-3.31
680.865	-7.31
680.896	16.69
680.926	15.69
680.956	-2.31
680.987	18.69
681.017	4.69
681.047	9.69
681.078	-15.31
681.108	-8.31
681.139	-6.31
681.169	-1.31
681.199	-1.31
681.23	10.69
681.26	-7.31
681.29	-0.31
681.321	-7.31
681.351	6.69
681.381	-22.31
681.412	11.69
681.442	8.69
681.472	9.69
681.503	17.69
681.533	6.69
681.563	4.69
681.594	-1.31
681.624	1.69
681.654	1.69
681.685	-1.31
681.715	4.69
681.745	9.69
681.775	1.69
681.806	-1.31
681.836	-4.31
681.866	-10.31
681.897	-6.31
681.927	-8.31
681.957	-34.31
681.987	-0.31
682.018	3.69
682.048	3.69
682.078	-4.31
682.109	18.69
682.139	1.69
682.169	8.69
682.199	3.69
682.23	-5.31
682.26	-2.31
682.29	-0.31
682.32	-13.31
682.351	-7.31
682.381	-5.31
682.411	3.69
682.441	7.69
682.472	-3.31
682.502	-4.31
682.532	-12.31
682.562	2.69
682.592	14.69
682.623	5.69
682.653	5.69
682.683	-6.31
682.713	-0.31
682.743	15.69
682.774	7.69
682.804	5.69
682.834	-0.31
682.864	-16.31
682.894	3.69
682.925	-5.31
682.955	-7.31
682.985	-9.31
683.015	4.69
683.045	20.69
683.076	-18.31
683.106	-13.31
683.136	-4.31
683.166	-0.31
683.196	-9.31
683.226	14.69
683.257	10.69
683.287	-3.31
683.317	-9.31
683.347	-12.31
683.377	-1.31
683.407	-0.31
683.437	17.69
683.468	15.69
683.498	-0.31
683.528	6.69
683.558	-7.31
683.588	-7.31
683.618	1.69
683.648	-7.31
683.678	-8.31
683.708	6.69
683.739	5.69
683.769	3.69
683.799	1.69
683.829	-10.31
683.859	2.69
683.889	12.69
683.919	-2.31
683.949	8.69
683.979	-1.31
684.009	-3.31
684.039	-6.31
684.07	1.69
684.1	12.69
684.13	3.69
684.16	11.69
684.19	7.69
684.22	10.69
684.25	11.69
684.28	-3.31
684.31	6.69
684.34	11.69
684.37	3.69
684.4	-9.31
684.43	1.69
684.46	-5.31
684.49	5.69
684.52	-6.31
684.55	1.69
684.58	10.69
684.61	8.69
684.64	8.69
684.67	1.69
684.7	-4.31
684.73	7.69
684.76	4.69
684.79	6.69
684.82	3.69
684.85	8.69
684.88	7.69
684.91	9.69
684.94	-5.31
684.97	-7.31
685	6.69
685.03	-5.31
685.06	-5.31
685.09	13.69
685.12	19.69
685.15	-10.31
685.18	5.69
685.21	5.69
685.24	14.69
685.27	26.69
685.3	13.69
685.33	12.69
685.36	11.69
685.39	-0.31
685.42	-1.31
685.45	1.69
685.48	-3.31
685.51	-11.31
685.54	16.69
685.569	8.69
685.599	25.69
685.629	-0.31
685.659	-15.31
685.689	-8.31
685.719	12.69
685.749	6.69
685.779	22.69
685.809	9.69
685.839	8.69
685.869	-3.31
685.898	6.69
685.928	-2.31
685.958	-2.31
685.988	15.69
686.018	-8.31
686.048	2.69
686.078	7.69
686.108	24.69
686.137	9.69
686.167	15.69
686.197	-18.31
686.227	-7.31
686.257	10.69
686.287	32.69
686.317	4.69
686.346	2.69
686.376	-6.31
686.406	0.69
686.436	5.69
686.466	-3.31
686.496	-1.31
686.525	0.69
686.555	-6.31
686.585	8.69
686.615	10.69
686.645	-3.31
686.675	-20.31
686.704	-0.31
686.734	16.69
686.764	-14.31
686.794	4.69
686.824	8.69
686.853	25.69
686.883	16.69
686.913	15.69
686.943	10.69
686.973	9.69
687.002	1.69
687.032	9.69
687.062	-2.31
687.092	15.69
687.121	-2.31
687.151	-0.31
687.181	-1.31
687.211	12.69
687.24	-7.31
687.27	-2.31
687.3	2.69
687.33	-14.31
687.359	-9.31
687.389	13.69
687.419	8.69
687.449	4.69
687.478	9.69
687.508	4.69
687.538	1.69
687.568	12.69
687.597	-4.31
687.627	2.69
687.657	6.69
687.686	9.69
687.716	6.69
687.746	5.69
687.776	-2.31
687.805	2.69
687.835	8.69
687.865	27.69
687.894	11.69
687.924	8.69
687.954	-12.31
687.983	-20.31
688.013	-4.31
688.043	12.69
688.072	-4.31
688.102	14.69
688.132	-0.31
688.161	-1.31
688.191	5.69
688.221	11.69
688.25	-12.31
688.28	9.69
688.31	5.69
688.339	8.69
688.369	-14.31
688.399	0.69
688.428	-6.31
688.458	8.69
688.488	-10.31
688.517	2.69
688.547	-2.31
688.576	18.69
688.606	18.69
688.636	-8.31
688.665	4.69
688.695	16.69
688.725	18.69
688.754	2.69
688.784	1.69
688.813	5.69
688.843	-10.31
688.873	2.69
688.902	-3.31
688.932	-8.31
688.961	2.69
688.991	15.69
689.02	17.69
689.05	-16.31
689.08	13.69
689.109	23.69
689.139	5.69
689.168	8.69
689.198	-21.31
689.227	-10.31
689.257	9.69
689.287	13.69
689.316	0.69
689.346	-8.31
689.375	-6.31
689.405	7.69
689.434	-2.31
689.464	9.69
689.493	-1.31
689.523	-15.31
689.552	-5.31
689.582	-5.31
689.611	5.69
689.641	7.69
689.67	12.69
689.7	16.69
689.73	14.69
689.759	16.69
689.789	8.69
689.818	-6.31
689.848	9.69
689.877	7.69
689.906	-0.31
689.936	-5.31
689.965	8.69
689.995	19.69
690.024	22.69
690.054	0.69
690.083	-0.31
690.113	-5.31
690.142	0.69
690.172	8.69
690.201	10.69
690.231	-0.31
690.26	16.69
690.29	-9.31
690.319	11.69
690.348	17.69
690.378	4.69
690.407	9.69
690.437	9.69
690.466	5.69
690.496	3.69
690.525	-0.31
690.555	-7.31
690.584	-0.31
690.613	-3.31
690.643	4.69
690.672	7.69
690.702	1.69
690.731	7.69
690.76	24.69
690.79	-21.31
690.819	-11.31
690.849	13.69
690.878	3.69
690.907	4.69
690.937	11.69
690.966	6.69
690.996	-13.31
691.025	2.69
691.054	1.69
691.084	2.69
691.113	16.69
691.142	0.69
691.172	-3.31
691.201	-1.31
691.23	-0.31
691.26	24.69
691.289	-8.31
691.319	7.69
691.348	5.69
691.377	7.69
691.407	2.69
691.436	6.69
691.465	7.69
691.495	11.69
691.524	0.69
691.553	-1.31
691.583	-0.31
691.612	10.69
691.641	10.69
691.67	3.69
691.7	16.69
691.729	5.69
691.758	18.69
691.788	0.69
691.817	2.69
691.846	8.69
691.876	16.69
691.905	16.69
691.934	7.69
691.963	18.69
691.993	4.69
692.022	5.69
692.051	-7.31
692.081	3.69
692.11	11.69
692.139	12.69
692.168	12.69
692.198	31.69
692.227	23.69
692.256	-1.31
692.285	-1.31
692.315	-0.31
692.344	-2.31
692.373	-1.31
692.402	-15.31
692.432	-10.31
692.461	2.69
692.49	6.69
692.519	-0.31
692.548	-2.31
692.578	5.69
692.607	0.69
692.636	-11.31
692.665	4.69
692.694	16.69
692.724	2.69
692.753	0.69
692.782	13.69
692.811	-7.31
692.84	-8.31
692.87	1.69
692.899	7.69
692.928	2.69
692.957	16.69
692.986	9.69
693.016	6.69
693.045	6.69
693.074	5.69
693.103	5.69
693.132	5.69
693.161	18.69
693.191	9.69
693.22	-7.31
693.249	-3.31
693.278	-5.31
693.307	10.69
693.336	0.69
693.365	-14.31
693.395	1.69
693.424	1.69
693.453	25.69
693.482	19.69
693.511	24.69
693.54	0.69
693.569	12.69
693.598	5.69
693.628	24.69
693.657	12.69
693.686	16.69
693.715	8.69
693.744	12.69
693.773	30.69
693.802	5.69
693.831	-0.31
693.86	8.69
693.889	12.69
693.919	9.69
693.948	19.69
693.977	16.69
694.006	-2.31
694.035	4.69
694.064	-12.31
694.093	2.69
694.122	5.69
694.151	-0.31
694.18	4.69
694.209	18.69
694.238	1.69
694.267	20.69
694.296	3.69
694.325	-3.31
694.354	14.69
694.383	7.69
694.412	-12.31
694.441	-5.31
694.471	5.69
694.5	-4.31
694.529	9.69
694.558	19.69
694.587	23.69
694.616	-2.31
694.645	12.69
694.674	15.69
694.703	17.69
694.732	-9.31
694.761	11.69
694.79	5.69
694.819	-7.31
694.848	0.69
694.877	11.69
694.906	23.69
694.935	15.69
694.963	12.69
694.992	1.69
695.021	0.69
695.05	3.69
695.079	5.69
695.108	-9.31
695.137	23.69
695.166	11.69
695.195	5.69
695.224	14.69
695.253	5.69
695.282	7.69
695.311	9.69
695.34	7.69
695.369	19.69
695.398	10.69
695.427	24.69
695.456	7.69
695.485	9.69
695.513	18.69
695.542	5.69
695.571	4.69
695.6	5.69
695.629	18.69
695.658	13.69
695.687	13.69
695.716	13.69
695.745	25.69
695.774	-1.31
695.802	-6.31
695.831	5.69
695.86	7.69
695.889	13.69
695.918	0.69
695.947	-7.31
695.976	4.69
696.005	0.69
696.033	14.69
696.062	17.69
696.091	22.69
696.12	15.69
696.149	16.69
696.178	13.69
696.207	13.69
696.235	-14.31
696.264	6.69
696.293	5.69
696.322	1.69
696.351	7.69
696.38	-7.31
696.408	6.69
696.437	7.69
696.466	8.69
696.495	7.69
696.524	3.69
696.553	3.69
696.581	23.69
696.61	5.69
696.639	-8.31
696.668	18.69
696.697	9.69
696.725	8.69
696.754	12.69
696.783	-11.31
696.812	-20.31
696.84	0.69
696.869	8.69
696.898	23.69
696.927	5.69
696.956	21.69
696.984	1.69
697.013	-0.31
697.042	7.69
697.071	8.69
697.099	7.69
697.128	13.69
697.157	3.69
697.186	3.69
697.214	2.69
697.243	-7.31
697.272	9.69
697.301	20.69
697.329	1.69
697.358	22.69
697.387	26.69
697.415	13.69
697.444	10.69
697.473	2.69
697.502	-4.31
697.53	-2.31
697.559	13.69
697.588	4.69
697.616	5.69
697.645	1.69
697.674	16.69
697.703	9.69
697.731	11.69
697.76	4.69
697.789	17.69
697.817	7.69
697.846	25.69
697.875	25.69
697.903	34.69
697.932	31.69
697.961	-1.31
697.989	4.69
698.018	15.69
698.047	16.69
698.075	16.69
698.104	2.69
698.133	4.69
698.161	3.69
698.19	1.69
698.218	13.69
698.247	8.69
698.276	5.69
698.304	-1.31
698.333	0.69
698.362	5.69
698.39	12.69
698.419	23.69
698.447	-0.31
698.476	7.69
698.505	10.69
698.533	8.69
698.562	8.69
698.591	-5.31
698.619	-2.31
698.648	9.69
698.676	9.69
698.705	7.69
698.733	-1.31
698.762	-0.31
698.791	5.69
698.819	12.69
698.848	-7.31
698.876	14.69
698.905	14.69
698.933	5.69
698.962	20.69
698.991	24.69
699.019	16.69
699.048	5.69
699.076	8.69
699.105	-10.31
699.133	14.69
699.162	16.69
699.19	20.69
699.219	3.69
699.248	-2.31
699.276	-7.31
699.305	-19.31
699.333	5.69
699.362	-11.31
699.39	9.69
699.419	7.69
699.447	-5.31
699.476	9.69
699.504	7.69
699.533	0.69
699.561	-1.31
699.59	5.69
699.618	-2.31
699.647	9.69
699.675	2.69
699.704	17.69
699.732	7.69
699.761	15.69
699.789	11.69
699.818	2.69
699.846	-2.31
699.874	9.69
699.903	8.69
699.931	2.69
699.96	-0.31
699.988	2.69
700.017	11.69
700.045	11.69
700.074	0.69
700.102	2.69
700.13	3.69
700.159	2.69
700.187	6.69
700.216	5.69
700.244	-16.31
700.273	1.69
700.301	4.69
700.329	-2.31
700.358	9.69
700.386	6.69
700.415	7.69
700.443	-1.31
700.472	1.69
700.5	2.69
700.528	0.69
700.557	20.69
700.585	1.69
700.614	-7.31
700.642	23.69
700.67	18.69
700.699	11.69
700.727	13.69
700.755	11.69
700.784	12.69
700.812	-1.31
700.841	-9.31
700.869	-10.31
700.897	-16.31
700.926	-6.31
700.954	-8.31
700.982	6.69
701.011	13.69
701.039	7.69
701.067	8.69
701.096	-1.31
701.124	-7.31
701.152	-0.31
701.181	-3.31
701.209	-16.31
701.237	6.69
701.266	4.69
701.294	-28.31
701.322	4.69
701.351	7.69
701.379	2.69
701.407	5.69
701.435	14.69
701.464	32.69
701.492	18.69
701.52	-4.31
701.549	5.69
701.577	-10.31
701.605	2.69
701.634	13.69
701.662	4.69
701.69	-6.31
701.718	-2.31
701.747	10.69
701.775	-0.31
701.803	-15.31
701.831	9.69
701.86	-3.31
701.888	0.69
701.916	-0.31
701.944	-3.31
701.973	-5.31
702.001	-15.31
702.029	-8.31
702.057	-0.31
702.086	-4.31
702.114	-3.31
702.142	10.69
702.17	-2.31
702.199	5.69
702.227	14.69
702.255	9.69
702.283	-10.31
702.311	8.69
702.34	-1.31
702.368	-17.31
702.396	7.69
702.424	0.69
702.452	1.69
702.481	17.69
702.509	-9.31
702.537	0.69
702.565	-18.31
702.593	-16.31
702.621	1.69
702.65	14.69
702.678	4.69
702.706	7.69
702.734	-6.31
702.762	11.69
702.79	-3.31
702.819	1.69
702.847	-0.31
702.875	9.69
702.903	21.69
702.931	-3.31
702.959	17.69
702.988	1.69
703.016	-0.31
703.044	1.69
703.072	-0.31
703.1	-23.31
703.128	5.69
703.156	13.69
703.184	3.69
703.212	14.69
703.241	7.69
703.269	-3.31
703.297	8.69
703.325	5.69
703.353	3.69
703.381	-10.31
703.409	7.69
703.437	-4.31
703.465	-0.31
703.493	-17.31
703.522	11.69
703.55	4.69
703.578	11.69
703.606	0.69
703.634	0.69
703.662	-4.31
703.69	4.69
703.718	2.69
703.746	26.69
703.774	17.69
703.802	17.69
703.83	0.69
703.858	1.69
703.886	-12.31
703.914	-5.31
703.942	4.69
703.97	1.69
703.998	1.69
704.027	24.69
704.055	0.69
704.083	-2.31
704.111	-20.31
704.139	0.69
704.167	-2.31
704.195	-1.31
704.223	-10.31
704.251	-10.31
704.279	4.69
704.307	-1.31
704.335	-28.31
704.363	-0.31
704.391	-4.31
704.419	-3.31
704.447	8.69
704.475	11.69
704.503	-9.31
704.531	11.69
704.558	18.69
704.586	-7.31
704.614	-2.31
704.642	2.69
704.67	-3.31
704.698	3.69
704.726	7.69
704.754	-9.31
704.782	7.69
704.81	-1.31
704.838	13.69
704.866	9.69
704.894	-16.31
704.922	-7.31
704.95	7.69
704.978	16.69
705.006	12.69
705.034	18.69
705.061	-5.31
705.089	8.69
705.117	-2.31
705.145	0.69
705.173	10.69
705.201	-6.31
705.229	9.69
705.257	5.69
705.285	9.69
705.313	7.69
705.34	11.69
705.368	6.69
705.396	-0.31
705.424	-3.31
705.452	-6.31
705.48	4.69
705.508	-12.31
705.536	2.69
705.563	-5.31
705.591	18.69
705.619	8.69
705.647	-10.31
705.675	-8.31
705.703	8.69
705.731	-6.31
705.758	7.69
705.786	12.69
705.814	30.69
705.842	15.69
705.87	8.69
705.898	18.69
705.925	-12.31
705.953	-11.31
705.981	-5.31
706.009	1.69
706.037	9.69
706.065	-0.31
706.092	1.69
706.12	8.69
706.148	-0.31
706.176	-20.31
706.204	17.69
706.231	2.69
706.259	-1.31
706.287	-7.31
706.315	-0.31
706.342	1.69
706.37	14.69
706.398	7.69
706.426	-9.31
706.454	-0.31
706.481	12.69
706.509	-6.31
706.537	-11.31
706.565	1.69
706.592	3.69
706.62	-2.31
706.648	7.69
706.676	-9.31
706.703	-9.31
706.731	-14.31
706.759	2.69
706.787	2.69
706.814	-2.31
706.842	7.69
706.87	-8.31
706.897	3.69
706.925	-3.31
706.953	1.69
706.981	8.69
707.008	15.69
707.036	17.69
707.064	1.69
707.091	-10.31
707.119	15.69
707.147	7.69
707.174	-18.31
707.202	27.69
707.23	-12.31
707.258	12.69
707.285	-5.31
707.313	3.69
707.341	-6.31
707.368	-8.31
707.396	5.69
707.424	21.69
707.451	-5.31
707.479	-3.31
707.507	-3.31
707.534	-1.31
707.562	0.69
707.59	7.69
707.617	-2.31
707.645	0.69
707.672	3.69
707.7	-2.31
707.728	4.69
707.755	11.69
707.783	5.69
707.811	5.69
707.838	-4.31
707.866	-12.31
707.893	-9.31
707.921	-1.31
707.949	0.69
707.976	3.69
708.004	2.69
708.031	-24.31
708.059	0.69
708.087	17.69
708.114	2.69
708.142	3.69
708.169	-9.31
708.197	-10.31
708.225	-12.31
708.252	-3.31
708.28	5.69
708.307	-14.31
708.335	3.69
708.362	-6.31
708.39	-9.31
708.418	-3.31
708.445	-14.31
708.473	-12.31
708.5	-7.31
708.528	18.69
708.555	11.69
708.583	-6.31
708.61	-5.31
708.638	16.69
708.665	-4.31
708.693	5.69
708.72	-16.31
708.748	-8.31
708.776	-3.31
708.803	17.69
708.831	17.69
708.858	3.69
708.886	4.69
708.913	10.69
708.941	1.69
708.968	3.69
708.996	-4.31
709.023	8.69
709.051	-1.31
709.078	-11.31
709.105	1.69
709.133	14.69
709.16	2.69
709.188	10.69
709.215	-5.31
709.243	-1.31
709.27	-10.31
709.298	4.69
709.325	-10.31
709.353	6.69
709.38	7.69
709.408	0.69
709.435	-1.31
709.462	-12.31
709.49	18.69
709.517	-2.31
709.545	-3.31
709.572	-4.31
709.6	3.69
709.627	2.69
709.655	-13.31
709.682	-4.31
709.709	3.69
709.737	-5.31
709.764	-11.31
709.792	13.69
709.819	-4.31
709.846	-0.31
709.874	5.69
709.901	-7.31
709.929	5.69
709.956	12.69
709.983	2.69
710.011	-7.31
710.038	-4.31
710.066	17.69
710.093	21.69
710.12	8.69
710.148	11.69
710.175	-16.31
710.202	-10.31
710.23	4.69
710.257	6.69
710.284	12.69
710.312	1.69
710.339	-4.31
710.366	0.69
710.394	-8.31
710.421	12.69
710.448	1.69
710.476	-3.31
710.503	13.69
710.53	7.69
710.558	19.69
710.585	9.69
710.612	-2.31
710.64	0.69
710.667	-9.31
710.694	-4.31
710.722	-1.31
710.749	-4.31
710.776	-8.31
710.804	17.69
710.831	18.69
710.858	8.69
710.885	-12.31
710.913	1.69
710.94	12.69
710.967	-2.31
710.995	3.69
711.022	-3.31
711.049	-1.31
711.076	-10.31
711.104	-11.31
711.131	-6.31
711.158	-0.31
711.185	5.69
711.213	0.69
711.24	-3.31
711.267	-2.31
711.294	-0.31
711.322	21.69
711.349	1.69
711.376	0.69
711.403	-6.31
711.431	-3.31
711.458	-0.31
711.485	-17.31
711.512	-3.31
711.54	-1.31
711.567	3.69
711.594	-7.31
711.621	0.69
711.648	8.69
711.676	-4.31
711.703	-0.31
711.73	-13.31
711.757	-1.31
711.784	4.69
711.812	4.69
711.839	-3.31
711.866	-9.31
711.893	-9.31
711.92	6.69
711.947	19.69
711.975	15.69
712.002	6.69
712.029	17.69
712.056	1.69
712.083	-0.31
712.11	-16.31
712.138	-0.31
712.165	-9.31
712.192	12.69
712.219	7.69
712.246	10.69
712.273	-0.31
712.3	-1.31
712.328	-2.31
712.355	1.69
712.382	6.69
712.409	6.69
712.436	-3.31
712.463	4.69
712.49	7.69
712.517	8.69
712.544	6.69
712.572	2.69
712.599	1.69
712.626	3.69
712.653	-7.31
712.68	-4.31
712.707	15.69
712.734	4.69
712.761	-9.31
712.788	3.69
712.815	9.69
712.842	27.69
712.87	-6.31
712.897	-10.31
712.924	-4.31
712.951	5.69
712.978	14.69
713.005	13.69
713.032	16.69
713.059	-4.31
713.086	-10.31
713.113	-6.31
713.14	-7.31
713.167	13.69
713.194	9.69
713.221	21.69
713.248	12.69
713.275	-2.31
713.302	-3.31
713.329	7.69
713.356	4.69
713.383	-3.31
713.41	2.69
713.437	5.69
713.464	1.69
713.491	4.69
713.518	-11.31
713.545	-12.31
713.572	4.69
713.599	4.69
713.626	2.69
713.653	4.69
713.68	-19.31
713.707	3.69
713.734	8.69
713.761	1.69
713.788	4.69
713.815	15.69
713.842	7.69
713.869	-2.31
713.896	2.69
713.923	5.69
713.95	5.69
713.977	5.69
714.004	8.69
714.031	-16.31
714.058	-10.31
714.085	14.69
714.112	22.69
714.139	7.69
714.165	4.69
714.192	-12.31
714.219	14.69
714.246	7.69
714.273	2.69
714.3	-6.31
714.327	-8.31
714.354	4.69
714.381	-3.31
714.408	-3.31
714.435	-6.31
714.461	2.69
714.488	8.69
714.515	4.69
714.542	4.69
714.569	-1.31
714.596	-13.31
714.623	-6.31
714.65	-9.31
714.677	-3.31
714.703	10.69
714.73	-0.31
714.757	0.69
714.784	-4.31
714.811	-2.31
714.838	4.69
714.865	1.69
714.891	11.69
714.918	1.69
714.945	-17.31
714.972	-1.31
714.999	9.69
715.026	1.69
715.052	9.69
715.079	1.69
715.106	-2.31
715.133	1.69
715.16	-4.31
715.187	15.69
715.213	5.69
715.24	7.69
715.267	7.69
715.294	-1.31
715.321	-7.31
715.347	-11.31
715.374	-9.31
715.401	3.69
715.428	-5.31
715.455	0.69
715.481	1.69
715.508	15.69
715.535	10.69
715.562	29.69
715.588	14.69
715.615	0.69
715.642	-1.31
715.669	12.69
715.695	-2.31
715.722	4.69
715.749	-10.31
715.776	-5.31
715.802	3.69
715.829	-2.31
715.856	-3.31
715.883	16.69
715.909	-14.31
715.936	3.69
715.963	3.69
715.99	-7.31
716.016	13.69
716.043	14.69
716.07	7.69
716.096	-2.31
716.123	-2.31
716.15	7.69
716.177	-7.31
716.203	15.69
716.23	0.69
716.257	-0.31
716.283	19.69
716.31	5.69
716.337	3.69
716.363	-1.31
716.39	11.69
716.417	8.69
716.443	4.69
716.47	18.69
716.497	20.69
716.523	17.69
716.55	0.69
716.577	12.69
716.603	-4.31
716.63	6.69
716.657	8.69
716.683	-3.31
716.71	0.69
716.737	-2.31
716.763	10.69
716.79	2.69
716.817	21.69
716.843	-4.31
716.87	0.69
716.897	-3.31
716.923	6.69
716.95	-6.31
716.976	4.69
717.003	-7.31
717.03	-3.31
717.056	4.69
717.083	-4.31
717.109	5.69
717.136	13.69
717.163	7.69
717.189	-0.31
717.216	6.69
717.242	0.69
717.269	1.69
717.296	8.69
717.322	6.69
717.349	16.69
717.375	11.69
717.402	4.69
717.428	-5.31
717.455	7.69
717.481	9.69
717.508	4.69
717.535	7.69
717.561	-0.31
717.588	-1.31
717.614	-4.31
717.641	3.69
717.667	3.69
717.694	2.69
717.72	11.69
717.747	8.69
717.773	-2.31
717.8	15.69
717.826	11.69
717.853	4.69
717.88	17.69
717.906	3.69
717.933	4.69
717.959	14.69
717.986	-1.31
718.012	7.69
718.039	3.69
718.065	13.69
718.092	14.69
718.118	-4.31
718.144	-0.31
718.171	8.69
718.197	25.69
718.224	-8.31
718.25	6.69
718.277	3.69
718.303	10.69
718.33	-1.31
718.356	-5.31
718.383	-15.31
718.409	-2.31
718.436	-1.31
718.462	13.69
718.489	7.69
718.515	23.69
718.541	11.69
718.568	11.69
718.594	23.69
718.621	13.69
718.647	0.69
718.674	20.69
718.7	11.69
718.726	0.69
718.753	6.69
718.779	11.69
718.806	8.69
718.832	5.69
718.858	2.69
718.885	-6.31
718.911	10.69
718.938	-0.31
718.964	-4.31
718.99	3.69
719.017	5.69
719.043	14.69
719.07	12.69
719.096	0.69
719.122	6.69
719.149	3.69
719.175	3.69
719.201	15.69
719.228	18.69
719.254	10.69
719.281	15.69
719.307	0.69
719.333	7.69
719.36	4.69
719.386	-3.31
719.412	23.69
719.439	-5.31
719.465	11.69
719.491	-5.31
719.518	5.69
719.544	0.69
719.57	16.69
719.597	3.69
719.623	-6.31
719.649	9.69
719.675	17.69
719.702	14.69
719.728	13.69
719.754	-12.31
719.781	-4.31
719.807	-10.31
719.833	5.69
719.86	16.69
719.886	8.69
719.912	15.69
719.938	-20.31
719.965	-4.31
719.991	3.69
720.017	0.69
720.044	-8.31
720.07	3.69
720.096	9.69
720.122	0.69
720.149	23.69
720.175	29.69
720.201	-6.31
720.227	-7.31
720.254	-2.31
720.28	-2.31
720.306	1.69
720.332	-0.31
720.359	-4.31
720.385	14.69
720.411	6.69
720.437	15.69
720.463	6.69
720.49	3.69
720.516	-5.31
720.542	-6.31
720.568	8.69
720.595	16.69
720.621	-5.31
720.647	1.69
720.673	10.69
720.699	16.69
720.725	12.69
720.752	5.69
720.778	15.69
720.804	18.69
720.83	7.69
720.856	-6.31
720.883	-17.31
720.909	-1.31
720.935	9.69
720.961	22.69
720.987	-0.31
721.013	7.69
721.04	18.69
721.066	8.69
721.092	-7.31
721.118	6.69
721.144	9.69
721.17	9.69
721.196	-2.31
721.223	5.69
721.249	3.69
721.275	13.69
721.301	13.69
721.327	6.69
721.353	-4.31
721.379	10.69
721.405	10.69
721.432	16.69
721.458	6.69
721.484	-1.31
721.51	-4.31
721.536	6.69
721.562	0.69
721.588	5.69
721.614	2.69
721.64	-7.31
721.666	-10.31
721.693	-12.31
721.719	2.69
721.745	-0.31
721.771	-2.31
721.797	8.69
721.823	2.69
721.849	1.69
721.875	5.69
721.901	5.69
721.927	5.69
721.953	-6.31
721.979	10.69
722.005	25.69
722.031	4.69
722.057	16.69
722.083	5.69
722.109	6.69
722.135	17.69
722.161	14.69
722.187	-2.31
722.214	-0.31
722.24	1.69
722.266	3.69
722.292	10.69
722.318	14.69
722.344	3.69
722.37	12.69
722.396	-2.31
722.422	1.69
722.448	1.69
722.474	-8.31
722.5	7.69
722.526	2.69
722.552	-4.31
722.578	-2.31
722.603	-0.31
722.629	8.69
722.655	-3.31
722.681	1.69
722.707	7.69
722.733	13.69
722.759	-1.31
722.785	-7.31
722.811	2.69
722.837	-4.31
722.863	9.69
722.889	27.69
722.915	4.69
722.941	-6.31
722.967	10.69
722.993	14.69
723.019	7.69
723.045	13.69
723.071	10.69
723.097	5.69
723.122	-0.31
723.148	-4.31
723.174	1.69
723.2	11.69
723.226	1.69
723.252	-18.31
723.278	-9.31
723.304	3.69
723.33	-5.31
723.356	-2.31
723.381	-11.31
723.407	-6.31
723.433	11.69
723.459	6.69
723.485	6.69
723.511	18.69
723.537	7.69
723.563	-3.31
723.588	14.69
723.614	12.69
723.64	1.69
723.666	-6.31
723.692	15.69
723.718	-4.31
723.744	16.69
723.769	5.69
723.795	3.69
723.821	7.69
723.847	1.69
723.873	7.69
723.899	16.69
723.924	8.69
723.95	0.69
723.976	-2.31
724.002	0.69
724.028	6.69
724.053	6.69
724.079	-0.31
724.105	11.69
724.131	15.69
724.157	3.69
724.182	7.69
724.208	3.69
724.234	3.69
724.26	3.69
724.286	3.69
724.311	0.69
724.337	-15.31
724.363	-2.31
724.389	-4.31
724.415	-1.31
724.44	9.69
724.466	-3.31
724.492	1.69
724.518	12.69
724.543	0.69
724.569	21.69
724.595	-2.31
724.621	8.69
724.646	-8.31
724.672	6.69
724.698	-9.31
724.723	-9.31
724.749	13.69
724.775	9.69
724.801	13.69
724.826	-2.31
724.852	-4.31
724.878	-3.31
724.904	-27.31
724.929	-2.31
724.955	-16.31
724.981	0.69
725.006	3.69
725.032	1.69
725.058	22.69
725.083	6.69
725.109	-1.31
725.135	5.69
725.161	2.69
725.186	3.69
725.212	-3.31
725.238	16.69
725.263	-3.31
725.289	-11.31
725.315	-6.31
725.34	4.69
725.366	14.69
725.392	5.69
725.417	8.69
725.443	14.69
725.468	21.69
725.494	6.69
725.52	3.69
725.545	4.69
725.571	-7.31
725.597	12.69
725.622	8.69
725.648	7.69
725.674	18.69
725.699	5.69
725.725	-5.31
725.75	27.69
725.776	-1.31
725.802	9.69
725.827	-5.31
725.853	3.69
725.878	18.69
725.904	11.69
725.93	3.69
725.955	-9.31
725.981	-2.31
726.006	-1.31
726.032	3.69
726.057	-3.31
726.083	-3.31
726.109	8.69
726.134	3.69
726.16	5.69
726.185	3.69
726.211	-2.31
726.236	10.69
726.262	10.69
726.288	4.69
726.313	-0.31
726.339	5.69
726.364	4.69
726.39	12.69
726.415	13.69
726.441	4.69
726.466	3.69
726.492	4.69
726.517	-0.31
726.543	-9.31
726.568	-3.31
726.594	3.69
726.619	-4.31
726.645	9.69
726.67	-16.31
726.696	15.69
726.721	-10.31
726.747	-3.31
726.772	3.69
726.798	3.69
726.823	6.69
726.849	5.69
726.874	12.69
726.9	17.69
726.925	3.69
726.951	4.69
726.976	-4.31
727.002	-8.31
727.027	0.69
727.053	21.69
727.078	-9.31
727.104	-5.31
727.129	-8.31
727.155	-12.31
727.18	11.69
727.205	-2.31
727.231	-5.31
727.256	0.69
727.282	8.69
727.307	19.69
727.333	12.69
727.358	-9.31
727.383	-12.31
727.409	3.69
727.434	4.69
727.46	-12.31
727.485	4.69
727.511	12.69
727.536	-12.31
727.561	2.69
727.587	-0.31
727.612	7.69
727.637	4.69
727.663	-0.31
727.688	17.69
727.714	9.69
727.739	-0.31
727.764	-3.31
727.79	-3.31
727.815	0.69
727.841	10.69
727.866	13.69
727.891	1.69
727.917	-14.31
727.942	-0.31
727.967	0.69
727.993	-15.31
728.018	-15.31
728.043	3.69
728.069	7.69
728.094	6.69
728.119	-2.31
728.145	15.69
728.17	-3.31
728.195	11.69
728.221	9.69
728.246	1.69
728.271	-11.31
728.297	0.69
728.322	-8.31
728.347	4.69
728.373	6.69
728.398	12.69
728.423	-0.31
728.448	-0.31
728.474	4.69
728.499	7.69
728.524	-5.31
728.55	7.69
728.575	3.69
728.6	11.69
728.625	7.69
728.651	22.69
728.676	18.69
728.701	3.69
728.727	8.69
728.752	-11.31
728.777	-6.31
728.802	-3.31
728.828	1.69
728.853	5.69
728.878	-11.31
728.903	-3.31
728.929	-6.31
728.954	5.69
728.979	16.69
729.004	-5.31
729.03	-0.31
729.055	4.69
729.08	2.69
729.105	15.69
729.13	11.69
729.156	9.69
729.181	-12.31
729.206	-15.31
729.231	-8.31
729.256	8.69
729.282	8.69
729.307	-5.31
729.332	-23.31
729.357	0.69
729.382	-1.31
729.408	-0.31
729.433	3.69
729.458	15.69
729.483	13.69
729.508	12.69
729.533	-2.31
729.559	11.69
729.584	-3.31
729.609	7.69
729.634	10.69
729.659	-12.31
729.684	-1.31
729.71	22.69
729.735	6.69
729.76	-0.31
729.785	-7.31
729.81	9.69
729.835	-10.31
729.86	-12.31
729.886	8.69
729.911	18.69
729.936	4.69
729.961	13.69
729.986	3.69
730.011	-3.31
730.036	-2.31
730.061	3.69
730.086	15.69
730.112	-4.31
730.137	10.69
730.162	-0.31
730.187	-9.31
730.212	6.69
730.237	3.69
730.262	0.69
730.287	0.69
730.312	21.69
730.337	1.69
730.362	11.69
730.387	4.69
730.413	-8.31
730.438	3.69
730.463	5.69
730.488	4.69
730.513	-5.31
730.538	4.69
730.563	20.69
730.588	7.69
730.613	-0.31
730.638	4.69
730.663	1.69
730.688	21.69
730.713	3.69
730.738	2.69
730.763	-1.31
730.788	0.69
730.813	10.69
730.838	-8.31
730.863	-0.31
730.888	0.69
730.913	-7.31
730.938	-8.31
730.963	-7.31
730.988	1.69
731.013	11.69
731.038	6.69
731.063	1.69
731.088	15.69
731.113	6.69
731.138	2.69
731.163	0.69
731.188	-10.31
731.213	-2.31
731.238	13.69
731.263	17.69
731.288	-3.31
731.313	12.69
731.338	5.69
731.363	4.69
731.388	-5.31
731.413	-12.31
731.438	9.69
731.463	5.69
731.487	6.69
731.512	-6.31
731.537	9.69
731.562	-0.31
731.587	4.69
731.612	-3.31
731.637	1.69
731.662	-0.31
731.687	0.69
731.712	-7.31
731.737	4.69
731.762	4.69
731.786	18.69
731.811	7.69
731.836	9.69
731.861	2.69
731.886	14.69
731.911	-2.31
731.936	4.69
731.961	4.69
731.986	-5.31
732.01	9.69
732.035	-0.31
732.06	12.69
732.085	-7.31
732.11	1.69
732.135	-15.31
732.16	-9.31
732.184	0.69
732.209	-14.31
732.234	4.69
732.259	9.69
732.284	16.69
732.309	-13.31
732.334	-15.31
732.358	-7.31
732.383	-12.31
732.408	0.69
732.433	2.69
732.458	8.69
732.482	-1.31
732.507	-6.31
732.532	7.69
732.557	14.69
732.582	-2.31
732.607	3.69
732.631	-7.31
732.656	-12.31
732.681	-2.31
732.706	-10.31
732.73	-3.31
732.755	-0.31
732.78	0.69
732.805	9.69
732.83	-0.31
732.854	12.69
732.879	13.69
732.904	-3.31
732.929	5.69
732.953	23.69
732.978	5.69
733.003	-7.31
733.028	-7.31
733.052	7.69
733.077	-16.31
733.102	4.69
733.127	4.69
733.151	7.69
733.176	3.69
733.201	4.69
733.226	2.69
733.25	-10.31
733.275	2.69
733.3	6.69
733.324	5.69
733.349	5.69
733.374	15.69
733.399	0.69
733.423	-1.31
733.448	-8.31
733.473	-11.31
733.497	4.69
733.522	-2.31
733.547	14.69
733.571	19.69
733.596	2.69
733.621	-0.31
733.646	1.69
733.67	-3.31
733.695	3.69
733.72	14.69
733.744	13.69
733.769	9.69
733.794	-5.31
733.818	-1.31
733.843	8.69
733.867	1.69
733.892	0.69
733.917	-6.31
733.941	-0.31
733.966	-8.31
733.991	-2.31
734.015	21.69
734.04	7.69
734.065	7.69
734.089	23.69
734.114	3.69
734.138	17.69
734.163	5.69
734.188	9.69
734.212	19.69
734.237	11.69
734.261	12.69
734.286	-16.31
734.311	-10.31
734.335	0.69
734.36	10.69
734.384	8.69
734.409	1.69
734.434	0.69
734.458	12.69
734.483	7.69
734.507	3.69
734.532	6.69
734.556	0.69
734.581	-8.31
734.606	1.69
734.63	-2.31
734.655	-0.31
734.679	5.69
734.704	2.69
734.728	-2.31
734.753	0.69
734.777	0.69
734.802	5.69
734.826	20.69
734.851	8.69
734.876	20.69
734.9	4.69
734.925	4.69
734.949	16.69
734.974	4.69
734.998	19.69
735.023	-5.31
735.047	-9.31
735.072	8.69
735.096	6.69
735.121	-8.31
735.145	-0.31
735.17	8.69
735.194	4.69
735.219	7.69
735.243	13.69
735.268	3.69
735.292	-0.31
735.317	-3.31
735.341	7.69
735.365	-7.31
735.39	11.69
735.414	14.69
735.439	11.69
735.463	-2.31
735.488	-6.31
735.512	15.69
735.537	19.69
735.561	8.69
735.586	4.69
735.61	2.69
735.634	-6.31
735.659	6.69
735.683	29.69
735.708	10.69
735.732	6.69
735.757	7.69
735.781	13.69
735.805	1.69
735.83	-10.31
735.854	10.69
735.879	15.69
735.903	16.69
735.927	32.69
735.952	11.69
735.976	9.69
736.001	10.69
736.025	9.69
736.049	0.69
736.074	0.69
736.098	12.69
736.123	8.69
736.147	14.69
736.171	7.69
736.196	12.69
736.22	-6.31
736.244	-2.31
736.269	-2.31
736.293	-4.31
736.317	-1.31
736.342	5.69
736.366	17.69
736.39	2.69
736.415	9.69
736.439	12.69
736.463	7.69
736.488	14.69
736.512	8.69
736.536	-3.31
736.561	15.69
736.585	-9.31
736.609	-4.31
736.634	-8.31
736.658	-3.31
736.682	-1.31
736.707	-0.31
736.731	-12.31
736.755	5.69
736.78	22.69
736.804	16.69
736.828	2.69
736.852	8.69
736.877	3.69
736.901	4.69
736.925	-2.31
736.949	2.69
736.974	5.69
736.998	-11.31
737.022	6.69
737.047	-1.31
737.071	-5.31
737.095	3.69
737.119	23.69
737.144	19.69
737.168	10.69
737.192	2.69
737.216	3.69
737.241	5.69
737.265	13.69
737.289	1.69
737.313	-6.31
737.337	1.69
737.362	12.69
737.386	-1.31
737.41	-9.31
737.434	20.69
737.459	6.69
737.483	13.69
737.507	13.69
737.531	6.69
737.555	10.69
737.58	13.69
737.604	-5.31
737.628	-8.31
737.652	3.69
737.676	3.69
737.701	13.69
737.725	5.69
737.749	15.69
737.773	0.69
737.797	8.69
737.821	3.69
737.846	6.69
737.87	23.69
737.894	14.69
737.918	4.69
737.942	7.69
737.966	16.69
737.99	-0.31
738.015	13.69
738.039	3.69
738.063	4.69
738.087	11.69
738.111	3.69
738.135	10.69
738.159	3.69
738.184	-1.31
738.208	10.69
738.232	10.69
738.256	20.69
738.28	32.69
738.304	23.69
738.328	-6.31
738.352	0.69
738.376	-9.31
738.4	0.69
738.425	22.69
738.449	-9.31
738.473	15.69
738.497	-10.31
738.521	18.69
738.545	7.69
738.569	20.69
738.593	17.69
738.617	7.69
738.641	0.69
738.665	10.69
738.689	17.69
738.713	9.69
738.737	13.69
738.762	21.69
738.786	18.69
738.81	-2.31
738.834	2.69
738.858	-4.31
738.882	21.69
738.906	8.69
738.93	8.69
738.954	16.69
738.978	6.69
739.002	1.69
739.026	32.69
739.05	7.69
739.074	-4.31
739.098	26.69
739.122	18.69
739.146	1.69
739.17	7.69
739.194	21.69
739.218	10.69
739.242	-3.31
739.266	-2.31
739.29	-1.31
739.314	15.69
739.338	10.69
739.362	2.69
739.386	6.69
739.41	9.69
739.434	-10.31
739.458	10.69
739.482	11.69
739.506	7.69
739.53	7.69
739.554	11.69
739.577	-7.31
739.601	28.69
739.625	3.69
739.649	17.69
739.673	11.69
739.697	28.69
739.721	18.69
739.745	11.69
739.769	10.69
739.793	13.69
739.817	12.69
739.841	2.69
739.865	0.69
739.889	-5.31
739.912	5.69
739.936	-5.31
739.96	-0.31
739.984	15.69
740.008	12.69
740.032	-5.31
740.056	3.69
740.08	7.69
740.104	12.69
740.127	16.69
740.151	1.69
740.175	13.69
740.199	7.69
740.223	41.69
740.247	8.69
740.271	15.69
740.295	-7.31
740.318	-11.31
740.342	24.69
740.366	-0.31
740.39	21.69
740.414	-1.31
740.438	-6.31
740.461	15.69
740.485	0.69
740.509	9.69
740.533	4.69
740.557	-1.31
740.581	1.69
740.604	-6.31
740.628	-6.31
740.652	17.69
740.676	8.69
740.7	9.69
740.723	-8.31
740.747	-15.31
740.771	-2.31
740.795	-19.31
740.819	15.69
740.842	14.69
740.866	24.69
740.89	11.69
740.914	-3.31
740.938	0.69
740.961	-1.31
740.985	3.69
741.009	-9.31
741.033	16.69
741.056	14.69
741.08	7.69
741.104	0.69
741.128	11.69
741.151	36.69
741.175	12.69
741.199	-1.31
741.223	3.69
741.246	-10.31
741.27	4.69
741.294	6.69
741.318	3.69
741.341	5.69
741.365	3.69
741.389	9.69
741.413	6.69
741.436	5.69
741.46	0.69
741.484	4.69
741.507	20.69
741.531	15.69
741.555	-0.31
741.579	5.69
741.602	28.69
741.626	16.69
741.65	7.69
741.673	-0.31
741.697	4.69
741.721	4.69
741.744	-5.31
741.768	-14.31
741.792	19.69
741.815	7.69
741.839	12.69
741.863	16.69
741.886	15.69
741.91	6.69
741.934	-7.31
741.957	-6.31
741.981	3.69
742.005	-12.31
742.028	-19.31
742.052	-18.31
742.075	7.69
742.099	23.69
742.123	-1.31
742.146	-6.31
742.17	-6.31
742.194	-20.31
742.217	-5.31
742.241	3.69
742.264	-8.31
742.288	12.69
742.312	15.69
742.335	0.69
742.359	-0.31
742.382	4.69
742.406	11.69
742.43	1.69
742.453	11.69
742.477	16.69
742.5	4.69
742.524	5.69
742.548	0.69
742.571	4.69
742.595	-6.31
742.618	13.69
742.642	5.69
742.665	10.69
742.689	-6.31
742.712	1.69
742.736	9.69
742.76	1.69
742.783	4.69
742.807	-1.31
742.83	11.69
742.854	7.69
742.877	3.69
742.901	0.69
742.924	-2.31
742.948	-1.31
742.971	0.69
742.995	-6.31
743.018	-0.31
743.042	-10.31
743.065	-7.31
743.089	1.69
743.112	-6.31
743.136	0.69
743.159	-7.31
743.183	-7.31
743.206	-2.31
743.23	-8.31
743.253	9.69
743.277	13.69
743.3	-3.31
743.324	-1.31
743.347	2.69
743.371	13.69
743.394	-6.31
743.418	13.69
743.441	5.69
743.465	4.69
743.488	-2.31
743.512	-13.31
743.535	-11.31
743.558	12.69
743.582	1.69
743.605	4.69
743.629	11.69
743.652	6.69
743.676	1.69
743.699	13.69
743.723	9.69
743.746	6.69
743.769	11.69
743.793	3.69
743.816	-9.31
743.84	13.69
743.863	7.69
743.886	-6.31
743.91	10.69
743.933	6.69
743.957	6.69
743.98	22.69
744.003	19.69
744.027	9.69
744.05	-2.31
744.074	2.69
744.097	-12.31
744.12	-2.31
744.144	-3.31
744.167	1.69
744.19	3.69
744.214	6.69
744.237	-7.31
744.26	13.69
744.284	-7.31
744.307	-4.31
744.331	8.69
744.354	-1.31
744.377	-2.31
744.401	-16.31
744.424	-0.31
744.447	-15.31
744.471	-0.31
