Data from HighRes_H2D2_15_04_11_07_2024_HR4C61891__81__15-05-42-542.txt Node

Date: Thu Nov 07 15:05:42 EST 2024
User: crc00042
Spectrometer: HR4C6189
Trigger mode: 4
Integration Time (sec): 1.000000E-1
Scans to average: 1
Electric dark correction enabled: true
Nonlinearity correction enabled: false
Boxcar width: 0
XAxis mode: Wavelengths
Number of Pixels in Spectrum: 3648
>>>>>Begin Spectral Data<<<<<
639.567	-52.69
639.602	-52.69
639.636	-52.69
639.67	-39.69
639.704	-13.69
639.738	-13.69
639.773	-2.69
639.807	-17.69
639.841	2.31
639.875	8.31
639.909	5.31
639.943	-12.69
639.978	12.31
640.012	7.31
640.046	11.31
640.08	6.31
640.114	8.31
640.148	-14.69
640.182	-7.69
640.217	-10.69
640.251	14.31
640.285	15.31
640.319	3.31
640.353	11.31
640.387	9.31
640.421	16.31
640.455	-0.69
640.49	2.31
640.524	16.31
640.558	-0.69
640.592	4.31
640.626	8.31
640.66	8.31
640.694	-18.69
640.728	18.31
640.762	7.31
640.796	13.31
640.83	14.31
640.865	9.31
640.899	3.31
640.933	3.31
640.967	-7.69
641.001	8.31
641.035	16.31
641.069	13.31
641.103	-2.69
641.137	-16.69
641.171	-9.69
641.205	27.31
641.239	10.31
641.273	19.31
641.307	21.31
641.341	6.31
641.375	-3.69
641.409	-21.69
641.443	9.31
641.477	4.31
641.511	1.31
641.545	-6.69
641.579	6.31
641.614	22.31
641.648	12.31
641.682	-8.69
641.716	15.31
641.75	31.31
641.784	2.31
641.818	0.31
641.852	7.31
641.886	-5.69
641.919	22.31
641.953	10.31
641.987	-5.69
642.021	11.31
642.055	-4.69
642.089	14.31
642.123	-7.69
642.157	10.31
642.191	-0.69
642.225	20.31
642.259	5.31
642.293	8.31
642.327	13.31
642.361	-2.69
642.395	20.31
642.429	8.31
642.463	18.31
642.497	19.31
642.531	15.31
642.565	-6.69
642.599	-0.69
642.633	-10.69
642.666	12.31
642.7	8.31
642.734	25.31
642.768	-4.69
642.802	4.31
642.836	12.31
642.87	7.31
642.904	11.31
642.938	10.31
642.972	2.31
643.005	7.31
643.039	10.31
643.073	11.31
643.107	7.31
643.141	6.31
643.175	8.31
643.209	4.31
643.243	15.31
643.276	3.31
643.31	9.31
643.344	-3.69
643.378	-3.69
643.412	12.31
643.446	10.31
643.48	10.31
643.513	11.31
643.547	15.31
643.581	0.31
643.615	1.31
643.649	4.31
643.683	5.31
643.716	12.31
643.75	21.31
643.784	-6.69
643.818	10.31
643.852	14.31
643.886	1.31
643.919	19.31
643.953	-5.69
643.987	-9.69
644.021	10.31
644.055	12.31
644.088	6.31
644.122	-10.69
644.156	0.31
644.19	-3.69
644.224	10.31
644.257	14.31
644.291	32.31
644.325	13.31
644.359	6.31
644.392	34.31
644.426	12.31
644.46	8.31
644.494	13.31
644.527	2.31
644.561	0.31
644.595	-8.69
644.629	15.31
644.662	-3.69
644.696	15.31
644.73	10.31
644.764	3.31
644.797	-5.69
644.831	7.31
644.865	18.31
644.899	6.31
644.932	28.31
644.966	11.31
645	-3.69
645.033	-5.69
645.067	-1.69
645.101	21.31
645.135	7.31
645.168	7.31
645.202	-1.69
645.236	-6.69
645.269	14.31
645.303	1.31
645.337	-12.69
645.37	7.31
645.404	25.31
645.438	-7.69
645.471	-3.69
645.505	16.31
645.539	-0.69
645.572	-7.69
645.606	1.31
645.64	1.31
645.673	8.31
645.707	9.31
645.741	12.31
645.774	-3.69
645.808	5.31
645.842	-1.69
645.875	11.31
645.909	7.31
645.943	0.31
645.976	-2.69
646.01	-0.69
646.043	11.31
646.077	9.31
646.111	-3.69
646.144	-0.69
646.178	11.31
646.212	-9.69
646.245	-8.69
646.279	12.31
646.312	22.31
646.346	26.31
646.38	-2.69
646.413	12.31
646.447	7.31
646.48	7.31
646.514	13.31
646.547	7.31
646.581	8.31
646.615	-2.69
646.648	-4.69
646.682	3.31
646.715	5.31
646.749	8.31
646.782	3.31
646.816	4.31
646.85	23.31
646.883	5.31
646.917	16.31
646.95	8.31
646.984	7.31
647.017	4.31
647.051	6.31
647.084	9.31
647.118	-7.69
647.151	5.31
647.185	4.31
647.218	-7.69
647.252	8.31
647.285	-5.69
647.319	7.31
647.353	24.31
647.386	25.31
647.42	4.31
647.453	-3.69
647.487	5.31
647.52	-3.69
647.553	-1.69
647.587	16.31
647.62	2.31
647.654	15.31
647.687	21.31
647.721	17.31
647.754	7.31
647.788	10.31
647.821	0.31
647.855	5.31
647.888	5.31
647.922	8.31
647.955	16.31
647.989	16.31
648.022	13.31
648.055	14.31
648.089	17.31
648.122	23.31
648.156	5.31
648.189	14.31
648.223	25.31
648.256	20.31
648.29	7.31
648.323	-0.69
648.356	16.31
648.39	29.31
648.423	17.31
648.457	-3.69
648.49	6.31
648.523	32.31
648.557	0.31
648.59	6.31
648.624	10.31
648.657	19.31
648.69	9.31
648.724	19.31
648.757	36.31
648.791	6.31
648.824	11.31
648.857	19.31
648.891	3.31
648.924	2.31
648.957	15.31
648.991	-17.69
649.024	15.31
649.057	10.31
649.091	19.31
649.124	15.31
649.158	16.31
649.191	30.31
649.224	9.31
649.258	10.31
649.291	0.31
649.324	11.31
649.358	9.31
649.391	8.31
649.424	13.31
649.458	0.31
649.491	17.31
649.524	14.31
649.557	-1.69
649.591	-11.69
649.624	7.31
649.657	3.31
649.691	-1.69
649.724	13.31
649.757	9.31
649.791	-1.69
649.824	14.31
649.857	-1.69
649.89	-3.69
649.924	-20.69
649.957	4.31
649.99	-12.69
650.023	3.31
650.057	-0.69
650.09	15.31
650.123	9.31
650.157	3.31
650.19	23.31
650.223	12.31
650.256	-11.69
650.29	-5.69
650.323	10.31
650.356	15.31
650.389	-12.69
650.423	-8.69
650.456	16.31
650.489	3.31
650.522	6.31
650.555	4.31
650.589	13.31
650.622	3.31
650.655	33.31
650.688	19.31
650.721	12.31
650.755	-1.69
650.788	21.31
650.821	11.31
650.854	5.31
650.887	16.31
650.921	3.31
650.954	6.31
650.987	-23.69
651.02	-23.69
651.053	-2.69
651.087	-11.69
651.12	30.31
651.153	13.31
651.186	4.31
651.219	-12.69
651.252	3.31
651.286	11.31
651.319	3.31
651.352	13.31
651.385	17.31
651.418	-0.69
651.451	19.31
651.484	12.31
651.518	-13.69
651.551	17.31
651.584	-20.69
651.617	16.31
651.65	13.31
651.683	8.31
651.716	16.31
651.749	-8.69
651.783	12.31
651.816	10.31
651.849	28.31
651.882	0.31
651.915	7.31
651.948	9.31
651.981	3.31
652.014	-17.69
652.047	-12.69
652.08	-11.69
652.114	-6.69
652.147	-10.69
652.18	2.31
652.213	48.31
652.246	14.31
652.279	10.31
652.312	6.31
652.345	7.31
652.378	5.31
652.411	18.31
652.444	15.31
652.477	6.31
652.51	17.31
652.543	6.31
652.576	3.31
652.609	8.31
652.642	-4.69
652.675	16.31
652.709	21.31
652.742	19.31
652.775	-2.69
652.808	14.31
652.841	13.31
652.874	9.31
652.907	1.31
652.94	7.31
652.973	-3.69
653.006	-14.69
653.039	4.31
653.072	5.31
653.105	9.31
653.138	-2.69
653.171	10.31
653.204	4.31
653.237	4.31
653.27	12.31
653.303	11.31
653.336	14.31
653.368	-3.69
653.401	19.31
653.434	-3.69
653.467	17.31
653.5	-4.69
653.533	1.31
653.566	12.31
653.599	22.31
653.632	-8.69
653.665	-1.69
653.698	-1.69
653.731	1.31
653.764	9.31
653.797	17.31
653.83	8.31
653.863	8.31
653.896	13.31
653.929	6.31
653.961	11.31
653.994	10.31
654.027	-9.69
654.06	8.31
654.093	26.31
654.126	-2.69
654.159	-3.69
654.192	17.31
654.225	5.31
654.258	3.31
654.29	-1.69
654.323	6.31
654.356	11.31
654.389	-0.69
654.422	4.31
654.455	14.31
654.488	2.31
654.521	-0.69
654.553	-14.69
654.586	9.31
654.619	9.31
654.652	11.31
654.685	-0.69
654.718	8.31
654.751	9.31
654.783	-2.69
654.816	11.31
654.849	7.31
654.882	5.31
654.915	-10.69
654.948	15.31
654.98	10.31
655.013	13.31
655.046	-22.69
655.079	-20.69
655.112	2.31
655.144	4.31
655.177	1.31
655.21	22.31
655.243	13.31
655.276	5.31
655.308	3.31
655.341	-16.69
655.374	4.31
655.407	-10.69
655.44	16.31
655.472	21.31
655.505	4.31
655.538	17.31
655.571	21.31
655.603	14.31
655.636	14.31
655.669	18.31
655.702	8.31
655.734	-9.69
655.767	8.31
655.8	12.31
655.833	18.31
655.865	26.31
655.898	9.31
655.931	2.31
655.964	29.31
655.996	28.31
656.029	14.31
656.062	45.31
656.095	56.31
656.127	66.31
656.16	223.31
656.193	630.31
656.225	931.31
656.258	562.31
656.291	235.31
656.324	184.31
656.356	364.31
656.389	767.31
656.422	697.31
656.454	243.31
656.487	96.31
656.52	39.31
656.552	24.31
656.585	25.31
656.618	31.31
656.65	26.31
656.683	10.31
656.716	10.31
656.748	-3.69
656.781	-1.69
656.814	2.31
656.846	14.31
656.879	12.31
656.912	0.31
656.944	-7.69
656.977	-0.69
657.01	-3.69
657.042	11.31
657.075	6.31
657.108	-0.69
657.14	18.31
657.173	22.31
657.205	19.31
657.238	8.31
657.271	6.31
657.303	10.31
657.336	-5.69
657.369	-1.69
657.401	11.31
657.434	6.31
657.466	9.31
657.499	5.31
657.532	13.31
657.564	6.31
657.597	6.31
657.629	13.31
657.662	3.31
657.694	17.31
657.727	12.31
657.76	21.31
657.792	-14.69
657.825	-3.69
657.857	0.31
657.89	-4.69
657.922	15.31
657.955	0.31
657.987	-1.69
658.02	19.31
658.053	18.31
658.085	-13.69
658.118	16.31
658.15	25.31
658.183	33.31
658.215	-13.69
658.248	-4.69
658.28	-14.69
658.313	22.31
658.345	14.31
658.378	-3.69
658.41	-16.69
658.443	11.31
658.475	11.31
658.508	2.31
658.54	1.31
658.573	-5.69
658.605	5.31
658.638	-7.69
658.67	-6.69
658.703	2.31
658.735	-11.69
658.768	-11.69
658.8	-2.69
658.833	8.31
658.865	8.31
658.898	6.31
658.93	-5.69
658.963	3.31
658.995	0.31
659.028	5.31
659.06	-2.69
659.092	-6.69
659.125	-6.69
659.157	16.31
659.19	-6.69
659.222	-4.69
659.255	16.31
659.287	-0.69
659.32	9.31
659.352	-5.69
659.384	12.31
659.417	12.31
659.449	7.31
659.482	18.31
659.514	-6.69
659.546	-6.69
659.579	-14.69
659.611	10.31
659.644	-10.69
659.676	-10.69
659.708	-5.69
659.741	-12.69
659.773	8.31
659.806	-4.69
659.838	-1.69
659.87	-6.69
659.903	-2.69
659.935	-4.69
659.967	-3.69
660	9.31
660.032	0.31
660.065	14.31
660.097	0.31
660.129	-1.69
660.162	5.31
660.194	14.31
660.226	8.31
660.259	4.31
660.291	2.31
660.323	5.31
660.356	20.31
660.388	0.31
660.42	-11.69
660.453	-13.69
660.485	-7.69
660.517	20.31
660.55	9.31
660.582	16.31
660.614	-1.69
660.647	15.31
660.679	7.31
660.711	12.31
660.743	-5.69
660.776	5.31
660.808	-5.69
660.84	10.31
660.873	10.31
660.905	-2.69
660.937	11.31
660.969	8.31
661.002	13.31
661.034	11.31
661.066	2.31
661.099	10.31
661.131	14.31
661.163	2.31
661.195	12.31
661.228	10.31
661.26	-4.69
661.292	0.31
661.324	5.31
661.357	11.31
661.389	10.31
661.421	-3.69
661.453	0.31
661.485	-9.69
661.518	9.31
661.55	-12.69
661.582	-18.69
661.614	-4.69
661.647	14.31
661.679	6.31
661.711	1.31
661.743	-17.69
661.775	8.31
661.808	11.31
661.84	-18.69
661.872	9.31
661.904	8.31
661.936	12.31
661.969	8.31
662.001	7.31
662.033	4.31
662.065	-20.69
662.097	24.31
662.129	6.31
662.162	0.31
662.194	4.31
662.226	6.31
662.258	13.31
662.29	15.31
662.322	-8.69
662.355	-14.69
662.387	26.31
662.419	24.31
662.451	21.31
662.483	9.31
662.515	-12.69
662.547	-6.69
662.58	-10.69
662.612	5.31
662.644	-9.69
662.676	0.31
662.708	21.31
662.74	-12.69
662.772	5.31
662.804	-2.69
662.836	13.31
662.869	-10.69
662.901	12.31
662.933	-5.69
662.965	12.31
662.997	15.31
663.029	-7.69
663.061	5.31
663.093	5.31
663.125	9.31
663.157	16.31
663.189	0.31
663.221	-0.69
663.254	6.31
663.286	20.31
663.318	1.31
663.35	5.31
663.382	2.31
663.414	13.31
663.446	13.31
663.478	-4.69
663.51	19.31
663.542	5.31
663.574	-21.69
663.606	5.31
663.638	-4.69
663.67	-10.69
663.702	9.31
663.734	7.31
663.766	5.31
663.798	15.31
663.83	8.31
663.862	13.31
663.894	5.31
663.926	4.31
663.958	33.31
663.99	1.31
664.022	-15.69
664.054	6.31
664.086	-11.69
664.118	-8.69
664.15	12.31
664.182	2.31
664.214	-1.69
664.246	16.31
664.278	3.31
664.31	8.31
664.342	-3.69
664.374	3.31
664.406	-2.69
664.438	10.31
664.47	15.31
664.502	2.31
664.534	-5.69
664.566	-8.69
664.598	12.31
664.63	-2.69
664.662	8.31
664.693	-3.69
664.725	0.31
664.757	14.31
664.789	-7.69
664.821	12.31
664.853	21.31
664.885	8.31
664.917	-12.69
664.949	4.31
664.981	20.31
665.013	-0.69
665.045	-4.69
665.076	10.31
665.108	10.31
665.14	5.31
665.172	3.31
665.204	7.31
665.236	8.31
665.268	22.31
665.3	4.31
665.331	-10.69
665.363	4.31
665.395	-10.69
665.427	1.31
665.459	12.31
665.491	4.31
665.523	8.31
665.555	9.31
665.586	-0.69
665.618	-13.69
665.65	-17.69
665.682	-1.69
665.714	26.31
665.746	-7.69
665.777	-4.69
665.809	3.31
665.841	5.31
665.873	13.31
665.905	16.31
665.937	12.31
665.968	20.31
666	16.31
666.032	21.31
666.064	12.31
666.096	-3.69
666.127	8.31
666.159	33.31
666.191	8.31
666.223	7.31
666.255	-1.69
666.286	1.31
666.318	-1.69
666.35	23.31
666.382	0.31
666.413	8.31
666.445	-14.69
666.477	-1.69
666.509	0.31
666.54	6.31
666.572	4.31
666.604	9.31
666.636	13.31
666.667	26.31
666.699	15.31
666.731	4.31
666.763	-8.69
666.794	5.31
666.826	15.31
666.858	-2.69
666.89	14.31
666.921	6.31
666.953	2.31
666.985	5.31
667.017	31.31
667.048	34.31
667.08	11.31
667.112	6.31
667.143	-6.69
667.175	3.31
667.207	9.31
667.238	21.31
667.27	-6.69
667.302	18.31
667.334	7.31
667.365	24.31
667.397	20.31
667.429	-12.69
667.46	6.31
667.492	-0.69
667.524	12.31
667.555	-14.69
667.587	-3.69
667.619	-6.69
667.65	-7.69
667.682	13.31
667.714	11.31
667.745	15.31
667.777	5.31
667.808	20.31
667.84	22.31
667.872	5.31
667.903	26.31
667.935	-11.69
667.967	12.31
667.998	21.31
668.03	-4.69
668.061	9.31
668.093	10.31
668.125	24.31
668.156	14.31
668.188	24.31
668.22	-0.69
668.251	3.31
668.283	14.31
668.314	11.31
668.346	8.31
668.377	-5.69
668.409	8.31
668.441	4.31
668.472	1.31
668.504	3.31
668.535	9.31
668.567	21.31
668.599	5.31
668.63	12.31
668.662	12.31
668.693	2.31
668.725	5.31
668.756	16.31
668.788	1.31
668.819	-1.69
668.851	8.31
668.882	8.31
668.914	0.31
668.946	-4.69
668.977	6.31
669.009	-3.69
669.04	-19.69
669.072	5.31
669.103	4.31
669.135	5.31
669.166	8.31
669.198	8.31
669.229	-5.69
669.261	0.31
669.292	4.31
669.324	6.31
669.355	30.31
669.387	5.31
669.418	16.31
669.45	-3.69
669.481	-12.69
669.513	12.31
669.544	2.31
669.576	6.31
669.607	12.31
669.639	20.31
669.67	-4.69
669.701	8.31
669.733	4.31
669.764	9.31
669.796	2.31
669.827	-3.69
669.859	6.31
669.89	9.31
669.922	12.31
669.953	27.31
669.985	11.31
670.016	12.31
670.047	11.31
670.079	-2.69
670.11	-11.69
670.142	-9.69
670.173	-1.69
670.204	4.31
670.236	5.31
670.267	0.31
670.299	12.31
670.33	-7.69
670.362	8.31
670.393	-0.69
670.424	9.31
670.456	-11.69
670.487	5.31
670.518	-0.69
670.55	1.31
670.581	-0.69
670.613	6.31
670.644	0.31
670.675	0.31
670.707	7.31
670.738	13.31
670.769	-2.69
670.801	0.31
670.832	9.31
670.864	-5.69
670.895	14.31
670.926	3.31
670.958	-6.69
670.989	-7.69
671.02	-5.69
671.052	8.31
671.083	12.31
671.114	2.31
671.146	15.31
671.177	16.31
671.208	0.31
671.24	-0.69
671.271	4.31
671.302	7.31
671.333	-6.69
671.365	1.31
671.396	14.31
671.427	10.31
671.459	0.31
671.49	7.31
671.521	28.31
671.553	28.31
671.584	7.31
671.615	1.31
671.646	17.31
671.678	12.31
671.709	-10.69
671.74	-19.69
671.771	0.31
671.803	-8.69
671.834	-3.69
671.865	-6.69
671.896	10.31
671.928	-10.69
671.959	6.31
671.99	-0.69
672.021	-1.69
672.053	1.31
672.084	12.31
672.115	9.31
672.146	5.31
672.178	-5.69
672.209	-0.69
672.24	-4.69
672.271	47.31
672.303	3.31
672.334	4.31
672.365	-0.69
672.396	1.31
672.427	19.31
672.459	14.31
672.49	9.31
672.521	25.31
672.552	22.31
672.583	18.31
672.615	3.31
672.646	13.31
672.677	9.31
672.708	1.31
672.739	9.31
672.77	29.31
672.802	11.31
672.833	4.31
672.864	2.31
672.895	15.31
672.926	0.31
672.957	-18.69
672.989	8.31
673.02	5.31
673.051	3.31
673.082	20.31
673.113	7.31
673.144	22.31
673.175	10.31
673.206	6.31
673.238	-6.69
673.269	4.31
673.3	-11.69
673.331	7.31
673.362	2.31
673.393	19.31
673.424	18.31
673.455	15.31
673.487	14.31
673.518	2.31
673.549	6.31
673.58	7.31
673.611	11.31
673.642	18.31
673.673	-8.69
673.704	16.31
673.735	11.31
673.766	5.31
673.797	2.31
673.828	7.31
673.86	6.31
673.891	-3.69
673.922	-2.69
673.953	3.31
673.984	8.31
674.015	28.31
674.046	5.31
674.077	21.31
674.108	2.31
674.139	0.31
674.17	8.31
674.201	0.31
674.232	0.31
674.263	0.31
674.294	-8.69
674.325	-0.69
674.356	5.31
674.387	14.31
674.418	11.31
674.449	-0.69
674.48	-16.69
674.511	10.31
674.542	10.31
674.573	1.31
674.604	11.31
674.635	-10.69
674.666	12.31
674.697	8.31
674.728	-11.69
674.759	10.31
674.79	-3.69
674.821	12.31
674.852	-2.69
674.883	4.31
674.914	-13.69
674.945	-4.69
674.976	25.31
675.007	5.31
675.038	10.31
675.069	-9.69
675.1	5.31
675.131	10.31
675.162	-3.69
675.193	-2.69
675.224	-2.69
675.254	4.31
675.285	9.31
675.316	19.31
675.347	13.31
675.378	3.31
675.409	-16.69
675.44	0.31
675.471	3.31
675.502	-4.69
675.533	5.31
675.564	-3.69
675.595	-5.69
675.625	25.31
675.656	11.31
675.687	19.31
675.718	-4.69
675.749	8.31
675.78	-1.69
675.811	3.31
675.842	4.31
675.873	-7.69
675.903	-9.69
675.934	0.31
675.965	6.31
675.996	3.31
676.027	26.31
676.058	0.31
676.089	-5.69
676.119	1.31
676.15	-2.69
676.181	-1.69
676.212	10.31
676.243	14.31
676.274	8.31
676.304	13.31
676.335	-1.69
676.366	-3.69
676.397	3.31
676.428	8.31
676.459	10.31
676.489	9.31
676.52	13.31
676.551	21.31
676.582	-7.69
676.613	-3.69
676.643	-5.69
676.674	4.31
676.705	2.31
676.736	13.31
676.767	17.31
676.797	8.31
676.828	1.31
676.859	11.31
676.89	-8.69
676.92	5.31
676.951	4.31
676.982	7.31
677.013	0.31
677.044	24.31
677.074	8.31
677.105	-13.69
677.136	12.31
677.167	12.31
677.197	17.31
677.228	-0.69
677.259	-11.69
677.289	8.31
677.32	-1.69
677.351	-4.69
677.382	-17.69
677.412	-6.69
677.443	12.31
677.474	8.31
677.505	-19.69
677.535	0.31
677.566	-14.69
677.597	-4.69
677.627	1.31
677.658	-10.69
677.689	-15.69
677.72	-17.69
677.75	4.31
677.781	5.31
677.812	3.31
677.842	19.31
677.873	7.31
677.904	19.31
677.934	2.31
677.965	-3.69
677.996	-10.69
678.026	-5.69
678.057	-0.69
678.088	-9.69
678.118	2.31
678.149	-4.69
678.18	-2.69
678.21	2.31
678.241	6.31
678.272	0.31
678.302	7.31
678.333	17.31
678.363	10.31
678.394	9.31
678.425	4.31
678.455	1.31
678.486	27.31
678.517	2.31
678.547	6.31
678.578	1.31
678.608	-1.69
678.639	4.31
678.67	5.31
678.7	3.31
678.731	16.31
678.761	2.31
678.792	18.31
678.823	6.31
678.853	1.31
678.884	-10.69
678.914	15.31
678.945	11.31
678.975	10.31
679.006	2.31
679.037	-5.69
679.067	28.31
679.098	14.31
679.128	-7.69
679.159	-1.69
679.189	20.31
679.22	1.31
679.25	20.31
679.281	6.31
679.312	-1.69
679.342	11.31
679.373	28.31
679.403	10.31
679.434	4.31
679.464	2.31
679.495	-5.69
679.525	-1.69
679.556	16.31
679.586	13.31
679.617	1.31
679.647	4.31
679.678	8.31
679.708	7.31
679.739	-11.69
679.769	6.31
679.8	-2.69
679.83	6.31
679.861	12.31
679.891	8.31
679.922	-7.69
679.952	-13.69
679.983	-10.69
680.013	13.31
680.044	21.31
680.074	22.31
680.105	-2.69
680.135	2.31
680.165	1.31
680.196	10.31
680.226	12.31
680.257	18.31
680.287	4.31
680.318	11.31
680.348	-3.69
680.379	14.31
680.409	7.31
680.439	-4.69
680.47	-15.69
680.5	-16.69
680.531	18.31
680.561	16.31
680.592	12.31
680.622	13.31
680.652	-3.69
680.683	21.31
680.713	14.31
680.744	-2.69
680.774	-0.69
680.804	18.31
680.835	-3.69
680.865	-7.69
680.896	9.31
680.926	0.31
680.956	9.31
680.987	12.31
681.017	-3.69
681.047	12.31
681.078	-11.69
681.108	6.31
681.139	21.31
681.169	-7.69
681.199	-2.69
681.23	9.31
681.26	-1.69
681.29	-6.69
681.321	0.31
681.351	24.31
681.381	-4.69
681.412	-0.69
681.442	10.31
681.472	22.31
681.503	12.31
681.533	9.31
681.563	3.31
681.594	7.31
681.624	14.31
681.654	2.31
681.685	2.31
681.715	13.31
681.745	6.31
681.775	0.31
681.806	9.31
681.836	5.31
681.866	-1.69
681.897	8.31
681.927	3.31
681.957	-7.69
681.987	6.31
682.018	11.31
682.048	-1.69
682.078	16.31
682.109	17.31
682.139	22.31
682.169	-0.69
682.199	-2.69
682.23	-2.69
682.26	4.31
682.29	-0.69
682.32	8.31
682.351	6.31
682.381	-2.69
682.411	-7.69
682.441	-7.69
682.472	-6.69
682.502	4.31
682.532	-0.69
682.562	12.31
682.592	12.31
682.623	-0.69
682.653	9.31
682.683	-1.69
682.713	15.31
682.743	4.31
682.774	-7.69
682.804	15.31
682.834	-0.69
682.864	-4.69
682.894	7.31
682.925	22.31
682.955	21.31
682.985	-8.69
683.015	7.31
683.045	12.31
683.076	-2.69
683.106	13.31
683.136	4.31
683.166	-8.69
683.196	1.31
683.226	5.31
683.257	2.31
683.287	8.31
683.317	-1.69
683.347	5.31
683.377	14.31
683.407	14.31
683.437	9.31
683.468	7.31
683.498	6.31
683.528	-0.69
683.558	-7.69
683.588	-3.69
683.618	-11.69
683.648	6.31
683.678	15.31
683.708	13.31
683.739	6.31
683.769	17.31
683.799	4.31
683.829	8.31
683.859	-3.69
683.889	22.31
683.919	20.31
683.949	9.31
683.979	-6.69
684.009	20.31
684.039	-3.69
684.07	-11.69
684.1	17.31
684.13	2.31
684.16	16.31
684.19	4.31
684.22	5.31
684.25	12.31
684.28	-3.69
684.31	13.31
684.34	20.31
684.37	16.31
684.4	-0.69
684.43	-1.69
684.46	15.31
684.49	11.31
684.52	3.31
684.55	12.31
684.58	14.31
684.61	11.31
684.64	10.31
684.67	21.31
684.7	14.31
684.73	-3.69
684.76	5.31
684.79	24.31
684.82	-7.69
684.85	1.31
684.88	17.31
684.91	-1.69
684.94	-8.69
684.97	-0.69
685	11.31
685.03	2.31
685.06	-23.69
685.09	8.31
685.12	30.31
685.15	-7.69
685.18	13.31
685.21	8.31
685.24	36.31
685.27	18.31
685.3	22.31
685.33	16.31
685.36	-4.69
685.39	2.31
685.42	1.31
685.45	-2.69
685.48	2.31
685.51	-5.69
685.54	11.31
685.569	12.31
685.599	15.31
685.629	9.31
685.659	17.31
685.689	0.31
685.719	-6.69
685.749	5.31
685.779	3.31
685.809	9.31
685.839	8.31
685.869	21.31
685.898	15.31
685.928	11.31
685.958	11.31
685.988	14.31
686.018	-7.69
686.048	13.31
686.078	2.31
686.108	31.31
686.137	10.31
686.167	1.31
686.197	-11.69
686.227	-1.69
686.257	34.31
686.287	16.31
686.317	3.31
686.346	-0.69
686.376	7.31
686.406	0.31
686.436	15.31
686.466	6.31
686.496	24.31
686.525	13.31
686.555	9.31
686.585	24.31
686.615	33.31
686.645	24.31
686.675	4.31
686.704	19.31
686.734	18.31
686.764	-2.69
686.794	2.31
686.824	-2.69
686.853	16.31
686.883	24.31
686.913	17.31
686.943	21.31
686.973	0.31
687.002	0.31
687.032	7.31
687.062	-0.69
687.092	15.31
687.121	6.31
687.151	13.31
687.181	-0.69
687.211	2.31
687.24	10.31
687.27	5.31
687.3	0.31
687.33	5.31
687.359	-2.69
687.389	8.31
687.419	16.31
687.449	12.31
687.478	14.31
687.508	5.31
687.538	19.31
687.568	20.31
687.597	4.31
687.627	16.31
687.657	13.31
687.686	12.31
687.716	27.31
687.746	-2.69
687.776	12.31
687.805	28.31
687.835	16.31
687.865	30.31
687.894	20.31
687.924	11.31
687.954	14.31
687.983	4.31
688.013	15.31
688.043	6.31
688.072	7.31
688.102	15.31
688.132	17.31
688.161	4.31
688.191	12.31
688.221	17.31
688.25	-0.69
688.28	15.31
688.31	4.31
688.339	0.31
688.369	-2.69
688.399	-6.69
688.428	-3.69
688.458	-2.69
688.488	2.31
688.517	22.31
688.547	2.31
688.576	33.31
688.606	14.31
688.636	0.31
688.665	20.31
688.695	4.31
688.725	26.31
688.754	20.31
688.784	16.31
688.813	25.31
688.843	19.31
688.873	10.31
688.902	14.31
688.932	8.31
688.961	15.31
688.991	15.31
689.02	19.31
689.05	20.31
689.08	25.31
689.109	19.31
689.139	-13.69
689.168	10.31
689.198	15.31
689.227	2.31
689.257	11.31
689.287	12.31
689.316	-4.69
689.346	-11.69
689.375	-13.69
689.405	8.31
689.434	5.31
689.464	1.31
689.493	8.31
689.523	3.31
689.552	-7.69
689.582	-1.69
689.611	1.31
689.641	16.31
689.67	-4.69
689.7	6.31
689.73	29.31
689.759	26.31
689.789	21.31
689.818	7.31
689.848	1.31
689.877	32.31
689.906	-4.69
689.936	7.31
689.965	8.31
689.995	13.31
690.024	16.31
690.054	0.31
690.083	7.31
690.113	3.31
690.142	11.31
690.172	14.31
690.201	10.31
690.231	9.31
690.26	17.31
690.29	11.31
690.319	26.31
690.348	15.31
690.378	22.31
690.407	14.31
690.437	12.31
690.466	12.31
690.496	12.31
690.525	10.31
690.555	3.31
690.584	-14.69
690.613	4.31
690.643	13.31
690.672	11.31
690.702	29.31
690.731	19.31
690.76	-5.69
690.79	-12.69
690.819	-6.69
690.849	8.31
690.878	16.31
690.907	23.31
690.937	14.31
690.966	21.31
690.996	0.31
691.025	2.31
691.054	17.31
691.084	5.31
691.113	4.31
691.142	0.31
691.172	21.31
691.201	7.31
691.23	-1.69
691.26	36.31
691.289	14.31
691.319	21.31
691.348	5.31
691.377	9.31
691.407	9.31
691.436	9.31
691.465	12.31
691.495	-1.69
691.524	-5.69
691.553	-3.69
691.583	4.31
691.612	14.31
691.641	-1.69
691.67	13.31
691.7	25.31
691.729	-5.69
691.758	-0.69
691.788	7.31
691.817	-1.69
691.846	-1.69
691.876	17.31
691.905	15.31
691.934	6.31
691.963	16.31
691.993	3.31
692.022	-0.69
692.051	12.31
692.081	8.31
692.11	9.31
692.139	0.31
692.168	11.31
692.198	26.31
692.227	10.31
692.256	-2.69
692.285	-0.69
692.315	23.31
692.344	9.31
692.373	0.31
692.402	-13.69
692.432	8.31
692.461	5.31
692.49	3.31
692.519	-3.69
692.548	24.31
692.578	20.31
692.607	6.31
692.636	-9.69
692.665	5.31
692.694	13.31
692.724	7.31
692.753	2.31
692.782	19.31
692.811	14.31
692.84	14.31
692.87	-0.69
692.899	-2.69
692.928	2.31
692.957	16.31
692.986	6.31
693.016	16.31
693.045	7.31
693.074	3.31
693.103	5.31
693.132	6.31
693.161	25.31
693.191	5.31
693.22	10.31
693.249	15.31
693.278	-0.69
693.307	9.31
693.336	0.31
693.365	-2.69
693.395	8.31
693.424	-2.69
693.453	19.31
693.482	4.31
693.511	11.31
693.54	6.31
693.569	7.31
693.598	3.31
693.628	20.31
693.657	18.31
693.686	22.31
693.715	11.31
693.744	13.31
693.773	25.31
693.802	8.31
693.831	-13.69
693.86	22.31
693.889	3.31
693.919	12.31
693.948	16.31
693.977	14.31
694.006	0.31
694.035	5.31
694.064	2.31
694.093	-2.69
694.122	2.31
694.151	11.31
694.18	17.31
694.209	27.31
694.238	26.31
694.267	25.31
694.296	22.31
694.325	15.31
694.354	24.31
694.383	28.31
694.412	7.31
694.441	-1.69
694.471	2.31
694.5	-0.69
694.529	2.31
694.558	25.31
694.587	14.31
694.616	15.31
694.645	-4.69
694.674	14.31
694.703	16.31
694.732	10.31
694.761	21.31
694.79	26.31
694.819	1.31
694.848	5.31
694.877	8.31
694.906	28.31
694.935	16.31
694.963	33.31
694.992	17.31
695.021	12.31
695.05	11.31
695.079	12.31
695.108	-4.69
695.137	17.31
695.166	6.31
695.195	6.31
695.224	1.31
695.253	5.31
695.282	10.31
695.311	12.31
695.34	7.31
695.369	20.31
695.398	15.31
695.427	36.31
695.456	9.31
695.485	15.31
695.513	1.31
695.542	-4.69
695.571	-8.69
695.6	7.31
695.629	19.31
695.658	7.31
695.687	-3.69
695.716	17.31
695.745	26.31
695.774	5.31
695.802	3.31
695.831	10.31
695.86	26.31
695.889	4.31
695.918	-1.69
695.947	-0.69
695.976	-2.69
696.005	13.31
696.033	3.31
696.062	5.31
696.091	-9.69
696.12	4.31
696.149	34.31
696.178	15.31
696.207	18.31
696.235	-12.69
696.264	14.31
696.293	8.31
696.322	19.31
696.351	28.31
696.38	8.31
696.408	1.31
696.437	-9.69
696.466	6.31
696.495	15.31
696.524	10.31
696.553	4.31
696.581	-2.69
696.61	14.31
696.639	10.31
696.668	24.31
696.697	-5.69
696.725	-10.69
696.754	-0.69
696.783	-1.69
696.812	8.31
696.84	11.31
696.869	20.31
696.898	9.31
696.927	13.31
696.956	11.31
696.984	-2.69
697.013	9.31
697.042	8.31
697.071	15.31
697.099	17.31
697.128	4.31
697.157	-5.69
697.186	10.31
697.214	14.31
697.243	10.31
697.272	-5.69
697.301	19.31
697.329	22.31
697.358	24.31
697.387	14.31
697.415	9.31
697.444	8.31
697.473	10.31
697.502	8.31
697.53	22.31
697.559	12.31
697.588	9.31
697.616	-0.69
697.645	4.31
697.674	22.31
697.703	1.31
697.731	18.31
697.76	-5.69
697.789	12.31
697.817	0.31
697.846	26.31
697.875	13.31
697.903	15.31
697.932	11.31
697.961	-1.69
697.989	13.31
698.018	11.31
698.047	9.31
698.075	16.31
698.104	10.31
698.133	15.31
698.161	4.31
698.19	8.31
698.218	0.31
698.247	5.31
698.276	2.31
698.304	8.31
698.333	10.31
698.362	7.31
698.39	17.31
698.419	3.31
698.447	2.31
698.476	10.31
698.505	16.31
698.533	7.31
698.562	-0.69
698.591	-5.69
698.619	-5.69
698.648	10.31
698.676	10.31
698.705	0.31
698.733	-18.69
698.762	0.31
698.791	9.31
698.819	1.31
698.848	-3.69
698.876	10.31
698.905	6.31
698.933	-1.69
698.962	7.31
698.991	21.31
699.019	14.31
699.048	-1.69
699.076	7.31
699.105	-5.69
699.133	10.31
699.162	11.31
699.19	16.31
699.219	16.31
699.248	10.31
699.276	10.31
699.305	-7.69
699.333	8.31
699.362	0.31
699.39	26.31
699.419	16.31
699.447	23.31
699.476	8.31
699.504	9.31
699.533	12.31
699.561	-4.69
699.59	20.31
699.618	9.31
699.647	7.31
699.675	8.31
699.704	9.31
699.732	-14.69
699.761	-0.69
699.789	5.31
699.818	20.31
699.846	10.31
699.874	0.31
699.903	-1.69
699.931	3.31
699.96	18.31
699.988	2.31
700.017	6.31
700.045	3.31
700.074	1.31
700.102	7.31
700.13	-2.69
700.159	23.31
700.187	7.31
700.216	3.31
700.244	-13.69
700.273	8.31
700.301	-6.69
700.329	14.31
700.358	10.31
700.386	0.31
700.415	9.31
700.443	-1.69
700.472	6.31
700.5	-2.69
700.528	4.31
700.557	4.31
700.585	-9.69
700.614	1.31
700.642	17.31
700.67	20.31
700.699	22.31
700.727	7.31
700.755	-1.69
700.784	16.31
700.812	0.31
700.841	9.31
700.869	9.31
700.897	0.31
700.926	6.31
700.954	-1.69
700.982	5.31
701.011	-0.69
701.039	3.31
701.067	2.31
701.096	15.31
701.124	12.31
701.152	1.31
701.181	-9.69
701.209	-17.69
701.237	0.31
701.266	-3.69
701.294	-8.69
701.322	3.31
701.351	9.31
701.379	6.31
701.407	10.31
701.435	-0.69
701.464	3.31
701.492	30.31
701.52	13.31
701.549	6.31
701.577	-0.69
701.605	-0.69
701.634	10.31
701.662	20.31
701.69	9.31
701.718	0.31
701.747	15.31
701.775	1.31
701.803	11.31
701.831	12.31
701.86	7.31
701.888	9.31
701.916	8.31
701.944	5.31
701.973	5.31
702.001	-23.69
702.029	-6.69
702.057	15.31
702.086	1.31
702.114	3.31
702.142	-7.69
702.17	-18.69
702.199	-4.69
702.227	4.31
702.255	3.31
702.283	12.31
702.311	9.31
702.34	8.31
702.368	3.31
702.396	2.31
702.424	-2.69
702.452	0.31
702.481	5.31
702.509	1.31
702.537	-6.69
702.565	6.31
702.593	-4.69
702.621	9.31
702.65	16.31
702.678	16.31
702.706	4.31
702.734	-0.69
702.762	19.31
702.79	17.31
702.819	12.31
702.847	-2.69
702.875	13.31
702.903	24.31
702.931	5.31
702.959	-2.69
702.988	-17.69
703.016	-5.69
703.044	0.31
703.072	8.31
703.1	-0.69
703.128	7.31
703.156	8.31
703.184	-4.69
703.212	4.31
703.241	-11.69
703.269	12.31
703.297	-1.69
703.325	16.31
703.353	7.31
703.381	-17.69
703.409	8.31
703.437	7.31
703.465	3.31
703.493	-3.69
703.522	-3.69
703.55	12.31
703.578	9.31
703.606	-4.69
703.634	0.31
703.662	4.31
703.69	9.31
703.718	13.31
703.746	17.31
703.774	6.31
703.802	18.31
703.83	6.31
703.858	5.31
703.886	-3.69
703.914	-2.69
703.942	23.31
703.97	3.31
703.998	0.31
704.027	18.31
704.055	7.31
704.083	-5.69
704.111	3.31
704.139	12.31
704.167	-5.69
704.195	18.31
704.223	-0.69
704.251	-5.69
704.279	7.31
704.307	-5.69
704.335	7.31
704.363	7.31
704.391	-8.69
704.419	-8.69
704.447	-15.69
704.475	13.31
704.503	-8.69
704.531	6.31
704.558	17.31
704.586	23.31
704.614	-5.69
704.642	3.31
704.67	-14.69
704.698	4.31
704.726	16.31
704.754	4.31
704.782	-5.69
704.81	9.31
704.838	23.31
704.866	3.31
704.894	-2.69
704.922	-4.69
704.95	22.31
704.978	5.31
705.006	1.31
705.034	17.31
705.061	6.31
705.089	-5.69
705.117	-12.69
705.145	18.31
705.173	9.31
705.201	17.31
705.229	15.31
705.257	14.31
705.285	14.31
705.313	-7.69
705.34	3.31
705.368	2.31
705.396	8.31
705.424	2.31
705.452	2.31
705.48	6.31
705.508	-15.69
705.536	-0.69
705.563	-1.69
705.591	5.31
705.619	4.31
705.647	15.31
705.675	3.31
705.703	11.31
705.731	2.31
705.758	21.31
705.786	16.31
705.814	36.31
705.842	9.31
705.87	15.31
705.898	12.31
705.925	0.31
705.953	1.31
705.981	-5.69
706.009	-3.69
706.037	4.31
706.065	2.31
706.092	-1.69
706.12	2.31
706.148	-13.69
706.176	-12.69
706.204	16.31
706.231	8.31
706.259	-11.69
706.287	3.31
706.315	4.31
706.342	2.31
706.37	20.31
706.398	9.31
706.426	6.31
706.454	8.31
706.481	16.31
706.509	3.31
706.537	7.31
706.565	2.31
706.592	5.31
706.62	13.31
706.648	18.31
706.676	-16.69
706.703	18.31
706.731	5.31
706.759	9.31
706.787	4.31
706.814	10.31
706.842	3.31
706.87	18.31
706.897	4.31
706.925	5.31
706.953	15.31
706.981	33.31
707.008	18.31
707.036	5.31
707.064	0.31
707.091	8.31
707.119	25.31
707.147	-2.69
707.174	5.31
707.202	11.31
707.23	2.31
707.258	25.31
707.285	15.31
707.313	11.31
707.341	0.31
707.368	-8.69
707.396	9.31
707.424	14.31
707.451	9.31
707.479	1.31
707.507	4.31
707.534	2.31
707.562	-1.69
707.59	-2.69
707.617	-4.69
707.645	11.31
707.672	12.31
707.7	10.31
707.728	27.31
707.755	25.31
707.783	4.31
707.811	7.31
707.838	-5.69
707.866	9.31
707.893	1.31
707.921	5.31
707.949	4.31
707.976	2.31
708.004	16.31
708.031	-15.69
708.059	3.31
708.087	10.31
708.114	3.31
708.142	18.31
708.169	6.31
708.197	1.31
708.225	11.31
708.252	-4.69
708.28	9.31
708.307	13.31
708.335	1.31
708.362	-3.69
708.39	-2.69
708.418	-0.69
708.445	3.31
708.473	-11.69
708.5	5.31
708.528	25.31
708.555	5.31
708.583	8.31
708.61	4.31
708.638	11.31
708.665	-1.69
708.693	-4.69
708.72	-0.69
708.748	8.31
708.776	7.31
708.803	16.31
708.831	20.31
708.858	7.31
708.886	22.31
708.913	18.31
708.941	4.31
708.968	9.31
708.996	-0.69
709.023	24.31
709.051	7.31
709.078	1.31
709.105	18.31
709.133	4.31
709.16	0.31
709.188	6.31
709.215	9.31
709.243	7.31
709.27	-9.69
709.298	3.31
709.325	-12.69
709.353	13.31
709.38	8.31
709.408	5.31
709.435	7.31
709.462	0.31
709.49	1.31
709.517	-12.69
709.545	-0.69
709.572	0.31
709.6	5.31
709.627	3.31
709.655	0.31
709.682	0.31
709.709	11.31
709.737	-4.69
709.764	5.31
709.792	9.31
709.819	9.31
709.846	3.31
709.874	8.31
709.901	17.31
709.929	21.31
709.956	12.31
709.983	1.31
710.011	-1.69
710.038	5.31
710.066	5.31
710.093	-3.69
710.12	7.31
710.148	-3.69
710.175	5.31
710.202	-1.69
710.23	19.31
710.257	5.31
710.284	6.31
710.312	-0.69
710.339	-2.69
710.366	0.31
710.394	0.31
710.421	-3.69
710.448	8.31
710.476	-17.69
710.503	-3.69
710.53	12.31
710.558	15.31
710.585	17.31
710.612	2.31
710.64	-3.69
710.667	-1.69
710.694	7.31
710.722	5.31
710.749	-0.69
710.776	16.31
710.804	25.31
710.831	11.31
710.858	18.31
710.885	12.31
710.913	1.31
710.94	24.31
710.967	13.31
710.995	15.31
711.022	19.31
711.049	22.31
711.076	10.31
711.104	2.31
711.131	8.31
711.158	12.31
711.185	18.31
711.213	-15.69
711.24	2.31
711.267	-4.69
711.294	3.31
711.322	28.31
711.349	1.31
711.376	13.31
711.403	21.31
711.431	-4.69
711.458	17.31
711.485	14.31
711.512	7.31
711.54	7.31
711.567	19.31
711.594	3.31
711.621	-0.69
711.648	4.31
711.676	14.31
711.703	8.31
711.73	-12.69
711.757	5.31
711.784	19.31
711.812	8.31
711.839	1.31
711.866	-14.69
711.893	-21.69
711.92	11.31
711.947	28.31
711.975	18.31
712.002	4.31
712.029	29.31
712.056	17.31
712.083	10.31
712.11	0.31
712.138	1.31
712.165	2.31
712.192	15.31
712.219	-7.69
712.246	-7.69
712.273	7.31
712.3	2.31
712.328	3.31
712.355	16.31
712.382	3.31
712.409	3.31
712.436	-19.69
712.463	7.31
712.49	29.31
712.517	19.31
712.544	8.31
712.572	10.31
712.599	3.31
712.626	3.31
712.653	1.31
712.68	-3.69
712.707	11.31
712.734	22.31
712.761	-0.69
712.788	8.31
712.815	1.31
712.842	16.31
712.87	18.31
712.897	15.31
712.924	5.31
712.951	10.31
712.978	23.31
713.005	25.31
713.032	3.31
713.059	3.31
713.086	2.31
713.113	-5.69
713.14	10.31
713.167	9.31
713.194	17.31
713.221	1.31
713.248	15.31
713.275	4.31
713.302	11.31
713.329	4.31
713.356	12.31
713.383	0.31
713.41	17.31
713.437	-14.69
713.464	2.31
713.491	28.31
713.518	9.31
713.545	7.31
713.572	13.31
713.599	17.31
713.626	-0.69
713.653	7.31
713.68	-5.69
713.707	24.31
713.734	8.31
713.761	5.31
713.788	11.31
713.815	17.31
713.842	8.31
713.869	9.31
713.896	-4.69
713.923	9.31
713.95	9.31
713.977	10.31
714.004	5.31
714.031	-0.69
714.058	4.31
714.085	-1.69
714.112	14.31
714.139	5.31
714.165	-1.69
714.192	-11.69
714.219	8.31
714.246	11.31
714.273	21.31
714.3	-0.69
714.327	5.31
714.354	22.31
714.381	13.31
714.408	21.31
714.435	-3.69
714.461	-4.69
714.488	3.31
714.515	9.31
714.542	4.31
714.569	5.31
714.596	-5.69
714.623	6.31
714.65	-3.69
714.677	2.31
714.703	18.31
714.73	7.31
714.757	7.31
714.784	0.31
714.811	-7.69
714.838	-2.69
714.865	13.31
714.891	16.31
714.918	11.31
714.945	2.31
714.972	7.31
714.999	16.31
715.026	1.31
715.052	17.31
715.079	9.31
715.106	17.31
715.133	28.31
715.16	15.31
715.187	2.31
715.213	15.31
715.24	8.31
715.267	7.31
715.294	16.31
715.321	10.31
715.347	5.31
715.374	2.31
715.401	0.31
715.428	-2.69
715.455	5.31
715.481	15.31
715.508	7.31
715.535	12.31
715.562	30.31
715.588	-2.69
715.615	1.31
715.642	-3.69
715.669	0.31
715.695	14.31
715.722	6.31
715.749	7.31
715.776	32.31
715.802	16.31
715.829	13.31
715.856	0.31
715.883	14.31
715.909	6.31
715.936	8.31
715.963	13.31
715.99	-5.69
716.016	-9.69
716.043	4.31
716.07	3.31
716.096	9.31
716.123	-3.69
716.15	7.31
716.177	14.31
716.203	11.31
716.23	17.31
716.257	21.31
716.283	6.31
716.31	20.31
716.337	15.31
716.363	2.31
716.39	19.31
716.417	10.31
716.443	-3.69
716.47	8.31
716.497	15.31
716.523	9.31
716.55	-8.69
716.577	5.31
716.603	2.31
716.63	8.31
716.657	8.31
716.683	5.31
716.71	7.31
716.737	14.31
716.763	14.31
716.79	-1.69
716.817	16.31
716.843	10.31
716.87	-7.69
716.897	8.31
716.923	18.31
716.95	1.31
716.976	-0.69
717.003	2.31
717.03	5.31
717.056	4.31
717.083	9.31
717.109	-1.69
717.136	2.31
717.163	-1.69
717.189	14.31
717.216	12.31
717.242	-0.69
717.269	-1.69
717.296	4.31
717.322	27.31
717.349	16.31
717.375	7.31
717.402	4.31
717.428	-1.69
717.455	8.31
717.481	13.31
717.508	11.31
717.535	11.31
717.561	19.31
717.588	15.31
717.614	-5.69
717.641	2.31
717.667	4.31
717.694	7.31
717.72	-2.69
717.747	14.31
717.773	-3.69
717.8	21.31
717.826	8.31
717.853	10.31
717.88	14.31
717.906	29.31
717.933	-3.69
717.959	-1.69
717.986	-5.69
718.012	18.31
718.039	35.31
718.065	12.31
718.092	5.31
718.118	1.31
718.144	-0.69
718.171	27.31
718.197	30.31
718.224	4.31
718.25	12.31
718.277	21.31
718.303	22.31
718.33	12.31
718.356	5.31
718.383	5.31
718.409	1.31
718.436	4.31
718.462	8.31
718.489	-0.69
718.515	22.31
718.541	9.31
718.568	17.31
718.594	8.31
718.621	0.31
718.647	8.31
718.674	27.31
718.7	28.31
718.726	-3.69
718.753	1.31
718.779	12.31
718.806	-2.69
718.832	14.31
718.858	0.31
718.885	-2.69
718.911	10.31
718.938	11.31
718.964	6.31
718.99	13.31
719.017	12.31
719.043	10.31
719.07	24.31
719.096	4.31
719.122	1.31
719.149	3.31
719.175	7.31
719.201	9.31
719.228	10.31
719.254	9.31
719.281	11.31
719.307	2.31
719.333	0.31
719.36	34.31
719.386	5.31
719.412	10.31
719.439	0.31
719.465	11.31
719.491	4.31
719.518	24.31
719.544	11.31
719.57	15.31
719.597	9.31
719.623	-2.69
719.649	20.31
719.675	16.31
719.702	12.31
719.728	26.31
719.754	-2.69
719.781	5.31
719.807	-2.69
719.833	13.31
719.86	4.31
719.886	10.31
719.912	11.31
719.938	1.31
719.965	9.31
719.991	18.31
720.017	3.31
720.044	1.31
720.07	14.31
720.096	18.31
720.122	6.31
720.149	19.31
720.175	22.31
720.201	18.31
720.227	-1.69
720.254	-11.69
720.28	-3.69
720.306	-0.69
720.332	3.31
720.359	14.31
720.385	0.31
720.411	7.31
720.437	7.31
720.463	0.31
720.49	5.31
720.516	-4.69
720.542	-12.69
720.568	19.31
720.595	9.31
720.621	13.31
720.647	11.31
720.673	14.31
720.699	0.31
720.725	3.31
720.752	4.31
720.778	25.31
720.804	1.31
720.83	7.31
720.856	-5.69
720.883	-7.69
720.909	4.31
720.935	9.31
720.961	7.31
720.987	12.31
721.013	0.31
721.04	-9.69
721.066	-1.69
721.092	-7.69
721.118	15.31
721.144	2.31
721.17	2.31
721.196	3.31
721.223	1.31
721.249	-7.69
721.275	14.31
721.301	10.31
721.327	20.31
721.353	17.31
721.379	10.31
721.405	2.31
721.432	17.31
721.458	9.31
721.484	7.31
721.51	-0.69
721.536	4.31
721.562	8.31
721.588	13.31
721.614	1.31
721.64	16.31
721.666	9.31
721.693	15.31
721.719	14.31
721.745	3.31
721.771	-6.69
721.797	11.31
721.823	22.31
721.849	20.31
721.875	12.31
721.901	6.31
721.927	5.31
721.953	19.31
721.979	21.31
722.005	6.31
722.031	0.31
722.057	13.31
722.083	9.31
722.109	14.31
722.135	8.31
722.161	14.31
722.187	23.31
722.214	8.31
722.24	11.31
722.266	-0.69
722.292	27.31
722.318	6.31
722.344	6.31
722.37	6.31
722.396	15.31
722.422	0.31
722.448	14.31
722.474	14.31
722.5	8.31
722.526	12.31
722.552	11.31
722.578	0.31
722.603	-0.69
722.629	0.31
722.655	1.31
722.681	-8.69
722.707	4.31
722.733	3.31
722.759	0.31
722.785	-1.69
722.811	-2.69
722.837	5.31
722.863	18.31
722.889	11.31
722.915	3.31
722.941	3.31
722.967	12.31
722.993	1.31
723.019	2.31
723.045	22.31
723.071	2.31
723.097	4.31
723.122	7.31
723.148	4.31
723.174	2.31
723.2	16.31
723.226	7.31
723.252	10.31
723.278	9.31
723.304	7.31
723.33	0.31
723.356	-10.69
723.381	-6.69
723.407	-11.69
723.433	3.31
723.459	0.31
723.485	7.31
723.511	8.31
723.537	0.31
723.563	7.31
723.588	0.31
723.614	8.31
723.64	13.31
723.666	4.31
723.692	10.31
723.718	11.31
723.744	17.31
723.769	0.31
723.795	-5.69
723.821	9.31
723.847	20.31
723.873	3.31
723.899	19.31
723.924	16.31
723.95	-0.69
723.976	-4.69
724.002	10.31
724.028	3.31
724.053	4.31
724.079	3.31
724.105	8.31
724.131	13.31
724.157	15.31
724.182	27.31
724.208	9.31
724.234	2.31
724.26	12.31
724.286	1.31
724.311	10.31
724.337	-7.69
724.363	-2.69
724.389	12.31
724.415	-5.69
724.44	10.31
724.466	3.31
724.492	1.31
724.518	12.31
724.543	-5.69
724.569	4.31
724.595	16.31
724.621	-2.69
724.646	1.31
724.672	4.31
724.698	16.31
724.723	8.31
724.749	5.31
724.775	12.31
724.801	17.31
724.826	7.31
724.852	7.31
724.878	-0.69
724.904	5.31
724.929	3.31
724.955	-17.69
724.981	5.31
725.006	12.31
725.032	8.31
725.058	13.31
725.083	17.31
725.109	14.31
725.135	4.31
725.161	12.31
725.186	2.31
725.212	9.31
725.238	1.31
725.263	3.31
725.289	1.31
725.315	-8.69
725.34	-2.69
725.366	15.31
725.392	11.31
725.417	10.31
725.443	4.31
725.468	15.31
725.494	0.31
725.52	10.31
725.545	-6.69
725.571	2.31
725.597	-2.69
725.622	-6.69
725.648	6.31
725.674	-5.69
725.699	15.31
725.725	1.31
725.75	25.31
725.776	16.31
725.802	1.31
725.827	19.31
725.853	0.31
725.878	13.31
725.904	1.31
725.93	-5.69
725.955	-8.69
725.981	-1.69
726.006	-9.69
726.032	12.31
726.057	3.31
726.083	8.31
726.109	1.31
726.134	15.31
726.16	22.31
726.185	11.31
726.211	9.31
726.236	22.31
726.262	11.31
726.288	26.31
726.313	19.31
726.339	21.31
726.364	21.31
726.39	10.31
726.415	7.31
726.441	7.31
726.466	3.31
726.492	1.31
726.517	10.31
726.543	6.31
726.568	-4.69
726.594	-1.69
726.619	14.31
726.645	0.31
726.67	2.31
726.696	19.31
726.721	2.31
726.747	-3.69
726.772	11.31
726.798	13.31
726.823	7.31
726.849	-5.69
726.874	1.31
726.9	20.31
726.925	11.31
726.951	6.31
726.976	23.31
727.002	2.31
727.027	13.31
727.053	28.31
727.078	4.31
727.104	5.31
727.129	-14.69
727.155	-4.69
727.18	20.31
727.205	21.31
727.231	23.31
727.256	11.31
727.282	2.31
727.307	20.31
727.333	3.31
727.358	2.31
727.383	-4.69
727.409	1.31
727.434	3.31
727.46	-10.69
727.485	-8.69
727.511	13.31
727.536	-15.69
727.561	5.31
727.587	5.31
727.612	11.31
727.637	21.31
727.663	2.31
727.688	26.31
727.714	8.31
727.739	7.31
727.764	3.31
727.79	-7.69
727.815	7.31
727.841	4.31
727.866	1.31
727.891	15.31
727.917	-0.69
727.942	6.31
727.967	0.31
727.993	-1.69
728.018	14.31
728.043	13.31
728.069	11.31
728.094	17.31
728.119	0.31
728.145	13.31
728.17	15.31
728.195	9.31
728.221	19.31
728.246	6.31
728.271	6.31
728.297	13.31
728.322	-1.69
728.347	9.31
728.373	-2.69
728.398	16.31
728.423	7.31
728.448	1.31
728.474	11.31
728.499	25.31
728.524	8.31
728.55	-3.69
728.575	-15.69
728.6	5.31
728.625	2.31
728.651	7.31
728.676	2.31
728.701	7.31
728.727	6.31
728.752	2.31
728.777	5.31
728.802	2.31
728.828	4.31
728.853	9.31
728.878	14.31
728.903	-6.69
728.929	3.31
728.954	8.31
728.979	30.31
729.004	14.31
729.03	3.31
729.055	6.31
729.08	-14.69
729.105	26.31
729.13	16.31
729.156	13.31
729.181	2.31
729.206	-16.69
729.231	-12.69
729.256	9.31
729.282	21.31
729.307	-5.69
729.332	10.31
729.357	8.31
729.382	6.31
729.408	19.31
729.433	15.31
729.458	4.31
729.483	9.31
729.508	9.31
729.533	9.31
729.559	10.31
729.584	11.31
729.609	15.31
729.634	0.31
729.659	-10.69
729.684	5.31
729.71	23.31
729.735	-11.69
729.76	3.31
729.785	5.31
729.81	19.31
729.835	4.31
729.86	7.31
729.886	4.31
729.911	1.31
729.936	0.31
729.961	18.31
729.986	-7.69
730.011	1.31
730.036	15.31
730.061	19.31
730.086	13.31
730.112	15.31
730.137	24.31
730.162	15.31
730.187	-7.69
730.212	23.31
730.237	-5.69
730.262	11.31
730.287	9.31
730.312	21.31
730.337	5.31
730.362	11.31
730.387	2.31
730.413	3.31
730.438	-8.69
730.463	4.31
730.488	13.31
730.513	8.31
730.538	10.31
730.563	26.31
730.588	4.31
730.613	10.31
730.638	2.31
730.663	5.31
730.688	25.31
730.713	15.31
730.738	29.31
730.763	-2.69
730.788	7.31
730.813	28.31
730.838	9.31
730.863	-7.69
730.888	-1.69
730.913	-7.69
730.938	-8.69
730.963	4.31
730.988	15.31
731.013	8.31
731.038	3.31
731.063	5.31
731.088	18.31
731.113	8.31
731.138	7.31
731.163	16.31
731.188	-3.69
731.213	1.31
731.238	21.31
731.263	15.31
731.288	-1.69
731.313	11.31
731.338	17.31
731.363	3.31
731.388	4.31
731.413	-4.69
731.438	19.31
731.463	8.31
731.487	27.31
731.512	-2.69
731.537	-4.69
731.562	16.31
731.587	4.31
731.612	-4.69
731.637	7.31
731.662	10.31
731.687	7.31
731.712	1.31
731.737	20.31
731.762	8.31
731.786	9.31
731.811	8.31
731.836	7.31
731.861	3.31
731.886	9.31
731.911	25.31
731.936	30.31
731.961	18.31
731.986	10.31
732.01	3.31
732.035	15.31
732.06	9.31
732.085	16.31
732.11	16.31
732.135	8.31
732.16	17.31
732.184	-0.69
732.209	4.31
732.234	3.31
732.259	1.31
732.284	16.31
732.309	17.31
732.334	5.31
732.358	-0.69
732.383	-6.69
732.408	12.31
732.433	7.31
732.458	2.31
732.482	4.31
732.507	-0.69
732.532	2.31
732.557	7.31
732.582	-0.69
732.607	4.31
732.631	-2.69
732.656	-1.69
732.681	0.31
732.706	5.31
732.73	2.31
732.755	-2.69
732.78	-4.69
732.805	18.31
732.83	8.31
732.854	15.31
732.879	21.31
732.904	26.31
732.929	5.31
732.953	3.31
732.978	16.31
733.003	-2.69
733.028	3.31
733.052	4.31
733.077	15.31
733.102	4.31
733.127	6.31
733.151	3.31
733.176	20.31
733.201	2.31
733.226	-12.69
733.25	-6.69
733.275	-3.69
733.3	8.31
733.324	11.31
733.349	-6.69
733.374	13.31
733.399	8.31
733.423	27.31
733.448	18.31
733.473	-3.69
733.497	-1.69
733.522	4.31
733.547	27.31
733.571	26.31
733.596	5.31
733.621	8.31
733.646	-4.69
733.67	3.31
733.695	-4.69
733.72	23.31
733.744	16.31
733.769	17.31
733.794	14.31
733.818	-0.69
733.843	8.31
733.867	-16.69
733.892	-11.69
733.917	6.31
733.941	4.31
733.966	2.31
733.991	7.31
734.015	19.31
734.04	18.31
734.065	13.31
734.089	15.31
734.114	7.31
734.138	16.31
734.163	1.31
734.188	10.31
734.212	24.31
734.237	8.31
734.261	2.31
734.286	14.31
734.311	4.31
734.335	11.31
734.36	21.31
734.384	7.31
734.409	15.31
734.434	11.31
734.458	6.31
734.483	-5.69
734.507	1.31
734.532	18.31
734.556	13.31
734.581	4.31
734.606	-5.69
734.63	8.31
734.655	-3.69
734.679	15.31
734.704	-0.69
734.728	2.31
734.753	-0.69
734.777	6.31
734.802	4.31
734.826	8.31
734.851	7.31
734.876	5.31
734.9	3.31
734.925	28.31
734.949	11.31
734.974	17.31
734.998	18.31
735.023	0.31
735.047	6.31
735.072	13.31
735.096	-11.69
735.121	1.31
735.145	15.31
735.17	16.31
735.194	16.31
735.219	20.31
735.243	15.31
735.268	8.31
735.292	15.31
735.317	1.31
735.341	-0.69
735.365	-12.69
735.39	17.31
735.414	-1.69
735.439	3.31
735.463	16.31
735.488	10.31
735.512	7.31
735.537	7.31
735.561	4.31
735.586	15.31
735.61	12.31
735.634	7.31
735.659	8.31
735.683	25.31
735.708	7.31
735.732	-11.69
735.757	5.31
735.781	22.31
735.805	7.31
735.83	-5.69
735.854	8.31
735.879	17.31
735.903	13.31
735.927	11.31
735.952	-6.69
735.976	12.31
736.001	1.31
736.025	-7.69
736.049	4.31
736.074	17.31
736.098	8.31
736.123	7.31
736.147	-0.69
736.171	11.31
736.196	18.31
736.22	3.31
736.244	7.31
736.269	9.31
736.293	19.31
736.317	14.31
736.342	5.31
736.366	17.31
736.39	5.31
736.415	19.31
736.439	-1.69
736.463	16.31
736.488	15.31
736.512	18.31
736.536	9.31
736.561	25.31
736.585	-0.69
736.609	5.31
736.634	1.31
736.658	1.31
736.682	-3.69
736.707	2.31
736.731	-7.69
736.755	4.31
736.78	27.31
736.804	21.31
736.828	21.31
736.852	3.31
736.877	9.31
736.901	13.31
736.925	1.31
736.949	17.31
736.974	1.31
736.998	-18.69
737.022	24.31
737.047	9.31
737.071	-0.69
737.095	23.31
737.119	21.31
737.144	23.31
737.168	12.31
737.192	1.31
737.216	14.31
737.241	5.31
737.265	14.31
737.289	15.31
737.313	4.31
737.337	20.31
737.362	9.31
737.386	5.31
737.41	5.31
737.434	13.31
737.459	-2.69
737.483	16.31
737.507	24.31
737.531	24.31
737.555	22.31
737.58	7.31
737.604	13.31
737.628	-4.69
737.652	7.31
737.676	15.31
737.701	19.31
737.725	24.31
737.749	17.31
737.773	-11.69
737.797	0.31
737.821	-1.69
737.846	8.31
737.87	30.31
737.894	12.31
737.918	16.31
737.942	5.31
737.966	15.31
737.99	15.31
738.015	13.31
738.039	7.31
738.063	0.31
738.087	17.31
738.111	8.31
738.135	12.31
738.159	12.31
738.184	-1.69
738.208	11.31
738.232	4.31
738.256	17.31
738.28	21.31
738.304	15.31
738.328	7.31
738.352	17.31
738.376	3.31
738.4	-2.69
738.425	5.31
738.449	9.31
738.473	24.31
738.497	16.31
738.521	20.31
738.545	8.31
738.569	7.31
738.593	29.31
738.617	21.31
738.641	11.31
738.665	7.31
738.689	33.31
738.713	4.31
738.737	9.31
738.762	39.31
738.786	12.31
738.81	0.31
738.834	4.31
738.858	-10.69
738.882	-8.69
738.906	-7.69
738.93	5.31
738.954	20.31
738.978	12.31
739.002	9.31
739.026	12.31
739.05	14.31
739.074	-8.69
739.098	35.31
739.122	20.31
739.146	13.31
739.17	17.31
739.194	15.31
739.218	-4.69
739.242	16.31
739.266	-8.69
739.29	26.31
739.314	17.31
739.338	10.31
739.362	15.31
739.386	19.31
739.41	18.31
739.434	2.31
739.458	15.31
739.482	16.31
739.506	11.31
739.53	1.31
739.554	8.31
739.577	2.31
739.601	20.31
739.625	11.31
739.649	14.31
739.673	2.31
739.697	2.31
739.721	1.31
739.745	5.31
739.769	7.31
739.793	10.31
739.817	26.31
739.841	0.31
739.865	7.31
739.889	-8.69
739.912	19.31
739.936	-2.69
739.96	-1.69
739.984	0.31
740.008	0.31
740.032	10.31
740.056	9.31
740.08	1.31
740.104	9.31
740.127	9.31
740.151	20.31
740.175	11.31
740.199	12.31
740.223	40.31
740.247	9.31
740.271	11.31
740.295	21.31
740.318	7.31
740.342	10.31
740.366	17.31
740.39	7.31
740.414	9.31
740.438	7.31
740.461	13.31
740.485	22.31
740.509	-0.69
740.533	24.31
740.557	7.31
740.581	1.31
740.604	-10.69
740.628	-13.69
740.652	2.31
740.676	10.31
740.7	5.31
740.723	-7.69
740.747	-6.69
740.771	-0.69
740.795	-3.69
740.819	13.31
740.842	12.31
740.866	21.31
740.89	16.31
740.914	10.31
740.938	-7.69
740.961	15.31
740.985	12.31
741.009	14.31
741.033	22.31
741.056	8.31
741.08	11.31
741.104	10.31
741.128	0.31
741.151	19.31
741.175	12.31
741.199	19.31
741.223	18.31
741.246	-3.69
741.27	8.31
741.294	4.31
741.318	-3.69
741.341	5.31
741.365	14.31
741.389	16.31
741.413	6.31
741.436	17.31
741.46	0.31
741.484	17.31
741.507	10.31
741.531	22.31
741.555	24.31
741.579	19.31
741.602	1.31
741.626	19.31
741.65	10.31
741.673	-5.69
741.697	8.31
741.721	3.31
741.744	-10.69
741.768	0.31
741.792	2.31
741.815	7.31
741.839	12.31
741.863	12.31
741.886	17.31
741.91	21.31
741.934	10.31
741.957	0.31
741.981	20.31
742.005	12.31
742.028	-2.69
742.052	-14.69
742.075	11.31
742.099	11.31
742.123	3.31
742.146	-0.69
742.17	21.31
742.194	-6.69
742.217	1.31
742.241	16.31
742.264	5.31
742.288	24.31
742.312	4.31
742.335	-1.69
742.359	14.31
742.382	20.31
742.406	19.31
742.43	3.31
742.453	3.31
742.477	-1.69
742.5	2.31
742.524	3.31
742.548	-0.69
742.571	11.31
742.595	15.31
742.618	1.31
742.642	8.31
742.665	22.31
742.689	1.31
742.712	15.31
742.736	-4.69
742.76	-11.69
742.783	-0.69
742.807	9.31
742.83	0.31
742.854	0.31
742.877	4.31
742.901	2.31
742.924	2.31
742.948	9.31
742.971	8.31
742.995	1.31
743.018	-7.69
743.042	3.31
743.065	4.31
743.089	7.31
743.112	1.31
743.136	-2.69
743.159	-7.69
743.183	-11.69
743.206	4.31
743.23	8.31
743.253	5.31
743.277	17.31
743.3	3.31
743.324	0.31
743.347	-10.69
743.371	12.31
743.394	20.31
743.418	10.31
743.441	11.31
743.465	4.31
743.488	2.31
743.512	-1.69
743.535	6.31
743.558	-4.69
743.582	7.31
743.605	11.31
743.629	22.31
743.652	4.31
743.676	-2.69
743.699	22.31
743.723	16.31
743.746	4.31
743.769	13.31
743.793	12.31
743.816	12.31
743.84	12.31
743.863	3.31
743.886	23.31
743.91	24.31
743.933	22.31
743.957	10.31
743.98	-11.69
744.003	2.31
744.027	-2.69
744.05	5.31
744.074	29.31
744.097	13.31
744.12	20.31
744.144	4.31
744.167	10.31
744.19	4.31
744.214	10.31
744.237	-4.69
744.26	16.31
744.284	-0.69
744.307	-9.69
744.331	17.31
744.354	-3.69
744.377	0.31
744.401	10.31
744.424	2.31
744.447	-8.69
744.471	-3.69
