Data from HighRes_H2D2_15_04_11_07_2024_HR4C61891__51__15-05-39-543.txt Node

Date: Thu Nov 07 15:05:39 EST 2024
User: crc00042
Spectrometer: HR4C6189
Trigger mode: 4
Integration Time (sec): 1.000000E-1
Scans to average: 1
Electric dark correction enabled: true
Nonlinearity correction enabled: false
Boxcar width: 0
XAxis mode: Wavelengths
Number of Pixels in Spectrum: 3648
>>>>>Begin Spectral Data<<<<<
639.567	-74.31
639.602	-74.31
639.636	-74.31
639.67	-45.31
639.704	-6.31
639.738	-1.31
639.773	0.69
639.807	-13.31
639.841	14.69
639.875	21.69
639.909	3.69
639.943	-12.31
639.978	0.69
640.012	-4.31
640.046	-2.31
640.08	3.69
640.114	-3.31
640.148	-8.31
640.182	-25.31
640.217	-17.31
640.251	18.69
640.285	3.69
640.319	-7.31
640.353	-8.31
640.387	-0.31
640.421	7.69
640.455	1.69
640.49	-13.31
640.524	-0.31
640.558	-5.31
640.592	5.69
640.626	6.69
640.66	7.69
640.694	-9.31
640.728	6.69
640.762	4.69
640.796	21.69
640.83	18.69
640.865	-12.31
640.899	-9.31
640.933	7.69
640.967	16.69
641.001	22.69
641.035	6.69
641.069	-0.31
641.103	-17.31
641.137	8.69
641.171	7.69
641.205	6.69
641.239	10.69
641.273	9.69
641.307	11.69
641.341	-10.31
641.375	6.69
641.409	-5.31
641.443	-0.31
641.477	10.69
641.511	6.69
641.545	-6.31
641.579	14.69
641.614	24.69
641.648	12.69
641.682	-3.31
641.716	18.69
641.75	19.69
641.784	-8.31
641.818	-2.31
641.852	-2.31
641.886	1.69
641.919	26.69
641.953	9.69
641.987	-9.31
642.021	-18.31
642.055	22.69
642.089	-5.31
642.123	-2.31
642.157	-0.31
642.191	-2.31
642.225	2.69
642.259	-5.31
642.293	-14.31
642.327	-7.31
642.361	2.69
642.395	24.69
642.429	16.69
642.463	2.69
642.497	17.69
642.531	8.69
642.565	9.69
642.599	9.69
642.633	-16.31
642.666	5.69
642.7	6.69
642.734	11.69
642.768	-0.31
642.802	-8.31
642.836	1.69
642.87	-7.31
642.904	-1.31
642.938	-0.31
642.972	-7.31
643.005	-2.31
643.039	9.69
643.073	-8.31
643.107	3.69
643.141	-7.31
643.175	6.69
643.209	7.69
643.243	-2.31
643.276	5.69
643.31	3.69
643.344	7.69
643.378	-2.31
643.412	22.69
643.446	11.69
643.48	-3.31
643.513	8.69
643.547	27.69
643.581	4.69
643.615	6.69
643.649	3.69
643.683	4.69
643.716	1.69
643.75	4.69
643.784	-22.31
643.818	15.69
643.852	-1.31
643.886	2.69
643.919	11.69
643.953	-19.31
643.987	9.69
644.021	17.69
644.055	19.69
644.088	11.69
644.122	-1.31
644.156	-16.31
644.19	-7.31
644.224	-5.31
644.257	10.69
644.291	20.69
644.325	12.69
644.359	-9.31
644.392	28.69
644.426	19.69
644.46	24.69
644.494	20.69
644.527	-2.31
644.561	11.69
644.595	8.69
644.629	-6.31
644.662	-1.31
644.696	15.69
644.73	-2.31
644.764	1.69
644.797	-20.31
644.831	4.69
644.865	13.69
644.899	1.69
644.932	18.69
644.966	-0.31
645	8.69
645.033	21.69
645.067	-2.31
645.101	2.69
645.135	13.69
645.168	-7.31
645.202	-8.31
645.236	0.69
645.269	7.69
645.303	16.69
645.337	-17.31
645.37	-17.31
645.404	-9.31
645.438	-1.31
645.471	8.69
645.505	22.69
645.539	9.69
645.572	-17.31
645.606	-5.31
645.64	4.69
645.673	12.69
645.707	15.69
645.741	-8.31
645.774	-19.31
645.808	-0.31
645.842	-1.31
645.875	9.69
645.909	5.69
645.943	-1.31
645.976	18.69
646.01	20.69
646.043	6.69
646.077	16.69
646.111	6.69
646.144	3.69
646.178	12.69
646.212	-5.31
646.245	-11.31
646.279	2.69
646.312	14.69
646.346	14.69
646.38	5.69
646.413	13.69
646.447	-3.31
646.48	-10.31
646.514	22.69
646.547	6.69
646.581	-4.31
646.615	6.69
646.648	3.69
646.682	-3.31
646.715	9.69
646.749	16.69
646.782	4.69
646.816	0.69
646.85	2.69
646.883	-0.31
646.917	-5.31
646.95	12.69
646.984	11.69
647.017	-14.31
647.051	14.69
647.084	5.69
647.118	3.69
647.151	-1.31
647.185	9.69
647.218	-9.31
647.252	-3.31
647.285	-6.31
647.319	-20.31
647.353	-1.31
647.386	8.69
647.42	-2.31
647.453	4.69
647.487	-5.31
647.52	8.69
647.553	13.69
647.587	8.69
647.62	2.69
647.654	3.69
647.687	5.69
647.721	10.69
647.754	-0.31
647.788	8.69
647.821	-1.31
647.855	13.69
647.888	10.69
647.922	8.69
647.955	14.69
647.989	12.69
648.022	13.69
648.055	10.69
648.089	8.69
648.122	19.69
648.156	-5.31
648.189	6.69
648.223	14.69
648.256	25.69
648.29	2.69
648.323	0.69
648.356	14.69
648.39	3.69
648.423	12.69
648.457	0.69
648.49	2.69
648.523	1.69
648.557	-1.31
648.59	3.69
648.624	8.69
648.657	9.69
648.69	12.69
648.724	-0.31
648.757	6.69
648.791	-3.31
648.824	3.69
648.857	12.69
648.891	17.69
648.924	11.69
648.957	19.69
648.991	-0.31
649.024	14.69
649.057	-5.31
649.091	4.69
649.124	19.69
649.158	20.69
649.191	18.69
649.224	8.69
649.258	8.69
649.291	15.69
649.324	3.69
649.358	18.69
649.391	17.69
649.424	-0.31
649.458	13.69
649.491	3.69
649.524	-8.31
649.557	-1.31
649.591	-5.31
649.624	13.69
649.657	-3.31
649.691	4.69
649.724	9.69
649.757	0.69
649.791	3.69
649.824	10.69
649.857	6.69
649.89	7.69
649.924	-2.31
649.957	-1.31
649.99	-0.31
650.023	-16.31
650.057	-6.31
650.09	23.69
650.123	1.69
650.157	24.69
650.19	22.69
650.223	0.69
650.256	-5.31
650.29	-11.31
650.323	1.69
650.356	7.69
650.389	3.69
650.423	-4.31
650.456	6.69
650.489	-13.31
650.522	12.69
650.555	27.69
650.589	17.69
650.622	2.69
650.655	20.69
650.688	24.69
650.721	2.69
650.755	2.69
650.788	22.69
650.821	-6.31
650.854	9.69
650.887	11.69
650.921	1.69
650.954	8.69
650.987	3.69
651.02	-4.31
651.053	0.69
651.087	-14.31
651.12	26.69
651.153	10.69
651.186	9.69
651.219	-2.31
651.252	10.69
651.286	24.69
651.319	15.69
651.352	1.69
651.385	9.69
651.418	8.69
651.451	21.69
651.484	15.69
651.518	-18.31
651.551	17.69
651.584	1.69
651.617	17.69
651.65	11.69
651.683	14.69
651.716	4.69
651.749	-4.31
651.783	5.69
651.816	-0.31
651.849	10.69
651.882	3.69
651.915	-0.31
651.948	18.69
651.981	7.69
652.014	-6.31
652.047	-0.31
652.08	9.69
652.114	-0.31
652.147	-0.31
652.18	5.69
652.213	27.69
652.246	2.69
652.279	-8.31
652.312	2.69
652.345	0.69
652.378	4.69
652.411	20.69
652.444	11.69
652.477	-2.31
652.51	9.69
652.543	-26.31
652.576	7.69
652.609	6.69
652.642	11.69
652.675	29.69
652.709	11.69
652.742	8.69
652.775	10.69
652.808	24.69
652.841	7.69
652.874	-0.31
652.907	7.69
652.94	2.69
652.973	-2.31
653.006	-9.31
653.039	-8.31
653.072	2.69
653.105	-2.31
653.138	7.69
653.171	5.69
653.204	-1.31
653.237	0.69
653.27	1.69
653.303	6.69
653.336	12.69
653.368	-4.31
653.401	9.69
653.434	-8.31
653.467	3.69
653.5	-8.31
653.533	-20.31
653.566	-3.31
653.599	8.69
653.632	4.69
653.665	-4.31
653.698	-3.31
653.731	-11.31
653.764	8.69
653.797	1.69
653.83	-0.31
653.863	9.69
653.896	-2.31
653.929	-0.31
653.961	12.69
653.994	-4.31
654.027	-11.31
654.06	9.69
654.093	15.69
654.126	11.69
654.159	7.69
654.192	18.69
654.225	-1.31
654.258	-7.31
654.29	-5.31
654.323	1.69
654.356	5.69
654.389	18.69
654.422	13.69
654.455	3.69
654.488	11.69
654.521	-6.31
654.553	1.69
654.586	17.69
654.619	-5.31
654.652	20.69
654.685	-1.31
654.718	24.69
654.751	-1.31
654.783	-0.31
654.816	14.69
654.849	7.69
654.882	-9.31
654.915	-2.31
654.948	14.69
654.98	-28.31
655.013	-4.31
655.046	-3.31
655.079	-8.31
655.112	5.69
655.144	-10.31
655.177	-4.31
655.21	15.69
655.243	7.69
655.276	-1.31
655.308	7.69
655.341	3.69
655.374	-0.31
655.407	-1.31
655.44	11.69
655.472	18.69
655.505	19.69
655.538	1.69
655.571	6.69
655.603	-13.31
655.636	10.69
655.669	20.69
655.702	27.69
655.734	-17.31
655.767	1.69
655.8	20.69
655.833	8.69
655.865	17.69
655.898	8.69
655.931	9.69
655.964	12.69
655.996	21.69
656.029	44.69
656.062	25.69
656.095	45.69
656.127	83.69
656.16	209.69
656.193	617.69
656.225	945.69
656.258	539.69
656.291	212.69
656.324	179.69
656.356	356.69
656.389	773.69
656.422	668.69
656.454	246.69
656.487	76.69
656.52	50.69
656.552	17.69
656.585	13.69
656.618	38.69
656.65	18.69
656.683	13.69
656.716	12.69
656.748	8.69
656.781	-12.31
656.814	-9.31
656.846	20.69
656.879	1.69
656.912	-10.31
656.944	-18.31
656.977	-1.31
657.01	-1.31
657.042	-4.31
657.075	13.69
657.108	7.69
657.14	5.69
657.173	14.69
657.205	25.69
657.238	6.69
657.271	-9.31
657.303	-12.31
657.336	22.69
657.369	20.69
657.401	-0.31
657.434	-20.31
657.466	-2.31
657.499	2.69
657.532	0.69
657.564	0.69
657.597	4.69
657.629	11.69
657.662	13.69
657.694	7.69
657.727	0.69
657.76	17.69
657.792	-12.31
657.825	-14.31
657.857	9.69
657.89	-3.31
657.922	3.69
657.955	-12.31
657.987	10.69
658.02	19.69
658.053	14.69
658.085	2.69
658.118	28.69
658.15	5.69
658.183	15.69
658.215	4.69
658.248	-10.31
658.28	-1.31
658.313	24.69
658.345	16.69
658.378	4.69
658.41	7.69
658.443	18.69
658.475	5.69
658.508	-5.31
658.54	1.69
658.573	-0.31
658.605	-13.31
658.638	-1.31
658.67	0.69
658.703	11.69
658.735	-14.31
658.768	-1.31
658.8	-16.31
658.833	26.69
658.865	7.69
658.898	3.69
658.93	-18.31
658.963	-9.31
658.995	-4.31
659.028	17.69
659.06	-8.31
659.092	-17.31
659.125	2.69
659.157	8.69
659.19	-5.31
659.222	-1.31
659.255	1.69
659.287	14.69
659.32	-0.31
659.352	3.69
659.384	10.69
659.417	-20.31
659.449	12.69
659.482	0.69
659.514	0.69
659.546	6.69
659.579	3.69
659.611	4.69
659.644	-3.31
659.676	-5.31
659.708	-10.31
659.741	-5.31
659.773	11.69
659.806	10.69
659.838	8.69
659.87	2.69
659.903	-2.31
659.935	13.69
659.967	3.69
660	1.69
660.032	-24.31
660.065	16.69
660.097	3.69
660.129	3.69
660.162	-3.31
660.194	21.69
660.226	3.69
660.259	3.69
660.291	-5.31
660.323	6.69
660.356	5.69
660.388	-4.31
660.42	-3.31
660.453	24.69
660.485	22.69
660.517	-0.31
660.55	6.69
660.582	9.69
660.614	4.69
660.647	-0.31
660.679	-3.31
660.711	4.69
660.743	-1.31
660.776	-4.31
660.808	0.69
660.84	-12.31
660.873	5.69
660.905	-1.31
660.937	3.69
660.969	12.69
661.002	4.69
661.034	17.69
661.066	12.69
661.099	15.69
661.131	26.69
661.163	12.69
661.195	-11.31
661.228	10.69
661.26	6.69
661.292	-1.31
661.324	-8.31
661.357	-0.31
661.389	16.69
661.421	22.69
661.453	-2.31
661.485	3.69
661.518	-1.31
661.55	-5.31
661.582	-20.31
661.614	-3.31
661.647	12.69
661.679	11.69
661.711	10.69
661.743	-0.31
661.775	10.69
661.808	12.69
661.84	-4.31
661.872	-2.31
661.904	4.69
661.936	-2.31
661.969	1.69
662.001	-6.31
662.033	9.69
662.065	-13.31
662.097	9.69
662.129	0.69
662.162	-7.31
662.194	-3.31
662.226	-2.31
662.258	0.69
662.29	-5.31
662.322	-6.31
662.355	-1.31
662.387	10.69
662.419	7.69
662.451	6.69
662.483	15.69
662.515	-0.31
662.547	-9.31
662.58	-6.31
662.612	-15.31
662.644	-21.31
662.676	-8.31
662.708	14.69
662.74	7.69
662.772	3.69
662.804	-3.31
662.836	16.69
662.869	-1.31
662.901	3.69
662.933	3.69
662.965	32.69
662.997	10.69
663.029	-5.31
663.061	-0.31
663.093	4.69
663.125	30.69
663.157	15.69
663.189	14.69
663.221	13.69
663.254	2.69
663.286	-0.31
663.318	-4.31
663.35	-18.31
663.382	8.69
663.414	12.69
663.446	6.69
663.478	-6.31
663.51	7.69
663.542	-7.31
663.574	7.69
663.606	-7.31
663.638	-17.31
663.67	-10.31
663.702	2.69
663.734	-5.31
663.766	17.69
663.798	4.69
663.83	-2.31
663.862	7.69
663.894	14.69
663.926	13.69
663.958	19.69
663.99	-4.31
664.022	-12.31
664.054	9.69
664.086	-3.31
664.118	-8.31
664.15	-21.31
664.182	-2.31
664.214	-3.31
664.246	-2.31
664.278	-2.31
664.31	20.69
664.342	-5.31
664.374	3.69
664.406	2.69
664.438	7.69
664.47	17.69
664.502	-13.31
664.534	-3.31
664.566	-16.31
664.598	6.69
664.63	0.69
664.662	10.69
664.693	-4.31
664.725	1.69
664.757	-1.31
664.789	-25.31
664.821	12.69
664.853	9.69
664.885	6.69
664.917	2.69
664.949	23.69
664.981	28.69
665.013	1.69
665.045	-3.31
665.076	-1.31
665.108	-1.31
665.14	-13.31
665.172	16.69
665.204	-0.31
665.236	-0.31
665.268	6.69
665.3	10.69
665.331	-10.31
665.363	7.69
665.395	2.69
665.427	5.69
665.459	0.69
665.491	3.69
665.523	19.69
665.555	4.69
665.586	16.69
665.618	9.69
665.65	-24.31
665.682	12.69
665.714	-4.31
665.746	-1.31
665.777	14.69
665.809	-13.31
665.841	-2.31
665.873	-15.31
665.905	30.69
665.937	21.69
665.968	3.69
666	2.69
666.032	8.69
666.064	-5.31
666.096	-1.31
666.127	6.69
666.159	19.69
666.191	18.69
666.223	-10.31
666.255	1.69
666.286	8.69
666.318	-4.31
666.35	10.69
666.382	13.69
666.413	-4.31
666.445	-12.31
666.477	-12.31
666.509	-3.31
666.54	3.69
666.572	-1.31
666.604	-4.31
666.636	0.69
666.667	7.69
666.699	14.69
666.731	18.69
666.763	3.69
666.794	12.69
666.826	11.69
666.858	-15.31
666.89	10.69
666.921	-2.31
666.953	-2.31
666.985	-0.31
667.017	23.69
667.048	10.69
667.08	-4.31
667.112	5.69
667.143	-5.31
667.175	7.69
667.207	-9.31
667.238	-3.31
667.27	9.69
667.302	7.69
667.334	-8.31
667.365	12.69
667.397	9.69
667.429	4.69
667.46	-1.31
667.492	7.69
667.524	2.69
667.555	-7.31
667.587	-1.31
667.619	0.69
667.65	-2.31
667.682	10.69
667.714	29.69
667.745	12.69
667.777	12.69
667.808	16.69
667.84	-4.31
667.872	7.69
667.903	13.69
667.935	2.69
667.967	11.69
667.998	17.69
668.03	9.69
668.061	22.69
668.093	9.69
668.125	-5.31
668.156	15.69
668.188	10.69
668.22	-2.31
668.251	-8.31
668.283	5.69
668.314	9.69
668.346	8.69
668.377	9.69
668.409	-0.31
668.441	23.69
668.472	7.69
668.504	23.69
668.535	17.69
668.567	18.69
668.599	2.69
668.63	-3.31
668.662	-2.31
668.693	19.69
668.725	10.69
668.756	12.69
668.788	2.69
668.819	-4.31
668.851	8.69
668.882	7.69
668.914	-4.31
668.946	-5.31
668.977	-1.31
669.009	-17.31
669.04	-26.31
669.072	2.69
669.103	-12.31
669.135	14.69
669.166	11.69
669.198	12.69
669.229	7.69
669.261	5.69
669.292	-0.31
669.324	-16.31
669.355	-3.31
669.387	-18.31
669.418	11.69
669.45	-8.31
669.481	5.69
669.513	-8.31
669.544	3.69
669.576	-5.31
669.607	9.69
669.639	11.69
669.67	-12.31
669.701	17.69
669.733	-1.31
669.764	6.69
669.796	8.69
669.827	-4.31
669.859	-1.31
669.89	10.69
669.922	26.69
669.953	30.69
669.985	6.69
670.016	6.69
670.047	-0.31
670.079	14.69
670.11	-5.31
670.142	10.69
670.173	-2.31
670.204	-12.31
670.236	5.69
670.267	-7.31
670.299	-7.31
670.33	14.69
670.362	15.69
670.393	-13.31
670.424	-9.31
670.456	-21.31
670.487	7.69
670.518	-9.31
670.55	3.69
670.581	12.69
670.613	-3.31
670.644	-12.31
670.675	-9.31
670.707	6.69
670.738	-1.31
670.769	6.69
670.801	8.69
670.832	7.69
670.864	-9.31
670.895	-2.31
670.926	-0.31
670.958	6.69
670.989	21.69
671.02	-2.31
671.052	12.69
671.083	6.69
671.114	7.69
671.146	-0.31
671.177	-0.31
671.208	18.69
671.24	-5.31
671.271	-1.31
671.302	8.69
671.333	-11.31
671.365	-0.31
671.396	-5.31
671.427	7.69
671.459	2.69
671.49	10.69
671.521	1.69
671.553	6.69
671.584	-0.31
671.615	-1.31
671.646	8.69
671.678	14.69
671.709	-17.31
671.74	-19.31
671.771	5.69
671.803	-2.31
671.834	13.69
671.865	10.69
671.896	12.69
671.928	-14.31
671.959	-3.31
671.99	-6.31
672.021	10.69
672.053	3.69
672.084	16.69
672.115	7.69
672.146	-10.31
672.178	-7.31
672.209	-14.31
672.24	-2.31
672.271	20.69
672.303	-0.31
672.334	-2.31
672.365	-8.31
672.396	2.69
672.427	5.69
672.459	-2.31
672.49	29.69
672.521	5.69
672.552	1.69
672.583	-6.31
672.615	2.69
672.646	16.69
672.677	-3.31
672.708	-4.31
672.739	-8.31
672.77	17.69
672.802	-2.31
672.833	8.69
672.864	1.69
672.895	7.69
672.926	4.69
672.957	-5.31
672.989	3.69
673.02	3.69
673.051	5.69
673.082	17.69
673.113	2.69
673.144	-0.31
673.175	-6.31
673.206	-19.31
673.238	11.69
673.269	19.69
673.3	2.69
673.331	20.69
673.362	15.69
673.393	-5.31
673.424	-2.31
673.455	14.69
673.487	-4.31
673.518	5.69
673.549	-3.31
673.58	-19.31
673.611	-4.31
673.642	-5.31
673.673	-5.31
673.704	-4.31
673.735	-6.31
673.766	8.69
673.797	7.69
673.828	-13.31
673.86	7.69
673.891	-12.31
673.922	-6.31
673.953	14.69
673.984	11.69
674.015	9.69
674.046	0.69
674.077	5.69
674.108	-2.31
674.139	3.69
674.17	1.69
674.201	-14.31
674.232	0.69
674.263	-17.31
674.294	-16.31
674.325	-21.31
674.356	-10.31
674.387	13.69
674.418	8.69
674.449	-9.31
674.48	-5.31
674.511	7.69
674.542	12.69
674.573	-12.31
674.604	13.69
674.635	1.69
674.666	13.69
674.697	-5.31
674.728	-1.31
674.759	2.69
674.79	9.69
674.821	0.69
674.852	-0.31
674.883	-4.31
674.914	-3.31
674.945	-9.31
674.976	0.69
675.007	6.69
675.038	-4.31
675.069	-16.31
675.1	-10.31
675.131	10.69
675.162	-0.31
675.193	-2.31
675.224	-4.31
675.254	2.69
675.285	-1.31
675.316	5.69
675.347	8.69
675.378	-4.31
675.409	-0.31
675.44	12.69
675.471	8.69
675.502	-2.31
675.533	-1.31
675.564	4.69
675.595	6.69
675.625	11.69
675.656	10.69
675.687	13.69
675.718	-10.31
675.749	17.69
675.78	9.69
675.811	-11.31
675.842	9.69
675.873	-0.31
675.903	-6.31
675.934	4.69
675.965	-3.31
675.996	-14.31
676.027	9.69
676.058	9.69
676.089	-6.31
676.119	5.69
676.15	-4.31
676.181	-21.31
676.212	8.69
676.243	11.69
676.274	3.69
676.304	27.69
676.335	5.69
676.366	0.69
676.397	-8.31
676.428	1.69
676.459	18.69
676.489	13.69
676.52	9.69
676.551	8.69
676.582	2.69
676.613	13.69
676.643	-5.31
676.674	11.69
676.705	-5.31
676.736	15.69
676.767	23.69
676.797	9.69
676.828	-9.31
676.859	10.69
676.89	1.69
676.92	4.69
676.951	-0.31
676.982	6.69
677.013	-7.31
677.044	16.69
677.074	2.69
677.105	-7.31
677.136	8.69
677.167	0.69
677.197	9.69
677.228	9.69
677.259	-16.31
677.289	-7.31
677.32	-25.31
677.351	4.69
677.382	5.69
677.412	-15.31
677.443	-2.31
677.474	12.69
677.505	2.69
677.535	7.69
677.566	-4.31
677.597	-12.31
677.627	-10.31
677.658	-9.31
677.689	-17.31
677.72	-8.31
677.75	2.69
677.781	-2.31
677.812	10.69
677.842	11.69
677.873	9.69
677.904	10.69
677.934	5.69
677.965	-16.31
677.996	-3.31
678.026	-3.31
678.057	0.69
678.088	-12.31
678.118	2.69
678.149	2.69
678.18	-9.31
678.21	1.69
678.241	14.69
678.272	1.69
678.302	8.69
678.333	-5.31
678.363	7.69
678.394	-2.31
678.425	-1.31
678.455	8.69
678.486	3.69
678.517	13.69
678.547	1.69
678.578	1.69
678.608	-8.31
678.639	7.69
678.67	4.69
678.7	-8.31
678.731	2.69
678.761	-2.31
678.792	0.69
678.823	12.69
678.853	15.69
678.884	-10.31
678.914	21.69
678.945	6.69
678.975	1.69
679.006	8.69
679.037	-13.31
679.067	35.69
679.098	12.69
679.128	-4.31
679.159	3.69
679.189	15.69
679.22	-1.31
679.25	7.69
679.281	-9.31
679.312	6.69
679.342	11.69
679.373	14.69
679.403	1.69
679.434	15.69
679.464	-6.31
679.495	8.69
679.525	20.69
679.556	4.69
679.586	6.69
679.617	10.69
679.647	6.69
679.678	12.69
679.708	-0.31
679.739	-8.31
679.769	2.69
679.8	-4.31
679.83	-0.31
679.861	4.69
679.891	-21.31
679.922	-3.31
679.952	-1.31
679.983	2.69
680.013	7.69
680.044	-9.31
680.074	11.69
680.105	-7.31
680.135	-1.31
680.165	17.69
680.196	18.69
680.226	1.69
680.257	11.69
680.287	-1.31
680.318	-8.31
680.348	-26.31
680.379	-4.31
680.409	11.69
680.439	-3.31
680.47	11.69
680.5	-4.31
680.531	-5.31
680.561	14.69
680.592	12.69
680.622	17.69
680.652	10.69
680.683	10.69
680.713	0.69
680.744	-3.31
680.774	-8.31
680.804	8.69
680.835	1.69
680.865	4.69
680.896	9.69
680.926	14.69
680.956	4.69
680.987	-3.31
681.017	-5.31
681.047	-0.31
681.078	-22.31
681.108	-1.31
681.139	6.69
681.169	-0.31
681.199	3.69
681.23	10.69
681.26	5.69
681.29	11.69
681.321	-5.31
681.351	5.69
681.381	2.69
681.412	13.69
681.442	16.69
681.472	8.69
681.503	8.69
681.533	12.69
681.563	-1.31
681.594	-14.31
681.624	-2.31
681.654	-3.31
681.685	6.69
681.715	6.69
681.745	-11.31
681.775	9.69
681.806	-1.31
681.836	5.69
681.866	-8.31
681.897	10.69
681.927	-9.31
681.957	-15.31
681.987	0.69
682.018	-7.31
682.048	1.69
682.078	7.69
682.109	11.69
682.139	22.69
682.169	7.69
682.199	10.69
682.23	-4.31
682.26	10.69
682.29	-1.31
682.32	12.69
682.351	-8.31
682.381	8.69
682.411	-3.31
682.441	-7.31
682.472	7.69
682.502	2.69
682.532	-12.31
682.562	4.69
682.592	6.69
682.623	11.69
682.653	7.69
682.683	-14.31
682.713	3.69
682.743	-8.31
682.774	-0.31
682.804	-11.31
682.834	16.69
682.864	7.69
682.894	1.69
682.925	7.69
682.955	4.69
682.985	2.69
683.015	22.69
683.045	11.69
683.076	-12.31
683.106	-0.31
683.136	-6.31
683.166	-28.31
683.196	-13.31
683.226	-15.31
683.257	-12.31
683.287	2.69
683.317	-9.31
683.347	-0.31
683.377	5.69
683.407	6.69
683.437	9.69
683.468	2.69
683.498	-9.31
683.528	1.69
683.558	10.69
683.588	-14.31
683.618	-19.31
683.648	9.69
683.678	2.69
683.708	5.69
683.739	-0.31
683.769	-4.31
683.799	-0.31
683.829	4.69
683.859	1.69
683.889	9.69
683.919	-0.31
683.949	-1.31
683.979	-19.31
684.009	10.69
684.039	-0.31
684.07	-7.31
684.1	9.69
684.13	7.69
684.16	18.69
684.19	-3.31
684.22	-0.31
684.25	6.69
684.28	-6.31
684.31	28.69
684.34	19.69
684.37	15.69
684.4	9.69
684.43	14.69
684.46	12.69
684.49	11.69
684.52	19.69
684.55	15.69
684.58	8.69
684.61	6.69
684.64	15.69
684.67	28.69
684.7	3.69
684.73	14.69
684.76	3.69
684.79	22.69
684.82	3.69
684.85	-6.31
684.88	8.69
684.91	6.69
684.94	-0.31
684.97	-9.31
685	6.69
685.03	-13.31
685.06	-6.31
685.09	-13.31
685.12	10.69
685.15	-5.31
685.18	0.69
685.21	-2.31
685.24	9.69
685.27	18.69
685.3	5.69
685.33	1.69
685.36	0.69
685.39	-7.31
685.42	9.69
685.45	1.69
685.48	2.69
685.51	14.69
685.54	18.69
685.569	7.69
685.599	25.69
685.629	9.69
685.659	1.69
685.689	0.69
685.719	9.69
685.749	5.69
685.779	8.69
685.809	13.69
685.839	7.69
685.869	13.69
685.898	20.69
685.928	26.69
685.958	4.69
685.988	16.69
686.018	6.69
686.048	5.69
686.078	11.69
686.108	14.69
686.137	12.69
686.167	2.69
686.197	-18.31
686.227	-4.31
686.257	24.69
686.287	14.69
686.317	7.69
686.346	18.69
686.376	16.69
686.406	-6.31
686.436	27.69
686.466	-8.31
686.496	2.69
686.525	15.69
686.555	1.69
686.585	9.69
686.615	43.69
686.645	24.69
686.675	6.69
686.704	11.69
686.734	10.69
686.764	-3.31
686.794	8.69
686.824	2.69
686.853	7.69
686.883	16.69
686.913	10.69
686.943	-14.31
686.973	-5.31
687.002	7.69
687.032	11.69
687.062	6.69
687.092	21.69
687.121	11.69
687.151	19.69
687.181	15.69
687.211	13.69
687.24	-1.31
687.27	8.69
687.3	-19.31
687.33	7.69
687.359	-6.31
687.389	6.69
687.419	2.69
687.449	-3.31
687.478	5.69
687.508	8.69
687.538	12.69
687.568	-5.31
687.597	-12.31
687.627	4.69
687.657	2.69
687.686	-4.31
687.716	26.69
687.746	-6.31
687.776	-17.31
687.805	27.69
687.835	11.69
687.865	28.69
687.894	23.69
687.924	4.69
687.954	17.69
687.983	7.69
688.013	16.69
688.043	5.69
688.072	5.69
688.102	16.69
688.132	2.69
688.161	-3.31
688.191	1.69
688.221	22.69
688.25	-7.31
688.28	0.69
688.31	-6.31
688.339	1.69
688.369	4.69
688.399	-15.31
688.428	-20.31
688.458	-1.31
688.488	-10.31
688.517	10.69
688.547	5.69
688.576	29.69
688.606	12.69
688.636	-0.31
688.665	20.69
688.695	-0.31
688.725	29.69
688.754	25.69
688.784	4.69
688.813	2.69
688.843	7.69
688.873	-2.31
688.902	-3.31
688.932	16.69
688.961	-5.31
688.991	11.69
689.02	17.69
689.05	-5.31
689.08	16.69
689.109	10.69
689.139	10.69
689.168	6.69
689.198	10.69
689.227	8.69
689.257	22.69
689.287	19.69
689.316	10.69
689.346	0.69
689.375	-12.31
689.405	8.69
689.434	6.69
689.464	25.69
689.493	19.69
689.523	-8.31
689.552	-10.31
689.582	-1.31
689.611	-1.31
689.641	14.69
689.67	12.69
689.7	5.69
689.73	22.69
689.759	-2.31
689.789	11.69
689.818	6.69
689.848	9.69
689.877	26.69
689.906	-2.31
689.936	3.69
689.965	6.69
689.995	3.69
690.024	-1.31
690.054	-2.31
690.083	-5.31
690.113	8.69
690.142	0.69
690.172	11.69
690.201	8.69
690.231	0.69
690.26	6.69
690.29	2.69
690.319	9.69
690.348	5.69
690.378	-0.31
690.407	2.69
690.437	-11.31
690.466	9.69
690.496	2.69
690.525	8.69
690.555	1.69
690.584	4.69
690.613	0.69
690.643	8.69
690.672	6.69
690.702	21.69
690.731	10.69
690.76	8.69
690.79	0.69
690.819	3.69
690.849	5.69
690.878	9.69
690.907	22.69
690.937	26.69
690.966	24.69
690.996	4.69
691.025	-15.31
691.054	-0.31
691.084	0.69
691.113	7.69
691.142	22.69
691.172	25.69
691.201	13.69
691.23	-2.31
691.26	13.69
691.289	10.69
691.319	9.69
691.348	12.69
691.377	23.69
691.407	3.69
691.436	21.69
691.465	9.69
691.495	7.69
691.524	6.69
691.553	16.69
691.583	3.69
691.612	22.69
691.641	13.69
691.67	-1.31
691.7	5.69
691.729	-7.31
691.758	14.69
691.788	7.69
691.817	-1.31
691.846	-10.31
691.876	-2.31
691.905	11.69
691.934	2.69
691.963	16.69
691.993	-2.31
692.022	-7.31
692.051	-12.31
692.081	10.69
692.11	22.69
692.139	22.69
692.168	15.69
692.198	24.69
692.227	5.69
692.256	-1.31
692.285	-1.31
692.315	1.69
692.344	-2.31
692.373	1.69
692.402	-15.31
692.432	-8.31
692.461	11.69
692.49	12.69
692.519	8.69
692.548	10.69
692.578	15.69
692.607	2.69
692.636	1.69
692.665	10.69
692.694	8.69
692.724	0.69
692.753	13.69
692.782	15.69
692.811	-8.31
692.84	-1.31
692.87	10.69
692.899	1.69
692.928	4.69
692.957	12.69
692.986	-1.31
693.016	-6.31
693.045	15.69
693.074	15.69
693.103	0.69
693.132	-1.31
693.161	20.69
693.191	6.69
693.22	-7.31
693.249	18.69
693.278	10.69
693.307	14.69
693.336	-1.31
693.365	-4.31
693.395	6.69
693.424	17.69
693.453	15.69
693.482	-2.31
693.511	3.69
693.54	-2.31
693.569	17.69
693.598	20.69
693.628	13.69
693.657	9.69
693.686	33.69
693.715	28.69
693.744	13.69
693.773	32.69
693.802	15.69
693.831	-4.31
693.86	20.69
693.889	-5.31
693.919	-3.31
693.948	-2.31
693.977	7.69
694.006	-5.31
694.035	2.69
694.064	8.69
694.093	5.69
694.122	-0.31
694.151	7.69
694.18	0.69
694.209	36.69
694.238	16.69
694.267	16.69
694.296	19.69
694.325	0.69
694.354	11.69
694.383	21.69
694.412	-0.31
694.441	-0.31
694.471	-1.31
694.5	2.69
694.529	1.69
694.558	10.69
694.587	19.69
694.616	9.69
694.645	13.69
694.674	3.69
694.703	7.69
694.732	0.69
694.761	14.69
694.79	13.69
694.819	-9.31
694.848	17.69
694.877	20.69
694.906	25.69
694.935	12.69
694.963	22.69
694.992	7.69
695.021	9.69
695.05	10.69
695.079	6.69
695.108	8.69
695.137	14.69
695.166	2.69
695.195	2.69
695.224	21.69
695.253	29.69
695.282	4.69
695.311	4.69
695.34	7.69
695.369	16.69
695.398	15.69
695.427	32.69
695.456	14.69
695.485	17.69
695.513	7.69
695.542	6.69
695.571	1.69
695.6	39.69
695.629	10.69
695.658	17.69
695.687	20.69
695.716	7.69
695.745	18.69
695.774	-5.31
695.802	13.69
695.831	11.69
695.86	15.69
695.889	7.69
695.918	-1.31
695.947	2.69
695.976	-4.31
696.005	10.69
696.033	13.69
696.062	24.69
696.091	8.69
696.12	18.69
696.149	17.69
696.178	7.69
696.207	-6.31
696.235	-6.31
696.264	6.69
696.293	7.69
696.322	5.69
696.351	18.69
696.38	6.69
696.408	19.69
696.437	0.69
696.466	14.69
696.495	17.69
696.524	13.69
696.553	26.69
696.581	6.69
696.61	3.69
696.639	3.69
696.668	11.69
696.697	22.69
696.725	16.69
696.754	-2.31
696.783	8.69
696.812	3.69
696.84	19.69
696.869	26.69
696.898	-3.31
696.927	5.69
696.956	26.69
696.984	-15.31
697.013	9.69
697.042	9.69
697.071	27.69
697.099	27.69
697.128	24.69
697.157	8.69
697.186	1.69
697.214	6.69
697.243	5.69
697.272	-2.31
697.301	12.69
697.329	9.69
697.358	14.69
697.387	25.69
697.415	19.69
697.444	17.69
697.473	12.69
697.502	10.69
697.53	0.69
697.559	7.69
697.588	7.69
697.616	23.69
697.645	11.69
697.674	28.69
697.703	14.69
697.731	11.69
697.76	0.69
697.789	6.69
697.817	0.69
697.846	23.69
697.875	14.69
697.903	26.69
697.932	7.69
697.961	-3.31
697.989	8.69
698.018	23.69
698.047	10.69
698.075	17.69
698.104	3.69
698.133	-1.31
698.161	-3.31
698.19	6.69
698.218	15.69
698.247	25.69
698.276	2.69
698.304	2.69
698.333	5.69
698.362	22.69
698.39	14.69
698.419	27.69
698.447	8.69
698.476	0.69
698.505	5.69
698.533	9.69
698.562	2.69
698.591	-0.31
698.619	1.69
698.648	17.69
698.676	11.69
698.705	2.69
698.733	2.69
698.762	-7.31
698.791	6.69
698.819	4.69
698.848	9.69
698.876	11.69
698.905	10.69
698.933	7.69
698.962	6.69
698.991	13.69
699.019	9.69
699.048	-2.31
699.076	6.69
699.105	-5.31
699.133	-1.31
699.162	8.69
699.19	27.69
699.219	15.69
699.248	5.69
699.276	-19.31
699.305	-2.31
699.333	10.69
699.362	2.69
699.39	19.69
699.419	-2.31
699.447	11.69
699.476	15.69
699.504	7.69
699.533	18.69
699.561	-0.31
699.59	6.69
699.618	10.69
699.647	11.69
699.675	0.69
699.704	23.69
699.732	12.69
699.761	-2.31
699.789	6.69
699.818	11.69
699.846	9.69
699.874	11.69
699.903	8.69
699.931	1.69
699.96	21.69
699.988	-15.31
700.017	12.69
700.045	14.69
700.074	8.69
700.102	17.69
700.13	-1.31
700.159	4.69
700.187	8.69
700.216	6.69
700.244	-1.31
700.273	1.69
700.301	10.69
700.329	15.69
700.358	16.69
700.386	3.69
700.415	-0.31
700.443	10.69
700.472	3.69
700.5	11.69
700.528	14.69
700.557	5.69
700.585	-2.31
700.614	5.69
700.642	11.69
700.67	27.69
700.699	31.69
700.727	17.69
700.755	7.69
700.784	-0.31
700.812	-1.31
700.841	3.69
700.869	-5.31
700.897	-11.31
700.926	-5.31
700.954	13.69
700.982	27.69
701.011	14.69
701.039	26.69
701.067	14.69
701.096	9.69
701.124	9.69
701.152	10.69
701.181	7.69
701.209	-12.31
701.237	-1.31
701.266	10.69
701.294	9.69
701.322	18.69
701.351	15.69
701.379	-6.31
701.407	3.69
701.435	3.69
701.464	14.69
701.492	20.69
701.52	5.69
701.549	18.69
701.577	-13.31
701.605	7.69
701.634	18.69
701.662	15.69
701.69	7.69
701.718	11.69
701.747	14.69
701.775	6.69
701.803	-1.31
701.831	17.69
701.86	3.69
701.888	13.69
701.916	10.69
701.944	1.69
701.973	-1.31
702.001	-7.31
702.029	-10.31
702.057	-8.31
702.086	-7.31
702.114	-20.31
702.142	6.69
702.17	9.69
702.199	-2.31
702.227	0.69
702.255	14.69
702.283	0.69
702.311	25.69
702.34	7.69
702.368	10.69
702.396	9.69
702.424	13.69
702.452	3.69
702.481	10.69
702.509	-10.31
702.537	-0.31
702.565	9.69
702.593	-1.31
702.621	9.69
702.65	-3.31
702.678	-4.31
702.706	1.69
702.734	-13.31
702.762	8.69
702.79	11.69
702.819	5.69
702.847	9.69
702.875	7.69
702.903	34.69
702.931	8.69
702.959	12.69
702.988	8.69
703.016	6.69
703.044	12.69
703.072	-2.31
703.1	-5.31
703.128	2.69
703.156	3.69
703.184	18.69
703.212	6.69
703.241	9.69
703.269	2.69
703.297	-0.31
703.325	5.69
703.353	2.69
703.381	-6.31
703.409	0.69
703.437	4.69
703.465	0.69
703.493	1.69
703.522	-10.31
703.55	3.69
703.578	-3.31
703.606	-4.31
703.634	4.69
703.662	0.69
703.69	3.69
703.718	2.69
703.746	28.69
703.774	27.69
703.802	24.69
703.83	-4.31
703.858	9.69
703.886	3.69
703.914	-8.31
703.942	5.69
703.97	1.69
703.998	10.69
704.027	30.69
704.055	13.69
704.083	-4.31
704.111	-1.31
704.139	8.69
704.167	-3.31
704.195	10.69
704.223	15.69
704.251	6.69
704.279	19.69
704.307	9.69
704.335	-15.31
704.363	4.69
704.391	-12.31
704.419	-11.31
704.447	12.69
704.475	18.69
704.503	8.69
704.531	-1.31
704.558	5.69
704.586	14.69
704.614	1.69
704.642	11.69
704.67	0.69
704.698	7.69
704.726	-9.31
704.754	-9.31
704.782	5.69
704.81	12.69
704.838	27.69
704.866	16.69
704.894	-8.31
704.922	-13.31
704.95	0.69
704.978	14.69
705.006	4.69
705.034	22.69
705.061	-5.31
705.089	7.69
705.117	-6.31
705.145	-15.31
705.173	8.69
705.201	1.69
705.229	22.69
705.257	17.69
705.285	10.69
705.313	31.69
705.34	10.69
705.368	11.69
705.396	10.69
705.424	13.69
705.452	-5.31
705.48	5.69
705.508	6.69
705.536	22.69
705.563	5.69
705.591	1.69
705.619	9.69
705.647	5.69
705.675	-13.31
705.703	3.69
705.731	3.69
705.758	7.69
705.786	6.69
705.814	26.69
705.842	10.69
705.87	2.69
705.898	23.69
705.925	5.69
705.953	1.69
705.981	-0.31
706.009	5.69
706.037	10.69
706.065	8.69
706.092	-3.31
706.12	-4.31
706.148	8.69
706.176	5.69
706.204	7.69
706.231	10.69
706.259	-4.31
706.287	7.69
706.315	20.69
706.342	-15.31
706.37	19.69
706.398	9.69
706.426	9.69
706.454	3.69
706.481	6.69
706.509	7.69
706.537	-13.31
706.565	5.69
706.592	16.69
706.62	13.69
706.648	10.69
706.676	-5.31
706.703	9.69
706.731	-3.31
706.759	-4.31
706.787	3.69
706.814	1.69
706.842	18.69
706.87	14.69
706.897	-7.31
706.925	-8.31
706.953	5.69
706.981	19.69
707.008	15.69
707.036	-5.31
707.064	-8.31
707.091	-4.31
707.119	1.69
707.147	-2.31
707.174	16.69
707.202	12.69
707.23	7.69
707.258	23.69
707.285	-4.31
707.313	6.69
707.341	-8.31
707.368	-3.31
707.396	14.69
707.424	8.69
707.451	3.69
707.479	8.69
707.507	-1.31
707.534	-2.31
707.562	-9.31
707.59	-11.31
707.617	-10.31
707.645	8.69
707.672	-0.31
707.7	-5.31
707.728	15.69
707.755	-6.31
707.783	10.69
707.811	7.69
707.838	-9.31
707.866	6.69
707.893	-2.31
707.921	1.69
707.949	-13.31
707.976	6.69
708.004	9.69
708.031	6.69
708.059	-8.31
708.087	3.69
708.114	3.69
708.142	-8.31
708.169	-9.31
708.197	-1.31
708.225	2.69
708.252	-4.31
708.28	13.69
708.307	-7.31
708.335	0.69
708.362	-6.31
708.39	10.69
708.418	11.69
708.445	-7.31
708.473	-22.31
708.5	-5.31
708.528	0.69
708.555	-4.31
708.583	-7.31
708.61	-1.31
708.638	5.69
708.665	10.69
708.693	1.69
708.72	-13.31
708.748	-7.31
708.776	6.69
708.803	20.69
708.831	29.69
708.858	16.69
708.886	2.69
708.913	-7.31
708.941	-0.31
708.968	8.69
708.996	-12.31
709.023	14.69
709.051	9.69
709.078	7.69
709.105	4.69
709.133	8.69
709.16	1.69
709.188	1.69
709.215	18.69
709.243	1.69
709.27	-17.31
709.298	-3.31
709.325	5.69
709.353	-0.31
709.38	0.69
709.408	17.69
709.435	3.69
709.462	12.69
709.49	-2.31
709.517	-8.31
709.545	9.69
709.572	5.69
709.6	7.69
709.627	-6.31
709.655	14.69
709.682	3.69
709.709	-0.31
709.737	9.69
709.764	-10.31
709.792	1.69
709.819	5.69
709.846	20.69
709.874	7.69
709.901	22.69
709.929	32.69
709.956	-1.31
709.983	-6.31
710.011	-8.31
710.038	3.69
710.066	-0.31
710.093	8.69
710.12	-5.31
710.148	-4.31
710.175	-18.31
710.202	-6.31
710.23	6.69
710.257	-4.31
710.284	2.69
710.312	6.69
710.339	-1.31
710.366	3.69
710.394	1.69
710.421	6.69
710.448	-5.31
710.476	-20.31
710.503	-2.31
710.53	2.69
710.558	1.69
710.585	1.69
710.612	-15.31
710.64	1.69
710.667	-3.31
710.694	-9.31
710.722	4.69
710.749	-9.31
710.776	-1.31
710.804	11.69
710.831	13.69
710.858	15.69
710.885	9.69
710.913	-1.31
710.94	21.69
710.967	12.69
710.995	9.69
711.022	7.69
711.049	3.69
711.076	-3.31
711.104	-13.31
711.131	-22.31
711.158	-4.31
711.185	23.69
711.213	-14.31
711.24	-12.31
711.267	-0.31
711.294	-1.31
711.322	15.69
711.349	4.69
711.376	-15.31
711.403	2.69
711.431	-5.31
711.458	9.69
711.485	0.69
711.512	2.69
711.54	-0.31
711.567	5.69
711.594	3.69
711.621	-0.31
711.648	5.69
711.676	-12.31
711.703	-0.31
711.73	-13.31
711.757	6.69
711.784	-2.31
711.812	7.69
711.839	-2.31
711.866	0.69
711.893	-1.31
711.92	6.69
711.947	5.69
711.975	-0.31
712.002	-8.31
712.029	23.69
712.056	7.69
712.083	13.69
712.11	-7.31
712.138	-7.31
712.165	4.69
712.192	-0.31
712.219	-1.31
712.246	-2.31
712.273	-8.31
712.3	-10.31
712.328	-13.31
712.355	4.69
712.382	-9.31
712.409	18.69
712.436	1.69
712.463	1.69
712.49	10.69
712.517	5.69
712.544	-2.31
712.572	-2.31
712.599	-16.31
712.626	14.69
712.653	1.69
712.68	-0.31
712.707	9.69
712.734	11.69
712.761	3.69
712.788	-1.31
712.815	-2.31
712.842	8.69
712.87	-3.31
712.897	15.69
712.924	-4.31
712.951	8.69
712.978	18.69
713.005	14.69
713.032	6.69
713.059	3.69
713.086	0.69
713.113	-8.31
713.14	-25.31
713.167	5.69
713.194	25.69
713.221	6.69
713.248	13.69
713.275	14.69
713.302	-4.31
713.329	5.69
713.356	4.69
713.383	8.69
713.41	10.69
713.437	-1.31
713.464	1.69
713.491	20.69
713.518	5.69
713.545	-9.31
713.572	-1.31
713.599	22.69
713.626	5.69
713.653	14.69
713.68	-8.31
713.707	1.69
713.734	10.69
713.761	-1.31
713.788	-6.31
713.815	-0.31
713.842	20.69
713.869	6.69
713.896	5.69
713.923	-8.31
713.95	3.69
713.977	-4.31
714.004	2.69
714.031	-12.31
714.058	-6.31
714.085	1.69
714.112	12.69
714.139	11.69
714.165	-1.31
714.192	-15.31
714.219	-1.31
714.246	6.69
714.273	13.69
714.3	-1.31
714.327	2.69
714.354	10.69
714.381	-0.31
714.408	-6.31
714.435	-7.31
714.461	4.69
714.488	10.69
714.515	-3.31
714.542	-2.31
714.569	-13.31
714.596	-19.31
714.623	-0.31
714.65	0.69
714.677	11.69
714.703	19.69
714.73	10.69
714.757	10.69
714.784	15.69
714.811	-3.31
714.838	0.69
714.865	-10.31
714.891	8.69
714.918	14.69
714.945	-1.31
714.972	-8.31
714.999	10.69
715.026	2.69
715.052	20.69
715.079	4.69
715.106	1.69
715.133	6.69
715.16	-4.31
715.187	16.69
715.213	13.69
715.24	6.69
715.267	-8.31
715.294	-1.31
715.321	7.69
715.347	1.69
715.374	6.69
715.401	-4.31
715.428	12.69
715.455	3.69
715.481	-9.31
715.508	12.69
715.535	-3.31
715.562	24.69
715.588	17.69
715.615	-2.31
715.642	2.69
715.669	6.69
715.695	-7.31
715.722	2.69
715.749	16.69
715.776	9.69
715.802	12.69
715.829	17.69
715.856	1.69
715.883	13.69
715.909	-0.31
715.936	5.69
715.963	10.69
715.99	-15.31
716.016	6.69
716.043	6.69
716.07	3.69
716.096	3.69
716.123	26.69
716.15	12.69
716.177	9.69
716.203	5.69
716.23	8.69
716.257	9.69
716.283	19.69
716.31	1.69
716.337	9.69
716.363	-1.31
716.39	6.69
716.417	11.69
716.443	10.69
716.47	26.69
716.497	18.69
716.523	2.69
716.55	7.69
716.577	17.69
716.603	8.69
716.63	10.69
716.657	14.69
716.683	-0.31
716.71	-6.31
716.737	2.69
716.763	-6.31
716.79	7.69
716.817	19.69
716.843	18.69
716.87	0.69
716.897	11.69
716.923	15.69
716.95	4.69
716.976	5.69
717.003	-0.31
717.03	9.69
717.056	19.69
717.083	21.69
717.109	17.69
717.136	7.69
717.163	-1.31
717.189	-0.31
717.216	-6.31
717.242	-16.31
717.269	-0.31
717.296	6.69
717.322	8.69
717.349	15.69
717.375	10.69
717.402	10.69
717.428	8.69
717.455	12.69
717.481	7.69
717.508	-4.31
717.535	15.69
717.561	8.69
717.588	0.69
717.614	8.69
717.641	-5.31
717.667	5.69
717.694	5.69
717.72	7.69
717.747	6.69
717.773	-2.31
717.8	4.69
717.826	12.69
717.853	-4.31
717.88	10.69
717.906	1.69
717.933	2.69
717.959	10.69
717.986	1.69
718.012	12.69
718.039	5.69
718.065	22.69
718.092	25.69
718.118	-0.31
718.144	-6.31
718.171	32.69
718.197	23.69
718.224	2.69
718.25	2.69
718.277	17.69
718.303	9.69
718.33	6.69
718.356	-5.31
718.383	-8.31
718.409	8.69
718.436	-5.31
718.462	0.69
718.489	-11.31
718.515	21.69
718.541	12.69
718.568	13.69
718.594	6.69
718.621	-0.31
718.647	-2.31
718.674	10.69
718.7	20.69
718.726	9.69
718.753	-1.31
718.779	17.69
718.806	9.69
718.832	14.69
718.858	-4.31
718.885	1.69
718.911	11.69
718.938	10.69
718.964	-6.31
718.99	7.69
719.017	6.69
719.043	8.69
719.07	25.69
719.096	-7.31
719.122	11.69
719.149	-4.31
719.175	-3.31
719.201	19.69
719.228	8.69
719.254	8.69
719.281	-7.31
719.307	-4.31
719.333	-5.31
719.36	9.69
719.386	6.69
719.412	11.69
719.439	-9.31
719.465	-3.31
719.491	1.69
719.518	6.69
719.544	5.69
719.57	10.69
719.597	-1.31
719.623	-13.31
719.649	-2.31
719.675	7.69
719.702	7.69
719.728	7.69
719.754	-2.31
719.781	5.69
719.807	6.69
719.833	12.69
719.86	8.69
719.886	15.69
719.912	8.69
719.938	-1.31
719.965	6.69
719.991	1.69
720.017	14.69
720.044	-0.31
720.07	-3.31
720.096	10.69
720.122	13.69
720.149	23.69
720.175	17.69
720.201	10.69
720.227	0.69
720.254	13.69
720.28	-1.31
720.306	-6.31
720.332	13.69
720.359	2.69
720.385	6.69
720.411	5.69
720.437	12.69
720.463	-3.31
720.49	11.69
720.516	3.69
720.542	-6.31
720.568	7.69
720.595	21.69
720.621	-1.31
720.647	12.69
720.673	12.69
720.699	16.69
720.725	12.69
720.752	11.69
720.778	1.69
720.804	2.69
720.83	29.69
720.856	-0.31
720.883	-2.31
720.909	-8.31
720.935	2.69
720.961	13.69
720.987	-1.31
721.013	0.69
721.04	-9.31
721.066	-4.31
721.092	-12.31
721.118	11.69
721.144	2.69
721.17	16.69
721.196	15.69
721.223	7.69
721.249	16.69
721.275	21.69
721.301	16.69
721.327	17.69
721.353	5.69
721.379	4.69
721.405	-0.31
721.432	18.69
721.458	17.69
721.484	23.69
721.51	-9.31
721.536	10.69
721.562	5.69
721.588	-9.31
721.614	-4.31
721.64	6.69
721.666	-1.31
721.693	2.69
721.719	-7.31
721.745	-8.31
721.771	-14.31
721.797	14.69
721.823	17.69
721.849	11.69
721.875	11.69
721.901	5.69
721.927	12.69
721.953	15.69
721.979	13.69
722.005	11.69
722.031	-10.31
722.057	9.69
722.083	17.69
722.109	13.69
722.135	7.69
722.161	6.69
722.187	-5.31
722.214	6.69
722.24	2.69
722.266	-3.31
722.292	1.69
722.318	21.69
722.344	15.69
722.37	0.69
722.396	5.69
722.422	2.69
722.448	8.69
722.474	-0.31
722.5	1.69
722.526	14.69
722.552	5.69
722.578	1.69
722.603	6.69
722.629	4.69
722.655	-5.31
722.681	-1.31
722.707	-13.31
722.733	3.69
722.759	1.69
722.785	10.69
722.811	-13.31
722.837	-1.31
722.863	6.69
722.889	13.69
722.915	3.69
722.941	10.69
722.967	18.69
722.993	12.69
723.019	7.69
723.045	17.69
723.071	-0.31
723.097	-1.31
723.122	5.69
723.148	-2.31
723.174	-0.31
723.2	9.69
723.226	-0.31
723.252	1.69
723.278	5.69
723.304	-1.31
723.33	0.69
723.356	3.69
723.381	-4.31
723.407	-2.31
723.433	5.69
723.459	-5.31
723.485	4.69
723.511	-11.31
723.537	-2.31
723.563	9.69
723.588	14.69
723.614	14.69
723.64	6.69
723.666	6.69
723.692	2.69
723.718	-3.31
723.744	2.69
723.769	-1.31
723.795	3.69
723.821	-0.31
723.847	3.69
723.873	2.69
723.899	23.69
723.924	7.69
723.95	-3.31
723.976	-3.31
724.002	11.69
724.028	13.69
724.053	9.69
724.079	7.69
724.105	8.69
724.131	0.69
724.157	-2.31
724.182	1.69
724.208	2.69
724.234	10.69
724.26	3.69
724.286	11.69
724.311	-0.31
724.337	5.69
724.363	2.69
724.389	11.69
724.415	-3.31
724.44	18.69
724.466	8.69
724.492	-0.31
724.518	-4.31
724.543	7.69
724.569	0.69
724.595	2.69
724.621	2.69
724.646	-7.31
724.672	-2.31
724.698	10.69
724.723	-4.31
724.749	5.69
724.775	21.69
724.801	11.69
724.826	-7.31
724.852	-1.31
724.878	1.69
724.904	-10.31
724.929	7.69
724.955	-9.31
724.981	11.69
725.006	8.69
725.032	9.69
725.058	6.69
725.083	9.69
725.109	-0.31
725.135	-1.31
725.161	-1.31
725.186	10.69
725.212	-2.31
725.238	4.69
725.263	-6.31
725.289	-12.31
725.315	-9.31
725.34	-2.31
725.366	2.69
725.392	8.69
725.417	16.69
725.443	11.69
725.468	8.69
725.494	7.69
725.52	6.69
725.545	6.69
725.571	0.69
725.597	-2.31
725.622	-2.31
725.648	11.69
725.674	2.69
725.699	14.69
725.725	9.69
725.75	39.69
725.776	-3.31
725.802	10.69
725.827	-2.31
725.853	-11.31
725.878	-2.31
725.904	-7.31
725.93	-1.31
725.955	-6.31
725.981	-4.31
726.006	-2.31
726.032	18.69
726.057	-1.31
726.083	-13.31
726.109	13.69
726.134	7.69
726.16	1.69
726.185	-4.31
726.211	5.69
726.236	13.69
726.262	9.69
726.288	14.69
726.313	12.69
726.339	15.69
726.364	0.69
726.39	25.69
726.415	-1.31
726.441	8.69
726.466	6.69
726.492	3.69
726.517	19.69
726.543	6.69
726.568	5.69
726.594	12.69
726.619	10.69
726.645	20.69
726.67	1.69
726.696	14.69
726.721	-8.31
726.747	-9.31
726.772	-7.31
726.798	7.69
726.823	16.69
726.849	-0.31
726.874	3.69
726.9	12.69
726.925	1.69
726.951	-1.31
726.976	-3.31
727.002	-13.31
727.027	-3.31
727.053	19.69
727.078	-0.31
727.104	5.69
727.129	-10.31
727.155	0.69
727.18	14.69
727.205	8.69
727.231	-4.31
727.256	6.69
727.282	6.69
727.307	3.69
727.333	10.69
727.358	0.69
727.383	-9.31
727.409	-12.31
727.434	8.69
727.46	-6.31
727.485	4.69
727.511	11.69
727.536	4.69
727.561	0.69
727.587	-7.31
727.612	5.69
727.637	6.69
727.663	3.69
727.688	15.69
727.714	9.69
727.739	-3.31
727.764	2.69
727.79	0.69
727.815	11.69
727.841	11.69
727.866	-4.31
727.891	16.69
727.917	-2.31
727.942	-8.31
727.967	-2.31
727.993	-10.31
728.018	1.69
728.043	14.69
728.069	2.69
728.094	11.69
728.119	3.69
728.145	21.69
728.17	-1.31
728.195	0.69
728.221	13.69
728.246	2.69
728.271	6.69
728.297	10.69
728.322	3.69
728.347	14.69
728.373	9.69
728.398	12.69
728.423	1.69
728.448	5.69
728.474	13.69
728.499	17.69
728.524	6.69
728.55	-10.31
728.575	3.69
728.6	17.69
728.625	3.69
728.651	13.69
728.676	-4.31
728.701	-2.31
728.727	8.69
728.752	3.69
728.777	-4.31
728.802	20.69
728.828	-6.31
728.853	5.69
728.878	11.69
728.903	1.69
728.929	-7.31
728.954	-4.31
728.979	13.69
729.004	5.69
729.03	0.69
729.055	20.69
729.08	-1.31
729.105	-8.31
729.13	20.69
729.156	5.69
729.181	9.69
729.206	-10.31
729.231	3.69
729.256	10.69
729.282	19.69
729.307	-7.31
729.332	2.69
729.357	2.69
729.382	15.69
729.408	8.69
729.433	7.69
729.458	0.69
729.483	7.69
729.508	12.69
729.533	17.69
729.559	10.69
729.584	-8.31
729.609	5.69
729.634	31.69
729.659	-1.31
729.684	15.69
729.71	13.69
729.735	8.69
729.76	3.69
729.785	-13.31
729.81	5.69
729.835	10.69
729.86	2.69
729.886	21.69
729.911	23.69
729.936	9.69
729.961	5.69
729.986	-10.31
730.011	-2.31
730.036	1.69
730.061	-10.31
730.086	14.69
730.112	30.69
730.137	26.69
730.162	10.69
730.187	-9.31
730.212	25.69
730.237	-4.31
730.262	13.69
730.287	3.69
730.312	21.69
730.337	-6.31
730.362	13.69
730.387	12.69
730.413	-9.31
730.438	-1.31
730.463	5.69
730.488	0.69
730.513	5.69
730.538	3.69
730.563	8.69
730.588	13.69
730.613	5.69
730.638	18.69
730.663	4.69
730.688	31.69
730.713	13.69
730.738	11.69
730.763	6.69
730.788	9.69
730.813	11.69
730.838	6.69
730.863	5.69
730.888	-7.31
730.913	-2.31
730.938	-10.31
730.963	-5.31
730.988	19.69
731.013	12.69
731.038	10.69
731.063	8.69
731.088	18.69
731.113	9.69
731.138	-5.31
731.163	-13.31
731.188	-8.31
731.213	-1.31
731.238	4.69
731.263	6.69
731.288	-4.31
731.313	5.69
731.338	15.69
731.363	6.69
731.388	1.69
731.413	5.69
731.438	25.69
731.463	17.69
731.487	16.69
731.512	-6.31
731.537	14.69
731.562	4.69
731.587	9.69
731.612	3.69
731.637	2.69
731.662	7.69
731.687	-12.31
731.712	-14.31
731.737	9.69
731.762	-3.31
731.786	2.69
731.811	7.69
731.836	7.69
731.861	-1.31
731.886	11.69
731.911	2.69
731.936	22.69
731.961	5.69
731.986	-2.31
732.01	11.69
732.035	3.69
732.06	20.69
732.085	13.69
732.11	2.69
732.135	-3.31
732.16	3.69
732.184	-2.31
732.209	0.69
732.234	22.69
732.259	-8.31
732.284	14.69
732.309	-2.31
732.334	-4.31
732.358	-7.31
732.383	1.69
732.408	8.69
732.433	15.69
732.458	0.69
732.482	20.69
732.507	-9.31
732.532	-4.31
732.557	12.69
732.582	11.69
732.607	2.69
732.631	-0.31
732.656	-2.31
732.681	-2.31
732.706	0.69
732.73	-0.31
732.755	-0.31
732.78	-1.31
732.805	5.69
732.83	1.69
732.854	9.69
732.879	20.69
732.904	10.69
732.929	-3.31
732.953	18.69
732.978	-2.31
733.003	-8.31
733.028	7.69
733.052	9.69
733.077	19.69
733.102	33.69
733.127	-6.31
733.151	-2.31
733.176	-0.31
733.201	10.69
733.226	-9.31
733.25	10.69
733.275	10.69
733.3	3.69
733.324	28.69
733.349	15.69
733.374	23.69
733.399	4.69
733.423	15.69
733.448	6.69
733.473	-4.31
733.497	3.69
733.522	4.69
733.547	11.69
733.571	19.69
733.596	7.69
733.621	14.69
733.646	-1.31
733.67	7.69
733.695	3.69
733.72	6.69
733.744	5.69
733.769	2.69
733.794	13.69
733.818	10.69
733.843	2.69
733.867	0.69
733.892	-7.31
733.917	-5.31
733.941	6.69
733.966	-3.31
733.991	2.69
734.015	23.69
734.04	6.69
734.065	23.69
734.089	15.69
734.114	-6.31
734.138	6.69
734.163	-4.31
734.188	7.69
734.212	15.69
734.237	3.69
734.261	5.69
734.286	8.69
734.311	0.69
734.335	7.69
734.36	0.69
734.384	11.69
734.409	0.69
734.434	7.69
734.458	11.69
734.483	-5.31
734.507	1.69
734.532	9.69
734.556	8.69
734.581	-0.31
734.606	0.69
734.63	-3.31
734.655	5.69
734.679	-5.31
734.704	6.69
734.728	3.69
734.753	-8.31
734.777	17.69
734.802	16.69
734.826	11.69
734.851	0.69
734.876	9.69
734.9	8.69
734.925	6.69
734.949	24.69
734.974	3.69
734.998	18.69
735.023	-0.31
735.047	-9.31
735.072	34.69
735.096	5.69
735.121	2.69
735.145	9.69
735.17	3.69
735.194	26.69
735.219	5.69
735.243	12.69
735.268	17.69
735.292	15.69
735.317	11.69
735.341	11.69
735.365	-5.31
735.39	-2.31
735.414	6.69
735.439	10.69
735.463	-6.31
735.488	5.69
735.512	-6.31
735.537	5.69
735.561	-1.31
735.586	0.69
735.61	-2.31
735.634	6.69
735.659	15.69
735.683	15.69
735.708	3.69
735.732	-9.31
735.757	-1.31
735.781	17.69
735.805	29.69
735.83	0.69
735.854	-10.31
735.879	7.69
735.903	34.69
735.927	20.69
735.952	23.69
735.976	-1.31
736.001	-1.31
736.025	3.69
736.049	-1.31
736.074	6.69
736.098	2.69
736.123	2.69
736.147	-4.31
736.171	11.69
736.196	25.69
736.22	-2.31
736.244	4.69
736.269	5.69
736.293	2.69
736.317	9.69
736.342	7.69
736.366	13.69
736.39	18.69
736.415	5.69
736.439	-2.31
736.463	3.69
736.488	1.69
736.512	-3.31
736.536	17.69
736.561	32.69
736.585	1.69
736.609	13.69
736.634	-9.31
736.658	4.69
736.682	-5.31
736.707	6.69
736.731	3.69
736.755	-6.31
736.78	1.69
736.804	10.69
736.828	7.69
736.852	8.69
736.877	13.69
736.901	10.69
736.925	2.69
736.949	8.69
736.974	-1.31
736.998	-1.31
737.022	4.69
737.047	-0.31
737.071	21.69
737.095	16.69
737.119	18.69
737.144	17.69
737.168	1.69
737.192	-1.31
737.216	11.69
737.241	5.69
737.265	14.69
737.289	10.69
737.313	10.69
737.337	19.69
737.362	4.69
737.386	9.69
737.41	15.69
737.434	9.69
737.459	-5.31
737.483	24.69
737.507	22.69
737.531	19.69
737.555	9.69
737.58	33.69
737.604	8.69
737.628	-13.31
737.652	-6.31
737.676	10.69
737.701	26.69
737.725	10.69
737.749	2.69
737.773	-3.31
737.797	-1.31
737.821	9.69
737.846	4.69
737.87	29.69
737.894	5.69
737.918	5.69
737.942	7.69
737.966	-4.31
737.99	13.69
738.015	10.69
738.039	0.69
738.063	-9.31
738.087	22.69
738.111	7.69
738.135	17.69
738.159	11.69
738.184	1.69
738.208	1.69
738.232	3.69
738.256	9.69
738.28	8.69
738.304	21.69
738.328	0.69
738.352	8.69
738.376	0.69
738.4	14.69
738.425	1.69
738.449	-12.31
738.473	18.69
738.497	4.69
738.521	11.69
738.545	15.69
738.569	25.69
738.593	32.69
738.617	12.69
738.641	-1.31
738.665	2.69
738.689	7.69
738.713	3.69
738.737	7.69
738.762	21.69
738.786	18.69
738.81	-2.31
738.834	5.69
738.858	3.69
738.882	-0.31
738.906	1.69
738.93	19.69
738.954	15.69
738.978	2.69
739.002	12.69
739.026	19.69
739.05	1.69
739.074	11.69
739.098	13.69
739.122	1.69
739.146	3.69
739.17	10.69
739.194	2.69
739.218	-6.31
739.242	-2.31
739.266	1.69
739.29	3.69
739.314	6.69
739.338	18.69
739.362	1.69
739.386	12.69
739.41	2.69
739.434	1.69
739.458	9.69
739.482	9.69
739.506	8.69
739.53	8.69
739.554	13.69
739.577	9.69
739.601	-1.31
739.625	5.69
739.649	-3.31
739.673	-6.31
739.697	16.69
739.721	10.69
739.745	5.69
739.769	22.69
739.793	16.69
739.817	19.69
739.841	5.69
739.865	-4.31
739.889	-15.31
739.912	9.69
739.936	3.69
739.96	-2.31
739.984	14.69
740.008	15.69
740.032	-1.31
740.056	7.69
740.08	16.69
740.104	5.69
740.127	7.69
740.151	14.69
740.175	18.69
740.199	5.69
740.223	49.69
740.247	12.69
740.271	2.69
740.295	6.69
740.318	-9.31
740.342	-12.31
740.366	13.69
740.39	27.69
740.414	11.69
740.438	1.69
740.461	1.69
740.485	4.69
740.509	13.69
740.533	11.69
740.557	1.69
740.581	-8.31
740.604	-5.31
740.628	5.69
740.652	6.69
740.676	10.69
740.7	1.69
740.723	0.69
740.747	-3.31
740.771	-5.31
740.795	9.69
740.819	11.69
740.842	1.69
740.866	-2.31
740.89	1.69
740.914	-12.31
740.938	2.69
740.961	6.69
740.985	15.69
741.009	9.69
741.033	23.69
741.056	16.69
741.08	-1.31
741.104	-10.31
741.128	5.69
741.151	15.69
741.175	7.69
741.199	9.69
741.223	17.69
741.246	-5.31
741.27	-1.31
741.294	16.69
741.318	4.69
741.341	4.69
741.365	6.69
741.389	3.69
741.413	14.69
741.436	14.69
741.46	3.69
741.484	7.69
741.507	-2.31
741.531	35.69
741.555	26.69
741.579	14.69
741.602	14.69
741.626	19.69
741.65	6.69
741.673	2.69
741.697	6.69
741.721	6.69
741.744	-8.31
741.768	18.69
741.792	12.69
741.815	11.69
741.839	16.69
741.863	18.69
741.886	26.69
741.91	16.69
741.934	8.69
741.957	-13.31
741.981	13.69
742.005	9.69
742.028	2.69
742.052	4.69
742.075	9.69
742.099	14.69
742.123	-1.31
742.146	17.69
742.17	3.69
742.194	-10.31
742.217	-1.31
742.241	3.69
742.264	16.69
742.288	6.69
742.312	16.69
742.335	-5.31
742.359	-0.31
742.382	14.69
742.406	13.69
742.43	-17.31
742.453	7.69
742.477	7.69
742.5	-1.31
742.524	6.69
742.548	-12.31
742.571	1.69
742.595	-2.31
742.618	-7.31
742.642	-0.31
742.665	6.69
742.689	2.69
742.712	10.69
742.736	-5.31
742.76	9.69
742.783	5.69
742.807	18.69
742.83	17.69
742.854	-7.31
742.877	7.69
742.901	13.69
742.924	-3.31
742.948	14.69
742.971	6.69
742.995	6.69
743.018	-1.31
743.042	-6.31
743.065	-2.31
743.089	-3.31
743.112	13.69
743.136	5.69
743.159	5.69
743.183	7.69
743.206	18.69
743.23	5.69
743.253	8.69
743.277	10.69
743.3	10.69
743.324	-5.31
743.347	1.69
743.371	29.69
743.394	12.69
743.418	6.69
743.441	3.69
743.465	13.69
743.488	-1.31
743.512	3.69
743.535	5.69
743.558	17.69
743.582	8.69
743.605	7.69
743.629	8.69
743.652	9.69
743.676	5.69
743.699	10.69
743.723	19.69
743.746	6.69
743.769	5.69
743.793	-1.31
743.816	-5.31
743.84	2.69
743.863	-0.31
743.886	-0.31
743.91	17.69
743.933	5.69
743.957	0.69
743.98	9.69
744.003	14.69
744.027	11.69
744.05	-3.31
744.074	6.69
744.097	-4.31
744.12	-4.31
744.144	-4.31
744.167	3.69
744.19	8.69
744.214	-16.31
744.237	4.69
744.26	29.69
744.284	-7.31
744.307	-18.31
744.331	5.69
744.354	-12.31
744.377	-1.31
744.401	1.69
744.424	4.69
744.447	-8.31
744.471	10.69
