Data from HighRes_H2D2_15_04_11_07_2024_HR4C61891__63__15-05-40-743.txt Node

Date: Thu Nov 07 15:05:40 EST 2024
User: crc00042
Spectrometer: HR4C6189
Trigger mode: 4
Integration Time (sec): 1.000000E-1
Scans to average: 1
Electric dark correction enabled: true
Nonlinearity correction enabled: false
Boxcar width: 0
XAxis mode: Wavelengths
Number of Pixels in Spectrum: 3648
>>>>>Begin Spectral Data<<<<<
639.567	-88.69
639.602	-88.69
639.636	-88.69
639.67	-27.69
639.704	-5.69
639.738	-1.69
639.773	8.31
639.807	0.31
639.841	-12.69
639.875	11.31
639.909	-6.69
639.943	-2.69
639.978	-5.69
640.012	-8.69
640.046	15.31
640.08	8.31
640.114	2.31
640.148	-7.69
640.182	2.31
640.217	0.31
640.251	12.31
640.285	12.31
640.319	1.31
640.353	-0.69
640.387	-10.69
640.421	-7.69
640.455	-2.69
640.49	-6.69
640.524	-23.69
640.558	-3.69
640.592	-7.69
640.626	-1.69
640.66	1.31
640.694	-3.69
640.728	10.31
640.762	4.31
640.796	8.31
640.83	15.31
640.865	-1.69
640.899	13.31
640.933	-4.69
640.967	1.31
641.001	11.31
641.035	8.31
641.069	-2.69
641.103	-13.69
641.137	-7.69
641.171	-8.69
641.205	14.31
641.239	10.31
641.273	11.31
641.307	-0.69
641.341	-10.69
641.375	-4.69
641.409	-2.69
641.443	0.31
641.477	-0.69
641.511	12.31
641.545	17.31
641.579	-0.69
641.614	7.31
641.648	0.31
641.682	-7.69
641.716	15.31
641.75	17.31
641.784	-4.69
641.818	-5.69
641.852	6.31
641.886	-13.69
641.919	9.31
641.953	1.31
641.987	-11.69
642.021	2.31
642.055	7.31
642.089	15.31
642.123	-10.69
642.157	0.31
642.191	9.31
642.225	-3.69
642.259	3.31
642.293	13.31
642.327	8.31
642.361	-4.69
642.395	11.31
642.429	27.31
642.463	14.31
642.497	14.31
642.531	0.31
642.565	-10.69
642.599	5.31
642.633	-1.69
642.666	5.31
642.7	-5.69
642.734	17.31
642.768	2.31
642.802	-0.69
642.836	5.31
642.87	2.31
642.904	0.31
642.938	18.31
642.972	14.31
643.005	16.31
643.039	6.31
643.073	-2.69
643.107	6.31
643.141	-1.69
643.175	-3.69
643.209	-8.69
643.243	1.31
643.276	9.31
643.31	9.31
643.344	10.31
643.378	0.31
643.412	14.31
643.446	11.31
643.48	-1.69
643.513	15.31
643.547	15.31
643.581	-12.69
643.615	-2.69
643.649	-3.69
643.683	-0.69
643.716	-12.69
643.75	9.31
643.784	10.31
643.818	11.31
643.852	-0.69
643.886	1.31
643.919	2.31
643.953	1.31
643.987	-7.69
644.021	0.31
644.055	13.31
644.088	7.31
644.122	11.31
644.156	-16.69
644.19	-0.69
644.224	-13.69
644.257	19.31
644.291	11.31
644.325	13.31
644.359	-7.69
644.392	20.31
644.426	19.31
644.46	12.31
644.494	-5.69
644.527	-21.69
644.561	-0.69
644.595	14.31
644.629	-13.69
644.662	-10.69
644.696	9.31
644.73	0.31
644.764	-17.69
644.797	-6.69
644.831	9.31
644.865	7.31
644.899	3.31
644.932	24.31
644.966	-2.69
645	13.31
645.033	36.31
645.067	11.31
645.101	3.31
645.135	-6.69
645.168	13.31
645.202	1.31
645.236	11.31
645.269	5.31
645.303	-3.69
645.337	-9.69
645.37	-13.69
645.404	7.31
645.438	9.31
645.471	0.31
645.505	12.31
645.539	-0.69
645.572	-9.69
645.606	11.31
645.64	8.31
645.673	-1.69
645.707	22.31
645.741	-3.69
645.774	1.31
645.808	-0.69
645.842	2.31
645.875	16.31
645.909	-0.69
645.943	-2.69
645.976	-5.69
646.01	14.31
646.043	11.31
646.077	11.31
646.111	-0.69
646.144	20.31
646.178	14.31
646.212	-14.69
646.245	3.31
646.279	15.31
646.312	8.31
646.346	11.31
646.38	4.31
646.413	7.31
646.447	-2.69
646.48	-5.69
646.514	6.31
646.547	1.31
646.581	-2.69
646.615	-5.69
646.648	-4.69
646.682	2.31
646.715	9.31
646.749	23.31
646.782	8.31
646.816	-7.69
646.85	12.31
646.883	11.31
646.917	7.31
646.95	-1.69
646.984	3.31
647.017	-6.69
647.051	3.31
647.084	1.31
647.118	-20.69
647.151	5.31
647.185	-7.69
647.218	-6.69
647.252	-0.69
647.285	-0.69
647.319	-0.69
647.353	12.31
647.386	24.31
647.42	10.31
647.453	-5.69
647.487	-5.69
647.52	7.31
647.553	-0.69
647.587	2.31
647.62	-14.69
647.654	15.31
647.687	2.31
647.721	12.31
647.754	6.31
647.788	21.31
647.821	4.31
647.855	12.31
647.888	12.31
647.922	27.31
647.955	18.31
647.989	5.31
648.022	0.31
648.055	17.31
648.089	-5.69
648.122	25.31
648.156	-3.69
648.189	-0.69
648.223	21.31
648.256	9.31
648.29	14.31
648.323	8.31
648.356	23.31
648.39	5.31
648.423	-1.69
648.457	3.31
648.49	14.31
648.523	8.31
648.557	-2.69
648.59	-9.69
648.624	0.31
648.657	17.31
648.69	32.31
648.724	15.31
648.757	23.31
648.791	14.31
648.824	13.31
648.857	1.31
648.891	3.31
648.924	6.31
648.957	39.31
648.991	4.31
649.024	15.31
649.057	6.31
649.091	1.31
649.124	1.31
649.158	11.31
649.191	24.31
649.224	3.31
649.258	8.31
649.291	13.31
649.324	8.31
649.358	-1.69
649.391	8.31
649.424	7.31
649.458	1.31
649.491	-2.69
649.524	-16.69
649.557	5.31
649.591	-4.69
649.624	17.31
649.657	-3.69
649.691	2.31
649.724	7.31
649.757	6.31
649.791	3.31
649.824	17.31
649.857	11.31
649.89	9.31
649.924	-9.69
649.957	0.31
649.99	-3.69
650.023	0.31
650.057	0.31
650.09	10.31
650.123	11.31
650.157	12.31
650.19	24.31
650.223	-4.69
650.256	-11.69
650.29	6.31
650.323	16.31
650.356	10.31
650.389	0.31
650.423	-2.69
650.456	1.31
650.489	7.31
650.522	9.31
650.555	11.31
650.589	13.31
650.622	7.31
650.655	12.31
650.688	-1.69
650.721	4.31
650.755	9.31
650.788	10.31
650.821	14.31
650.854	9.31
650.887	-4.69
650.921	12.31
650.954	1.31
650.987	9.31
651.02	-1.69
651.053	-14.69
651.087	-0.69
651.12	19.31
651.153	-11.69
651.186	2.31
651.219	0.31
651.252	17.31
651.286	11.31
651.319	-12.69
651.352	3.31
651.385	-1.69
651.418	10.31
651.451	4.31
651.484	17.31
651.518	-17.69
651.551	21.31
651.584	-4.69
651.617	11.31
651.65	7.31
651.683	24.31
651.716	4.31
651.749	5.31
651.783	8.31
651.816	7.31
651.849	10.31
651.882	4.31
651.915	-9.69
651.948	14.31
651.981	-2.69
652.014	-14.69
652.047	-6.69
652.08	-29.69
652.114	-11.69
652.147	0.31
652.18	9.31
652.213	40.31
652.246	-1.69
652.279	6.31
652.312	19.31
652.345	-4.69
652.378	10.31
652.411	8.31
652.444	15.31
652.477	-1.69
652.51	3.31
652.543	-9.69
652.576	5.31
652.609	8.31
652.642	12.31
652.675	7.31
652.709	-5.69
652.742	0.31
652.775	6.31
652.808	8.31
652.841	7.31
652.874	3.31
652.907	6.31
652.94	-8.69
652.973	-8.69
653.006	0.31
653.039	16.31
653.072	27.31
653.105	4.31
653.138	-14.69
653.171	-4.69
653.204	7.31
653.237	8.31
653.27	-12.69
653.303	8.31
653.336	-4.69
653.368	5.31
653.401	3.31
653.434	4.31
653.467	12.31
653.5	-8.69
653.533	-13.69
653.566	-10.69
653.599	-0.69
653.632	16.31
653.665	17.31
653.698	14.31
653.731	-2.69
653.764	11.31
653.797	-1.69
653.83	23.31
653.863	12.31
653.896	13.31
653.929	11.31
653.961	7.31
653.994	11.31
654.027	-14.69
654.06	3.31
654.093	13.31
654.126	3.31
654.159	-7.69
654.192	3.31
654.225	7.31
654.258	0.31
654.29	11.31
654.323	8.31
654.356	-6.69
654.389	14.31
654.422	-0.69
654.455	15.31
654.488	12.31
654.521	-11.69
654.553	-5.69
654.586	14.31
654.619	-8.69
654.652	11.31
654.685	24.31
654.718	18.31
654.751	11.31
654.783	3.31
654.816	7.31
654.849	3.31
654.882	-5.69
654.915	10.31
654.948	-8.69
654.98	-1.69
655.013	-4.69
655.046	10.31
655.079	0.31
655.112	9.31
655.144	-9.69
655.177	5.31
655.21	20.31
655.243	4.31
655.276	2.31
655.308	1.31
655.341	-15.69
655.374	6.31
655.407	-4.69
655.44	5.31
655.472	12.31
655.505	6.31
655.538	-15.69
655.571	21.31
655.603	-0.69
655.636	-15.69
655.669	23.31
655.702	13.31
655.734	7.31
655.767	-0.69
655.8	-1.69
655.833	23.31
655.865	4.31
655.898	9.31
655.931	15.31
655.964	17.31
655.996	16.31
656.029	31.31
656.062	40.31
656.095	51.31
656.127	61.31
656.16	183.31
656.193	609.31
656.225	970.31
656.258	557.31
656.291	194.31
656.324	165.31
656.356	348.31
656.389	769.31
656.422	687.31
656.454	228.31
656.487	73.31
656.52	32.31
656.552	17.31
656.585	17.31
656.618	16.31
656.65	14.31
656.683	-6.69
656.716	11.31
656.748	7.31
656.781	5.31
656.814	-3.69
656.846	6.31
656.879	-0.69
656.912	9.31
656.944	-16.69
656.977	9.31
657.01	3.31
657.042	6.31
657.075	14.31
657.108	-14.69
657.14	10.31
657.173	13.31
657.205	36.31
657.238	17.31
657.271	-3.69
657.303	1.31
657.336	8.31
657.369	0.31
657.401	1.31
657.434	-5.69
657.466	-1.69
657.499	-1.69
657.532	3.31
657.564	4.31
657.597	-15.69
657.629	2.31
657.662	-2.69
657.694	6.31
657.727	-15.69
657.76	5.31
657.792	-0.69
657.825	-5.69
657.857	-6.69
657.89	2.31
657.922	23.31
657.955	-12.69
657.987	1.31
658.02	36.31
658.053	28.31
658.085	-0.69
658.118	-17.69
658.15	0.31
658.183	25.31
658.215	-3.69
658.248	-8.69
658.28	8.31
658.313	19.31
658.345	13.31
658.378	1.31
658.41	-0.69
658.443	-2.69
658.475	0.31
658.508	-3.69
658.54	2.31
658.573	-15.69
658.605	0.31
658.638	9.31
658.67	4.31
658.703	-4.69
658.735	-8.69
658.768	-12.69
658.8	-12.69
658.833	32.31
658.865	6.31
658.898	3.31
658.93	0.31
658.963	14.31
658.995	-6.69
659.028	-4.69
659.06	5.31
659.092	0.31
659.125	-20.69
659.157	-1.69
659.19	-4.69
659.222	-2.69
659.255	7.31
659.287	3.31
659.32	-8.69
659.352	2.31
659.384	11.31
659.417	-5.69
659.449	10.31
659.482	11.31
659.514	0.31
659.546	-1.69
659.579	3.31
659.611	7.31
659.644	-0.69
659.676	-5.69
659.708	2.31
659.741	-16.69
659.773	15.31
659.806	12.31
659.838	2.31
659.87	6.31
659.903	-6.69
659.935	-0.69
659.967	2.31
660	5.31
660.032	-23.69
660.065	10.31
660.097	1.31
660.129	-5.69
660.162	-4.69
660.194	14.31
660.226	18.31
660.259	6.31
660.291	-7.69
660.323	12.31
660.356	-6.69
660.388	2.31
660.42	0.31
660.453	5.31
660.485	3.31
660.517	19.31
660.55	-3.69
660.582	7.31
660.614	4.31
660.647	-8.69
660.679	-13.69
660.711	11.31
660.743	-3.69
660.776	-7.69
660.808	-3.69
660.84	2.31
660.873	9.31
660.905	-9.69
660.937	-5.69
660.969	-4.69
661.002	8.31
661.034	10.31
661.066	1.31
661.099	9.31
661.131	12.31
661.163	-4.69
661.195	-2.69
661.228	15.31
661.26	-3.69
661.292	4.31
661.324	11.31
661.357	5.31
661.389	-1.69
661.421	8.31
661.453	-3.69
661.485	11.31
661.518	4.31
661.55	-1.69
661.582	-7.69
661.614	12.31
661.647	12.31
661.679	-8.69
661.711	0.31
661.743	4.31
661.775	5.31
661.808	15.31
661.84	6.31
661.872	10.31
661.904	13.31
661.936	11.31
661.969	-0.69
662.001	9.31
662.033	-5.69
662.065	-4.69
662.097	5.31
662.129	17.31
662.162	-0.69
662.194	16.31
662.226	9.31
662.258	1.31
662.29	0.31
662.322	-9.69
662.355	-9.69
662.387	16.31
662.419	14.31
662.451	17.31
662.483	12.31
662.515	-8.69
662.547	4.31
662.58	-8.69
662.612	1.31
662.644	-15.69
662.676	-0.69
662.708	-0.69
662.74	-6.69
662.772	10.31
662.804	11.31
662.836	3.31
662.869	-0.69
662.901	1.31
662.933	5.31
662.965	12.31
662.997	3.31
663.029	-0.69
663.061	-0.69
663.093	-5.69
663.125	6.31
663.157	13.31
663.189	15.31
663.221	14.31
663.254	4.31
663.286	2.31
663.318	-2.69
663.35	-3.69
663.382	8.31
663.414	12.31
663.446	6.31
663.478	-5.69
663.51	19.31
663.542	-4.69
663.574	10.31
663.606	5.31
663.638	-15.69
663.67	-11.69
663.702	-3.69
663.734	11.31
663.766	20.31
663.798	-8.69
663.83	12.31
663.862	14.31
663.894	21.31
663.926	3.31
663.958	18.31
663.99	5.31
664.022	0.31
664.054	3.31
664.086	-9.69
664.118	-16.69
664.15	-3.69
664.182	8.31
664.214	10.31
664.246	18.31
664.278	7.31
664.31	9.31
664.342	8.31
664.374	7.31
664.406	-0.69
664.438	-8.69
664.47	11.31
664.502	13.31
664.534	0.31
664.566	-7.69
664.598	26.31
664.63	21.31
664.662	-4.69
664.693	-4.69
664.725	-6.69
664.757	3.31
664.789	-13.69
664.821	4.31
664.853	7.31
664.885	7.31
664.917	-1.69
664.949	10.31
664.981	21.31
665.013	13.31
665.045	-12.69
665.076	22.31
665.108	20.31
665.14	13.31
665.172	5.31
665.204	0.31
665.236	-14.69
665.268	2.31
665.3	-14.69
665.331	-4.69
665.363	12.31
665.395	13.31
665.427	-7.69
665.459	12.31
665.491	-6.69
665.523	7.31
665.555	7.31
665.586	9.31
665.618	0.31
665.65	-22.69
665.682	-2.69
665.714	-3.69
665.746	-1.69
665.777	-4.69
665.809	-6.69
665.841	15.31
665.873	-9.69
665.905	4.31
665.937	21.31
665.968	6.31
666	17.31
666.032	6.31
666.064	5.31
666.096	-2.69
666.127	22.31
666.159	13.31
666.191	3.31
666.223	12.31
666.255	1.31
666.286	-0.69
666.318	-1.69
666.35	18.31
666.382	0.31
666.413	-5.69
666.445	-9.69
666.477	-7.69
666.509	7.31
666.54	2.31
666.572	5.31
666.604	19.31
666.636	-0.69
666.667	37.31
666.699	32.31
666.731	21.31
666.763	8.31
666.794	3.31
666.826	-6.69
666.858	-12.69
666.89	13.31
666.921	2.31
666.953	-3.69
666.985	12.31
667.017	24.31
667.048	-8.69
667.08	-3.69
667.112	1.31
667.143	-2.69
667.175	18.31
667.207	15.31
667.238	9.31
667.27	5.31
667.302	13.31
667.334	2.31
667.365	29.31
667.397	1.31
667.429	7.31
667.46	9.31
667.492	9.31
667.524	-3.69
667.555	-3.69
667.587	34.31
667.619	-2.69
667.65	-1.69
667.682	16.31
667.714	2.31
667.745	7.31
667.777	11.31
667.808	16.31
667.84	7.31
667.872	3.31
667.903	10.31
667.935	2.31
667.967	9.31
667.998	8.31
668.03	-3.69
668.061	3.31
668.093	1.31
668.125	12.31
668.156	-1.69
668.188	-8.69
668.22	3.31
668.251	14.31
668.283	7.31
668.314	22.31
668.346	-11.69
668.377	-1.69
668.409	-4.69
668.441	13.31
668.472	3.31
668.504	-16.69
668.535	19.31
668.567	20.31
668.599	10.31
668.63	5.31
668.662	6.31
668.693	19.31
668.725	8.31
668.756	2.31
668.788	1.31
668.819	2.31
668.851	1.31
668.882	-6.69
668.914	-21.69
668.946	-1.69
668.977	-3.69
669.009	2.31
669.04	-17.69
669.072	12.31
669.103	-1.69
669.135	20.31
669.166	-1.69
669.198	15.31
669.229	-8.69
669.261	1.31
669.292	-1.69
669.324	-0.69
669.355	25.31
669.387	0.31
669.418	-1.69
669.45	-8.69
669.481	-3.69
669.513	27.31
669.544	11.31
669.576	-1.69
669.607	12.31
669.639	15.31
669.67	-7.69
669.701	3.31
669.733	-3.69
669.764	7.31
669.796	-0.69
669.827	1.31
669.859	7.31
669.89	14.31
669.922	9.31
669.953	8.31
669.985	0.31
670.016	4.31
670.047	15.31
670.079	3.31
670.11	18.31
670.142	4.31
670.173	6.31
670.204	6.31
670.236	8.31
670.267	-5.69
670.299	-2.69
670.33	0.31
670.362	-1.69
670.393	-6.69
670.424	21.31
670.456	-6.69
670.487	3.31
670.518	1.31
670.55	-5.69
670.581	0.31
670.613	5.31
670.644	-6.69
670.675	-18.69
670.707	2.31
670.738	23.31
670.769	5.31
670.801	-10.69
670.832	22.31
670.864	-2.69
670.895	18.31
670.926	-3.69
670.958	7.31
670.989	-8.69
671.02	-12.69
671.052	2.31
671.083	-9.69
671.114	-2.69
671.146	15.31
671.177	-6.69
671.208	-9.69
671.24	-13.69
671.271	-5.69
671.302	17.31
671.333	-4.69
671.365	-9.69
671.396	3.31
671.427	15.31
671.459	15.31
671.49	3.31
671.521	3.31
671.553	7.31
671.584	13.31
671.615	-5.69
671.646	13.31
671.678	5.31
671.709	6.31
671.74	-16.69
671.771	17.31
671.803	-2.69
671.834	7.31
671.865	8.31
671.896	15.31
671.928	-6.69
671.959	-1.69
671.99	-3.69
672.021	-20.69
672.053	-1.69
672.084	9.31
672.115	9.31
672.146	-5.69
672.178	-10.69
672.209	6.31
672.24	-0.69
672.271	22.31
672.303	6.31
672.334	-7.69
672.365	4.31
672.396	-4.69
672.427	-3.69
672.459	12.31
672.49	30.31
672.521	20.31
672.552	10.31
672.583	3.31
672.615	1.31
672.646	11.31
672.677	3.31
672.708	1.31
672.739	3.31
672.77	13.31
672.802	8.31
672.833	13.31
672.864	15.31
672.895	-4.69
672.926	-14.69
672.957	7.31
672.989	5.31
673.02	-2.69
673.051	2.31
673.082	12.31
673.113	15.31
673.144	16.31
673.175	28.31
673.206	14.31
673.238	6.31
673.269	-3.69
673.3	9.31
673.331	22.31
673.362	15.31
673.393	12.31
673.424	2.31
673.455	9.31
673.487	24.31
673.518	18.31
673.549	6.31
673.58	12.31
673.611	2.31
673.642	0.31
673.673	-17.69
673.704	-3.69
673.735	13.31
673.766	3.31
673.797	-4.69
673.828	15.31
673.86	-1.69
673.891	-4.69
673.922	6.31
673.953	-12.69
673.984	3.31
674.015	19.31
674.046	15.31
674.077	2.31
674.108	8.31
674.139	13.31
674.17	15.31
674.201	-3.69
674.232	-6.69
674.263	0.31
674.294	19.31
674.325	-0.69
674.356	23.31
674.387	6.31
674.418	-4.69
674.449	-9.69
674.48	-5.69
674.511	7.31
674.542	8.31
674.573	-3.69
674.604	18.31
674.635	5.31
674.666	9.31
674.697	2.31
674.728	5.31
674.759	16.31
674.79	2.31
674.821	-3.69
674.852	14.31
674.883	4.31
674.914	-11.69
674.945	2.31
674.976	6.31
675.007	11.31
675.038	-10.69
675.069	-17.69
675.1	-8.69
675.131	13.31
675.162	-8.69
675.193	1.31
675.224	15.31
675.254	8.31
675.285	13.31
675.316	1.31
675.347	0.31
675.378	5.31
675.409	0.31
675.44	9.31
675.471	-3.69
675.502	-1.69
675.533	-7.69
675.564	12.31
675.595	-0.69
675.625	20.31
675.656	11.31
675.687	-6.69
675.718	-20.69
675.749	-2.69
675.78	3.31
675.811	1.31
675.842	11.31
675.873	2.31
675.903	-6.69
675.934	11.31
675.965	-6.69
675.996	6.31
676.027	3.31
676.058	-2.69
676.089	-2.69
676.119	21.31
676.15	16.31
676.181	-12.69
676.212	1.31
676.243	-0.69
676.274	5.31
676.304	16.31
676.335	-18.69
676.366	9.31
676.397	0.31
676.428	-9.69
676.459	19.31
676.489	8.31
676.52	5.31
676.551	10.31
676.582	4.31
676.613	8.31
676.643	-11.69
676.674	13.31
676.705	6.31
676.736	8.31
676.767	22.31
676.797	12.31
676.828	7.31
676.859	7.31
676.89	14.31
676.92	12.31
676.951	16.31
676.982	2.31
677.013	-14.69
677.044	25.31
677.074	-8.69
677.105	-9.69
677.136	13.31
677.167	-1.69
677.197	10.31
677.228	1.31
677.259	6.31
677.289	7.31
677.32	7.31
677.351	-4.69
677.382	-1.69
677.412	-13.69
677.443	14.31
677.474	-1.69
677.505	-8.69
677.535	2.31
677.566	-5.69
677.597	-2.69
677.627	-3.69
677.658	-0.69
677.689	17.31
677.72	8.31
677.75	-3.69
677.781	-1.69
677.812	11.31
677.842	16.31
677.873	7.31
677.904	8.31
677.934	6.31
677.965	-8.69
677.996	-12.69
678.026	8.31
678.057	4.31
678.088	-0.69
678.118	1.31
678.149	1.31
678.18	-12.69
678.21	7.31
678.241	8.31
678.272	-1.69
678.302	6.31
678.333	0.31
678.363	7.31
678.394	11.31
678.425	8.31
678.455	19.31
678.486	15.31
678.517	-0.69
678.547	5.31
678.578	10.31
678.608	2.31
678.639	-1.69
678.67	7.31
678.7	-14.69
678.731	-3.69
678.761	3.31
678.792	13.31
678.823	-3.69
678.853	4.31
678.884	-7.69
678.914	-0.69
678.945	1.31
678.975	-6.69
679.006	9.31
679.037	-8.69
679.067	17.31
679.098	5.31
679.128	5.31
679.159	10.31
679.189	15.31
679.22	4.31
679.25	13.31
679.281	7.31
679.312	0.31
679.342	20.31
679.373	18.31
679.403	3.31
679.434	-7.69
679.464	2.31
679.495	-6.69
679.525	3.31
679.556	-0.69
679.586	15.31
679.617	6.31
679.647	12.31
679.678	13.31
679.708	5.31
679.739	7.31
679.769	6.31
679.8	-7.69
679.83	1.31
679.861	17.31
679.891	11.31
679.922	-0.69
679.952	4.31
679.983	6.31
680.013	7.31
680.044	14.31
680.074	17.31
680.105	16.31
680.135	10.31
680.165	10.31
680.196	0.31
680.226	15.31
680.257	24.31
680.287	11.31
680.318	5.31
680.348	-12.69
680.379	17.31
680.409	-0.69
680.439	4.31
680.47	-4.69
680.5	-3.69
680.531	-1.69
680.561	15.31
680.592	8.31
680.622	25.31
680.652	15.31
680.683	7.31
680.713	-12.69
680.744	-13.69
680.774	-14.69
680.804	15.31
680.835	9.31
680.865	-2.69
680.896	21.31
680.926	12.31
680.956	6.31
680.987	14.31
681.017	-5.69
681.047	-3.69
681.078	7.31
681.108	9.31
681.139	3.31
681.169	16.31
681.199	23.31
681.23	9.31
681.26	2.31
681.29	-4.69
681.321	-8.69
681.351	7.31
681.381	-12.69
681.412	-8.69
681.442	-4.69
681.472	20.31
681.503	11.31
681.533	14.31
681.563	8.31
681.594	1.31
681.624	4.31
681.654	9.31
681.685	18.31
681.715	5.31
681.745	1.31
681.775	0.31
681.806	-6.69
681.836	4.31
681.866	9.31
681.897	-7.69
681.927	-11.69
681.957	9.31
681.987	3.31
682.018	-9.69
682.048	11.31
682.078	1.31
682.109	28.31
682.139	3.31
682.169	10.31
682.199	0.31
682.23	-12.69
682.26	9.31
682.29	11.31
682.32	-8.69
682.351	-15.69
682.381	-4.69
682.411	0.31
682.441	-1.69
682.472	-2.69
682.502	15.31
682.532	2.31
682.562	4.31
682.592	8.31
682.623	9.31
682.653	3.31
682.683	13.31
682.713	8.31
682.743	1.31
682.774	3.31
682.804	16.31
682.834	34.31
682.864	4.31
682.894	-0.69
682.925	2.31
682.955	3.31
682.985	-13.69
683.015	7.31
683.045	16.31
683.076	-4.69
683.106	3.31
683.136	-1.69
683.166	-4.69
683.196	10.31
683.226	-6.69
683.257	-11.69
683.287	-6.69
683.317	-6.69
683.347	-16.69
683.377	-1.69
683.407	13.31
683.437	-1.69
683.468	6.31
683.498	-2.69
683.528	18.31
683.558	4.31
683.588	3.31
683.618	5.31
683.648	6.31
683.678	14.31
683.708	20.31
683.739	9.31
683.769	4.31
683.799	-0.69
683.829	1.31
683.859	8.31
683.889	13.31
683.919	2.31
683.949	14.31
683.979	7.31
684.009	6.31
684.039	10.31
684.07	-8.69
684.1	16.31
684.13	13.31
684.16	-2.69
684.19	-5.69
684.22	4.31
684.25	-12.69
684.28	-4.69
684.31	13.31
684.34	10.31
684.37	9.31
684.4	-3.69
684.43	10.31
684.46	8.31
684.49	8.31
684.52	3.31
684.55	7.31
684.58	3.31
684.61	2.31
684.64	-4.69
684.67	3.31
684.7	0.31
684.73	0.31
684.76	15.31
684.79	24.31
684.82	1.31
684.85	-2.69
684.88	6.31
684.91	10.31
684.94	-0.69
684.97	9.31
685	10.31
685.03	3.31
685.06	-1.69
685.09	0.31
685.12	17.31
685.15	-11.69
685.18	8.31
685.21	3.31
685.24	22.31
685.27	12.31
685.3	24.31
685.33	7.31
685.36	-3.69
685.39	10.31
685.42	-6.69
685.45	11.31
685.48	11.31
685.51	-3.69
685.54	5.31
685.569	11.31
685.599	7.31
685.629	-3.69
685.659	3.31
685.689	6.31
685.719	5.31
685.749	7.31
685.779	7.31
685.809	-6.69
685.839	4.31
685.869	3.31
685.898	15.31
685.928	5.31
685.958	11.31
685.988	15.31
686.018	-8.69
686.048	1.31
686.078	8.31
686.108	35.31
686.137	10.31
686.167	3.31
686.197	-4.69
686.227	14.31
686.257	32.31
686.287	28.31
686.317	7.31
686.346	9.31
686.376	-0.69
686.406	-6.69
686.436	-3.69
686.466	-8.69
686.496	-2.69
686.525	15.31
686.555	-4.69
686.585	19.31
686.615	28.31
686.645	25.31
686.675	8.31
686.704	8.31
686.734	20.31
686.764	-1.69
686.794	11.31
686.824	6.31
686.853	14.31
686.883	-0.69
686.913	24.31
686.943	4.31
686.973	-2.69
687.002	16.31
687.032	11.31
687.062	6.31
687.092	26.31
687.121	-4.69
687.151	-6.69
687.181	15.31
687.211	4.31
687.24	-3.69
687.27	5.31
687.3	8.31
687.33	6.31
687.359	-15.69
687.389	-19.69
687.419	7.31
687.449	-0.69
687.478	4.31
687.508	-8.69
687.538	18.31
687.568	4.31
687.597	4.31
687.627	9.31
687.657	3.31
687.686	9.31
687.716	36.31
687.746	2.31
687.776	-7.69
687.805	1.31
687.835	0.31
687.865	29.31
687.894	14.31
687.924	11.31
687.954	-12.69
687.983	10.31
688.013	22.31
688.043	20.31
688.072	-0.69
688.102	1.31
688.132	5.31
688.161	15.31
688.191	-5.69
688.221	18.31
688.25	6.31
688.28	12.31
688.31	3.31
688.339	23.31
688.369	-7.69
688.399	-3.69
688.428	-8.69
688.458	7.31
688.488	-13.69
688.517	14.31
688.547	13.31
688.576	27.31
688.606	23.31
688.636	-4.69
688.665	14.31
688.695	18.31
688.725	11.31
688.754	7.31
688.784	8.31
688.813	7.31
688.843	2.31
688.873	6.31
688.902	10.31
688.932	8.31
688.961	13.31
688.991	6.31
689.02	20.31
689.05	-1.69
689.08	9.31
689.109	17.31
689.139	3.31
689.168	11.31
689.198	-2.69
689.227	4.31
689.257	7.31
689.287	9.31
689.316	-1.69
689.346	-15.69
689.375	-3.69
689.405	10.31
689.434	-0.69
689.464	8.31
689.493	-3.69
689.523	-13.69
689.552	-2.69
689.582	9.31
689.611	14.31
689.641	-11.69
689.67	-1.69
689.7	0.31
689.73	20.31
689.759	-0.69
689.789	15.31
689.818	16.31
689.848	0.31
689.877	2.31
689.906	-8.69
689.936	0.31
689.965	15.31
689.995	10.31
690.024	16.31
690.054	-4.69
690.083	-4.69
690.113	-7.69
690.142	12.31
690.172	7.31
690.201	12.31
690.231	-1.69
690.26	19.31
690.29	20.31
690.319	7.31
690.348	-5.69
690.378	-1.69
690.407	14.31
690.437	9.31
690.466	1.31
690.496	-4.69
690.525	7.31
690.555	27.31
690.584	11.31
690.613	1.31
690.643	14.31
690.672	14.31
690.702	4.31
690.731	0.31
690.76	8.31
690.79	4.31
690.819	2.31
690.849	4.31
690.878	2.31
690.907	3.31
690.937	4.31
690.966	6.31
690.996	2.31
691.025	1.31
691.054	-6.69
691.084	-0.69
691.113	12.31
691.142	16.31
691.172	7.31
691.201	15.31
691.23	8.31
691.26	15.31
691.289	7.31
691.319	6.31
691.348	13.31
691.377	18.31
691.407	2.31
691.436	7.31
691.465	18.31
691.495	-2.69
691.524	-7.69
691.553	6.31
691.583	-8.69
691.612	20.31
691.641	2.31
691.67	-8.69
691.7	4.31
691.729	-20.69
691.758	4.31
691.788	10.31
691.817	4.31
691.846	0.31
691.876	7.31
691.905	-4.69
691.934	-2.69
691.963	10.31
691.993	6.31
692.022	-3.69
692.051	-7.69
692.081	24.31
692.11	24.31
692.139	23.31
692.168	21.31
692.198	17.31
692.227	6.31
692.256	13.31
692.285	4.31
692.315	-0.69
692.344	15.31
692.373	4.31
692.402	-10.69
692.432	-7.69
692.461	1.31
692.49	25.31
692.519	5.31
692.548	13.31
692.578	20.31
692.607	-1.69
692.636	2.31
692.665	14.31
692.694	5.31
692.724	0.31
692.753	13.31
692.782	12.31
692.811	-6.69
692.84	-6.69
692.87	-6.69
692.899	20.31
692.928	12.31
692.957	10.31
692.986	10.31
693.016	7.31
693.045	12.31
693.074	8.31
693.103	15.31
693.132	12.31
693.161	16.31
693.191	-5.69
693.22	-12.69
693.249	6.31
693.278	-9.69
693.307	7.31
693.336	-18.69
693.365	-4.69
693.395	4.31
693.424	9.31
693.453	19.31
693.482	14.31
693.511	1.31
693.54	10.31
693.569	2.31
693.598	-0.69
693.628	13.31
693.657	9.31
693.686	23.31
693.715	22.31
693.744	2.31
693.773	33.31
693.802	4.31
693.831	-4.69
693.86	27.31
693.889	1.31
693.919	21.31
693.948	11.31
693.977	18.31
694.006	5.31
694.035	4.31
694.064	1.31
694.093	-2.69
694.122	3.31
694.151	4.31
694.18	6.31
694.209	19.31
694.238	18.31
694.267	29.31
694.296	12.31
694.325	1.31
694.354	5.31
694.383	0.31
694.412	0.31
694.441	6.31
694.471	-14.69
694.5	-3.69
694.529	-0.69
694.558	11.31
694.587	14.31
694.616	1.31
694.645	-2.69
694.674	9.31
694.703	19.31
694.732	9.31
694.761	6.31
694.79	17.31
694.819	2.31
694.848	8.31
694.877	24.31
694.906	31.31
694.935	18.31
694.963	29.31
694.992	-2.69
695.021	10.31
695.05	15.31
695.079	-4.69
695.108	5.31
695.137	28.31
695.166	24.31
695.195	17.31
695.224	22.31
695.253	9.31
695.282	9.31
695.311	11.31
695.34	8.31
695.369	9.31
695.398	0.31
695.427	18.31
695.456	3.31
695.485	3.31
695.513	3.31
695.542	0.31
695.571	10.31
695.6	31.31
695.629	10.31
695.658	5.31
695.687	3.31
695.716	3.31
695.745	19.31
695.774	0.31
695.802	-1.69
695.831	11.31
695.86	6.31
695.889	18.31
695.918	13.31
695.947	3.31
695.976	13.31
696.005	-2.69
696.033	12.31
696.062	37.31
696.091	9.31
696.12	17.31
696.149	26.31
696.178	10.31
696.207	15.31
696.235	-6.69
696.264	20.31
696.293	5.31
696.322	7.31
696.351	16.31
696.38	4.31
696.408	11.31
696.437	1.31
696.466	19.31
696.495	21.31
696.524	13.31
696.553	4.31
696.581	13.31
696.61	4.31
696.639	0.31
696.668	13.31
696.697	14.31
696.725	25.31
696.754	11.31
696.783	4.31
696.812	2.31
696.84	17.31
696.869	15.31
696.898	18.31
696.927	0.31
696.956	10.31
696.984	-4.69
697.013	6.31
697.042	8.31
697.071	25.31
697.099	16.31
697.128	15.31
697.157	22.31
697.186	-8.69
697.214	3.31
697.243	11.31
697.272	20.31
697.301	34.31
697.329	16.31
697.358	17.31
697.387	34.31
697.415	23.31
697.444	7.31
697.473	10.31
697.502	9.31
697.53	8.31
697.559	2.31
697.588	6.31
697.616	-2.69
697.645	3.31
697.674	6.31
697.703	9.31
697.731	13.31
697.76	19.31
697.789	7.31
697.817	10.31
697.846	27.31
697.875	10.31
697.903	16.31
697.932	20.31
697.961	20.31
697.989	12.31
698.018	25.31
698.047	11.31
698.075	17.31
698.104	8.31
698.133	-4.69
698.161	-2.69
698.19	13.31
698.218	4.31
698.247	12.31
698.276	15.31
698.304	22.31
698.333	10.31
698.362	15.31
698.39	24.31
698.419	15.31
698.447	-8.69
698.476	5.31
698.505	19.31
698.533	12.31
698.562	11.31
698.591	-12.69
698.619	-0.69
698.648	8.31
698.676	10.31
698.705	4.31
698.733	-2.69
698.762	12.31
698.791	12.31
698.819	21.31
698.848	13.31
698.876	18.31
698.905	4.31
698.933	23.31
698.962	7.31
698.991	8.31
699.019	21.31
699.048	6.31
699.076	14.31
699.105	4.31
699.133	4.31
699.162	12.31
699.19	31.31
699.219	19.31
699.248	2.31
699.276	10.31
699.305	0.31
699.333	29.31
699.362	0.31
699.39	12.31
699.419	3.31
699.447	13.31
699.476	27.31
699.504	1.31
699.533	22.31
699.561	-8.69
699.59	12.31
699.618	2.31
699.647	20.31
699.675	4.31
699.704	31.31
699.732	15.31
699.761	21.31
699.789	4.31
699.818	8.31
699.846	8.31
699.874	-1.69
699.903	13.31
699.931	0.31
699.96	12.31
699.988	17.31
700.017	-9.69
700.045	1.31
700.074	9.31
700.102	14.31
700.13	-0.69
700.159	8.31
700.187	8.31
700.216	-0.69
700.244	6.31
700.273	7.31
700.301	9.31
700.329	-3.69
700.358	16.31
700.386	-1.69
700.415	5.31
700.443	-0.69
700.472	15.31
700.5	13.31
700.528	12.31
700.557	5.31
700.585	5.31
700.614	18.31
700.642	9.31
700.67	20.31
700.699	7.31
700.727	6.31
700.755	8.31
700.784	-9.69
700.812	1.31
700.841	11.31
700.869	10.31
700.897	-10.69
700.926	0.31
700.954	24.31
700.982	6.31
701.011	-8.69
701.039	17.31
701.067	9.31
701.096	10.31
701.124	5.31
701.152	14.31
701.181	11.31
701.209	4.31
701.237	12.31
701.266	0.31
701.294	-25.69
701.322	1.31
701.351	12.31
701.379	8.31
701.407	4.31
701.435	14.31
701.464	10.31
701.492	11.31
701.52	-0.69
701.549	-5.69
701.577	-18.69
701.605	-7.69
701.634	5.31
701.662	26.31
701.69	-8.69
701.718	5.31
701.747	4.31
701.775	14.31
701.803	-0.69
701.831	3.31
701.86	-6.69
701.888	2.31
701.916	13.31
701.944	12.31
701.973	10.31
702.001	4.31
702.029	-1.69
702.057	-5.69
702.086	-10.69
702.114	-1.69
702.142	-12.69
702.17	-1.69
702.199	5.31
702.227	5.31
702.255	27.31
702.283	28.31
702.311	-3.69
702.34	8.31
702.368	-11.69
702.396	16.31
702.424	20.31
702.452	1.31
702.481	-0.69
702.509	-20.69
702.537	13.31
702.565	3.31
702.593	-6.69
702.621	20.31
702.65	18.31
702.678	8.31
702.706	11.31
702.734	6.31
702.762	24.31
702.79	9.31
702.819	16.31
702.847	-3.69
702.875	18.31
702.903	18.31
702.931	7.31
702.959	-2.69
702.988	3.31
703.016	-8.69
703.044	-5.69
703.072	7.31
703.1	7.31
703.128	5.31
703.156	11.31
703.184	0.31
703.212	14.31
703.241	7.31
703.269	11.31
703.297	15.31
703.325	10.31
703.353	7.31
703.381	-4.69
703.409	9.31
703.437	-5.69
703.465	-0.69
703.493	-3.69
703.522	10.31
703.55	21.31
703.578	12.31
703.606	10.31
703.634	-1.69
703.662	-8.69
703.69	8.31
703.718	5.31
703.746	14.31
703.774	15.31
703.802	35.31
703.83	17.31
703.858	-2.69
703.886	-11.69
703.914	-0.69
703.942	8.31
703.97	-0.69
703.998	-1.69
704.027	11.31
704.055	19.31
704.083	7.31
704.111	6.31
704.139	-7.69
704.167	-3.69
704.195	4.31
704.223	1.31
704.251	7.31
704.279	17.31
704.307	10.31
704.335	-6.69
704.363	-3.69
704.391	2.31
704.419	4.31
704.447	3.31
704.475	12.31
704.503	9.31
704.531	24.31
704.558	8.31
704.586	1.31
704.614	-0.69
704.642	2.31
704.67	-13.69
704.698	-5.69
704.726	3.31
704.754	14.31
704.782	7.31
704.81	18.31
704.838	22.31
704.866	11.31
704.894	-7.69
704.922	-2.69
704.95	-5.69
704.978	13.31
705.006	2.31
705.034	11.31
705.061	-2.69
705.089	6.31
705.117	1.31
705.145	11.31
705.173	19.31
705.201	13.31
705.229	19.31
705.257	17.31
705.285	10.31
705.313	3.31
705.34	9.31
705.368	-11.69
705.396	11.31
705.424	7.31
705.452	7.31
705.48	9.31
705.508	-6.69
705.536	3.31
705.563	-0.69
705.591	24.31
705.619	3.31
705.647	-3.69
705.675	2.31
705.703	-2.69
705.731	-19.69
705.758	13.31
705.786	14.31
705.814	27.31
705.842	12.31
705.87	6.31
705.898	24.31
705.925	0.31
705.953	1.31
705.981	2.31
706.009	2.31
706.037	8.31
706.065	2.31
706.092	3.31
706.12	-11.69
706.148	-9.69
706.176	-0.69
706.204	4.31
706.231	10.31
706.259	1.31
706.287	-2.69
706.315	1.31
706.342	5.31
706.37	26.31
706.398	14.31
706.426	1.31
706.454	2.31
706.481	3.31
706.509	1.31
706.537	9.31
706.565	-0.69
706.592	3.31
706.62	-6.69
706.648	15.31
706.676	0.31
706.703	21.31
706.731	-5.69
706.759	-16.69
706.787	10.31
706.814	5.31
706.842	-0.69
706.87	0.31
706.897	7.31
706.925	0.31
706.953	23.31
706.981	18.31
707.008	2.31
707.036	7.31
707.064	-3.69
707.091	3.31
707.119	11.31
707.147	14.31
707.174	4.31
707.202	13.31
707.23	-6.69
707.258	7.31
707.285	-13.69
707.313	-10.69
707.341	-3.69
707.368	-6.69
707.396	0.31
707.424	7.31
707.451	-8.69
707.479	-1.69
707.507	6.31
707.534	-3.69
707.562	12.31
707.59	3.31
707.617	3.31
707.645	1.31
707.672	-13.69
707.7	-0.69
707.728	3.31
707.755	6.31
707.783	2.31
707.811	1.31
707.838	6.31
707.866	17.31
707.893	-7.69
707.921	5.31
707.949	3.31
707.976	12.31
708.004	6.31
708.031	-0.69
708.059	-5.69
708.087	-3.69
708.114	-8.69
708.142	-11.69
708.169	0.31
708.197	6.31
708.225	9.31
708.252	-6.69
708.28	8.31
708.307	2.31
708.335	0.31
708.362	-5.69
708.39	-14.69
708.418	3.31
708.445	-6.69
708.473	-20.69
708.5	-5.69
708.528	6.31
708.555	1.31
708.583	-5.69
708.61	-6.69
708.638	7.31
708.665	-15.69
708.693	-0.69
708.72	-8.69
708.748	-4.69
708.776	10.31
708.803	18.31
708.831	18.31
708.858	12.31
708.886	6.31
708.913	6.31
708.941	-5.69
708.968	9.31
708.996	-8.69
709.023	33.31
709.051	-0.69
709.078	0.31
709.105	2.31
709.133	3.31
709.16	8.31
709.188	13.31
709.215	6.31
709.243	10.31
709.27	3.31
709.298	-3.69
709.325	4.31
709.353	4.31
709.38	-3.69
709.408	14.31
709.435	-2.69
709.462	-0.69
709.49	16.31
709.517	-2.69
709.545	3.31
709.572	-9.69
709.6	-1.69
709.627	2.31
709.655	-5.69
709.682	-3.69
709.709	-3.69
709.737	-12.69
709.764	-4.69
709.792	8.31
709.819	7.31
709.846	5.31
709.874	0.31
709.901	16.31
709.929	11.31
709.956	7.31
709.983	0.31
710.011	-5.69
710.038	-0.69
710.066	8.31
710.093	23.31
710.12	1.31
710.148	-0.69
710.175	-5.69
710.202	4.31
710.23	10.31
710.257	-4.69
710.284	0.31
710.312	0.31
710.339	6.31
710.366	14.31
710.394	8.31
710.421	0.31
710.448	-1.69
710.476	-18.69
710.503	14.31
710.53	19.31
710.558	16.31
710.585	7.31
710.612	9.31
710.64	-0.69
710.667	4.31
710.694	3.31
710.722	1.31
710.749	4.31
710.776	13.31
710.804	25.31
710.831	-6.69
710.858	0.31
710.885	6.31
710.913	8.31
710.94	19.31
710.967	6.31
710.995	0.31
711.022	-8.69
711.049	-5.69
711.076	-3.69
711.104	8.31
711.131	-1.69
711.158	23.31
711.185	8.31
711.213	-5.69
711.24	6.31
711.267	-1.69
711.294	-7.69
711.322	-2.69
711.349	0.31
711.376	-3.69
711.403	7.31
711.431	-9.69
711.458	-1.69
711.485	1.31
711.512	-2.69
711.54	-6.69
711.567	9.31
711.594	1.31
711.621	-7.69
711.648	-5.69
711.676	14.31
711.703	9.31
711.73	-19.69
711.757	15.31
711.784	10.31
711.812	-4.69
711.839	19.31
711.866	-7.69
711.893	-0.69
711.92	10.31
711.947	4.31
711.975	14.31
712.002	-5.69
712.029	8.31
712.056	6.31
712.083	22.31
712.11	0.31
712.138	8.31
712.165	15.31
712.192	-1.69
712.219	2.31
712.246	9.31
712.273	-1.69
712.3	-2.69
712.328	-5.69
712.355	2.31
712.382	-4.69
712.409	11.31
712.436	-13.69
712.463	9.31
712.49	7.31
712.517	-1.69
712.544	-4.69
712.572	-1.69
712.599	-2.69
712.626	5.31
712.653	3.31
712.68	-2.69
712.707	10.31
712.734	7.31
712.761	0.31
712.788	0.31
712.815	-3.69
712.842	14.31
712.87	-6.69
712.897	-15.69
712.924	-3.69
712.951	5.31
712.978	13.31
713.005	31.31
713.032	24.31
713.059	15.31
713.086	-3.69
713.113	-6.69
713.14	0.31
713.167	9.31
713.194	-4.69
713.221	5.31
713.248	7.31
713.275	2.31
713.302	-4.69
713.329	9.31
713.356	9.31
713.383	6.31
713.41	20.31
713.437	3.31
713.464	7.31
713.491	13.31
713.518	12.31
713.545	5.31
713.572	6.31
713.599	7.31
713.626	5.31
713.653	2.31
713.68	7.31
713.707	9.31
713.734	19.31
713.761	4.31
713.788	11.31
713.815	10.31
713.842	-0.69
713.869	-12.69
713.896	7.31
713.923	7.31
713.95	2.31
713.977	2.31
714.004	-1.69
714.031	-7.69
714.058	1.31
714.085	2.31
714.112	15.31
714.139	-4.69
714.165	6.31
714.192	0.31
714.219	12.31
714.246	20.31
714.273	10.31
714.3	-1.69
714.327	7.31
714.354	10.31
714.381	1.31
714.408	6.31
714.435	5.31
714.461	2.31
714.488	9.31
714.515	-3.69
714.542	-11.69
714.569	3.31
714.596	-13.69
714.623	-1.69
714.65	-5.69
714.677	8.31
714.703	1.31
714.73	10.31
714.757	7.31
714.784	-0.69
714.811	-17.69
714.838	9.31
714.865	0.31
714.891	10.31
714.918	14.31
714.945	-4.69
714.972	-1.69
714.999	8.31
715.026	2.31
715.052	11.31
715.079	4.31
715.106	0.31
715.133	0.31
715.16	-8.69
715.187	9.31
715.213	13.31
715.24	-4.69
715.267	10.31
715.294	2.31
715.321	10.31
715.347	17.31
715.374	0.31
715.401	-0.69
715.428	16.31
715.455	8.31
715.481	-7.69
715.508	13.31
715.535	7.31
715.562	26.31
715.588	14.31
715.615	12.31
715.642	0.31
715.669	16.31
715.695	-3.69
715.722	-0.69
715.749	-1.69
715.776	9.31
715.802	-12.69
715.829	-0.69
715.856	-7.69
715.883	23.31
715.909	7.31
715.936	5.31
715.963	13.31
715.99	0.31
716.016	15.31
716.043	4.31
716.07	0.31
716.096	0.31
716.123	3.31
716.15	16.31
716.177	13.31
716.203	6.31
716.23	21.31
716.257	6.31
716.283	14.31
716.31	6.31
716.337	14.31
716.363	-5.69
716.39	1.31
716.417	32.31
716.443	7.31
716.47	7.31
716.497	13.31
716.523	1.31
716.55	8.31
716.577	22.31
716.603	12.31
716.63	20.31
716.657	20.31
716.683	11.31
716.71	8.31
716.737	-0.69
716.763	16.31
716.79	18.31
716.817	15.31
716.843	10.31
716.87	3.31
716.897	-3.69
716.923	16.31
716.95	1.31
716.976	-8.69
717.003	-6.69
717.03	11.31
717.056	4.31
717.083	-12.69
717.109	-1.69
717.136	11.31
717.163	3.31
717.189	9.31
717.216	12.31
717.242	7.31
717.269	14.31
717.296	4.31
717.322	14.31
717.349	15.31
717.375	13.31
717.402	-1.69
717.428	-4.69
717.455	1.31
717.481	9.31
717.508	11.31
717.535	-0.69
717.561	5.31
717.588	2.31
717.614	11.31
717.641	11.31
717.667	7.31
717.694	4.31
717.72	1.31
717.747	-1.69
717.773	3.31
717.8	9.31
717.826	15.31
717.853	-3.69
717.88	-4.69
717.906	8.31
717.933	14.31
717.959	4.31
717.986	8.31
718.012	2.31
718.039	21.31
718.065	15.31
718.092	15.31
718.118	2.31
718.144	-4.69
718.171	2.31
718.197	26.31
718.224	-3.69
718.25	20.31
718.277	2.31
718.303	1.31
718.33	-5.69
718.356	1.31
718.383	-18.69
718.409	0.31
718.436	-1.69
718.462	6.31
718.489	5.31
718.515	14.31
718.541	17.31
718.568	7.31
718.594	2.31
718.621	8.31
718.647	14.31
718.674	10.31
718.7	10.31
718.726	2.31
718.753	-2.69
718.779	6.31
718.806	4.31
718.832	-4.69
718.858	7.31
718.885	0.31
718.911	0.31
718.938	25.31
718.964	-0.69
718.99	-12.69
719.017	2.31
719.043	-4.69
719.07	15.31
719.096	-16.69
719.122	25.31
719.149	5.31
719.175	0.31
719.201	24.31
719.228	6.31
719.254	4.31
719.281	3.31
719.307	2.31
719.333	-4.69
719.36	30.31
719.386	17.31
719.412	4.31
719.439	2.31
719.465	7.31
719.491	-15.69
719.518	13.31
719.544	12.31
719.57	12.31
719.597	7.31
719.623	2.31
719.649	19.31
719.675	10.31
719.702	-0.69
719.728	15.31
719.754	-3.69
719.781	2.31
719.807	13.31
719.833	6.31
719.86	-5.69
719.886	-15.69
719.912	7.31
719.938	2.31
719.965	11.31
719.991	18.31
720.017	8.31
720.044	0.31
720.07	3.31
720.096	2.31
720.122	-0.69
720.149	38.31
720.175	26.31
720.201	11.31
720.227	16.31
720.254	19.31
720.28	8.31
720.306	-0.69
720.332	0.31
720.359	5.31
720.385	5.31
720.411	1.31
720.437	4.31
720.463	-0.69
720.49	9.31
720.516	6.31
720.542	12.31
720.568	9.31
720.595	16.31
720.621	6.31
720.647	16.31
720.673	27.31
720.699	14.31
720.725	5.31
720.752	16.31
720.778	20.31
720.804	10.31
720.83	10.31
720.856	8.31
720.883	4.31
720.909	6.31
720.935	3.31
720.961	15.31
720.987	-8.69
721.013	5.31
721.04	6.31
721.066	-0.69
721.092	6.31
721.118	26.31
721.144	7.31
721.17	-1.69
721.196	6.31
721.223	3.31
721.249	4.31
721.275	22.31
721.301	-3.69
721.327	15.31
721.353	8.31
721.379	4.31
721.405	11.31
721.432	12.31
721.458	3.31
721.484	21.31
721.51	0.31
721.536	7.31
721.562	-3.69
721.588	8.31
721.614	-0.69
721.64	-0.69
721.666	-0.69
721.693	-6.69
721.719	-13.69
721.745	2.31
721.771	14.31
721.797	8.31
721.823	10.31
721.849	24.31
721.875	13.31
721.901	4.31
721.927	-7.69
721.953	-7.69
721.979	31.31
722.005	10.31
722.031	7.31
722.057	16.31
722.083	3.31
722.109	23.31
722.135	12.31
722.161	18.31
722.187	-5.69
722.214	-1.69
722.24	-3.69
722.266	6.31
722.292	6.31
722.318	17.31
722.344	16.31
722.37	14.31
722.396	7.31
722.422	0.31
722.448	0.31
722.474	-4.69
722.5	25.31
722.526	8.31
722.552	2.31
722.578	-2.69
722.603	17.31
722.629	-8.69
722.655	6.31
722.681	0.31
722.707	8.31
722.733	5.31
722.759	1.31
722.785	8.31
722.811	7.31
722.837	10.31
722.863	2.31
722.889	26.31
722.915	-3.69
722.941	0.31
722.967	13.31
722.993	9.31
723.019	0.31
723.045	24.31
723.071	8.31
723.097	10.31
723.122	12.31
723.148	10.31
723.174	1.31
723.2	3.31
723.226	17.31
723.252	2.31
723.278	1.31
723.304	-1.69
723.33	11.31
723.356	-4.69
723.381	-11.69
723.407	-11.69
723.433	26.31
723.459	2.31
723.485	-1.69
723.511	-1.69
723.537	-9.69
723.563	2.31
723.588	-11.69
723.614	5.31
723.64	11.31
723.666	15.31
723.692	8.31
723.718	-4.69
723.744	6.31
723.769	9.31
723.795	3.31
723.821	-4.69
723.847	-7.69
723.873	4.31
723.899	6.31
723.924	7.31
723.95	13.31
723.976	9.31
724.002	2.31
724.028	4.31
724.053	18.31
724.079	15.31
724.105	4.31
724.131	3.31
724.157	16.31
724.182	23.31
724.208	3.31
724.234	-5.69
724.26	5.31
724.286	9.31
724.311	2.31
724.337	-5.69
724.363	7.31
724.389	4.31
724.415	0.31
724.44	20.31
724.466	2.31
724.492	2.31
724.518	4.31
724.543	3.31
724.569	2.31
724.595	13.31
724.621	7.31
724.646	-0.69
724.672	-0.69
724.698	-4.69
724.723	4.31
724.749	15.31
724.775	19.31
724.801	20.31
724.826	2.31
724.852	2.31
724.878	-4.69
724.904	-2.69
724.929	14.31
724.955	-1.69
724.981	17.31
725.006	6.31
725.032	8.31
725.058	13.31
725.083	-4.69
725.109	3.31
725.135	12.31
725.161	4.31
725.186	2.31
725.212	2.31
725.238	13.31
725.263	9.31
725.289	-7.69
725.315	4.31
725.34	-1.69
725.366	13.31
725.392	5.31
725.417	10.31
725.443	11.31
725.468	24.31
725.494	16.31
725.52	4.31
725.545	4.31
725.571	11.31
725.597	6.31
725.622	14.31
725.648	3.31
725.674	16.31
725.699	8.31
725.725	7.31
725.75	28.31
725.776	-23.69
725.802	17.31
725.827	27.31
725.853	9.31
725.878	2.31
725.904	5.31
725.93	3.31
725.955	-9.69
725.981	7.31
726.006	3.31
726.032	26.31
726.057	-2.69
726.083	-0.69
726.109	7.31
726.134	4.31
726.16	13.31
726.185	6.31
726.211	-6.69
726.236	16.31
726.262	-2.69
726.288	1.31
726.313	13.31
726.339	17.31
726.364	11.31
726.39	8.31
726.415	16.31
726.441	8.31
726.466	2.31
726.492	18.31
726.517	17.31
726.543	8.31
726.568	-3.69
726.594	8.31
726.619	8.31
726.645	11.31
726.67	11.31
726.696	7.31
726.721	4.31
726.747	-7.69
726.772	4.31
726.798	9.31
726.823	12.31
726.849	9.31
726.874	6.31
726.9	23.31
726.925	19.31
726.951	18.31
726.976	0.31
727.002	9.31
727.027	7.31
727.053	22.31
727.078	21.31
727.104	10.31
727.129	-15.69
727.155	-3.69
727.18	11.31
727.205	8.31
727.231	0.31
727.256	-0.69
727.282	8.31
727.307	15.31
727.333	-5.69
727.358	3.31
727.383	1.31
727.409	-9.69
727.434	1.31
727.46	-13.69
727.485	-11.69
727.511	11.31
727.536	-6.69
727.561	-1.69
727.587	-3.69
727.612	-9.69
727.637	-6.69
727.663	0.31
727.688	26.31
727.714	15.31
727.739	-8.69
727.764	-1.69
727.79	7.31
727.815	14.31
727.841	17.31
727.866	11.31
727.891	-7.69
727.917	0.31
727.942	-7.69
727.967	-0.69
727.993	-1.69
728.018	1.31
728.043	0.31
728.069	15.31
728.094	6.31
728.119	15.31
728.145	11.31
728.17	-2.69
728.195	7.31
728.221	2.31
728.246	-7.69
728.271	-11.69
728.297	-3.69
728.322	1.31
728.347	14.31
728.373	5.31
728.398	17.31
728.423	6.31
728.448	-0.69
728.474	12.31
728.499	23.31
728.524	-1.69
728.55	4.31
728.575	-1.69
728.6	-2.69
728.625	-7.69
728.651	-9.69
728.676	-11.69
728.701	-2.69
728.727	10.31
728.752	3.31
728.777	-16.69
728.802	-0.69
728.828	10.31
728.853	3.31
728.878	8.31
728.903	-0.69
728.929	-8.69
728.954	-4.69
728.979	15.31
729.004	8.31
729.03	2.31
729.055	3.31
729.08	-3.69
729.105	2.31
729.13	16.31
729.156	13.31
729.181	4.31
729.206	-3.69
729.231	-4.69
729.256	9.31
729.282	11.31
729.307	-5.69
729.332	-2.69
729.357	2.31
729.382	4.31
729.408	13.31
729.433	14.31
729.458	15.31
729.483	8.31
729.508	32.31
729.533	4.31
729.559	3.31
729.584	-3.69
729.609	10.31
729.634	27.31
729.659	2.31
729.684	-2.69
729.71	19.31
729.735	1.31
729.76	-4.69
729.785	1.31
729.81	-3.69
729.835	6.31
729.86	-1.69
729.886	10.31
729.911	7.31
729.936	3.31
729.961	10.31
729.986	-20.69
730.011	-11.69
730.036	3.31
730.061	14.31
730.086	6.31
730.112	-7.69
730.137	12.31
730.162	4.31
730.187	-7.69
730.212	5.31
730.237	6.31
730.262	-1.69
730.287	11.31
730.312	28.31
730.337	0.31
730.362	20.31
730.387	7.31
730.413	6.31
730.438	8.31
730.463	9.31
730.488	8.31
730.513	2.31
730.538	-2.69
730.563	18.31
730.588	10.31
730.613	14.31
730.638	0.31
730.663	-3.69
730.688	18.31
730.713	11.31
730.738	3.31
730.763	-4.69
730.788	-1.69
730.813	10.31
730.838	-5.69
730.863	-6.69
730.888	6.31
730.913	-13.69
730.938	-0.69
730.963	8.31
730.988	3.31
731.013	7.31
731.038	-5.69
731.063	1.31
731.088	10.31
731.113	12.31
731.138	17.31
731.163	17.31
731.188	2.31
731.213	15.31
731.238	10.31
731.263	-8.69
731.288	-25.69
731.313	-6.69
731.338	-4.69
731.363	0.31
731.388	2.31
731.413	-0.69
731.438	-0.69
731.463	4.31
731.487	16.31
731.512	1.31
731.537	-5.69
731.562	4.31
731.587	16.31
731.612	4.31
731.637	-11.69
731.662	-10.69
731.687	3.31
731.712	4.31
731.737	18.31
731.762	13.31
731.786	20.31
731.811	1.31
731.836	-3.69
731.861	17.31
731.886	12.31
731.911	7.31
731.936	3.31
731.961	1.31
731.986	0.31
732.01	13.31
732.035	-1.69
732.06	3.31
732.085	1.31
732.11	8.31
732.135	3.31
732.16	15.31
732.184	8.31
732.209	-0.69
732.234	19.31
732.259	10.31
732.284	7.31
732.309	2.31
732.334	10.31
732.358	-13.69
732.383	-7.69
732.408	-4.69
732.433	1.31
732.458	20.31
732.482	9.31
732.507	1.31
732.532	1.31
732.557	6.31
732.582	-2.69
732.607	3.31
732.631	-16.69
732.656	-5.69
732.681	-2.69
732.706	-4.69
732.73	-0.69
732.755	2.31
732.78	-11.69
732.805	7.31
732.83	2.31
732.854	4.31
732.879	18.31
732.904	15.31
732.929	4.31
732.953	6.31
732.978	1.31
733.003	6.31
733.028	10.31
733.052	23.31
733.077	7.31
733.102	22.31
733.127	3.31
733.151	6.31
733.176	11.31
733.201	17.31
733.226	4.31
733.25	18.31
733.275	0.31
733.3	4.31
733.324	22.31
733.349	13.31
733.374	14.31
733.399	0.31
733.423	0.31
733.448	7.31
733.473	0.31
733.497	22.31
733.522	-6.69
733.547	25.31
733.571	14.31
733.596	7.31
733.621	11.31
733.646	-1.69
733.67	7.31
733.695	-11.69
733.72	13.31
733.744	11.31
733.769	8.31
733.794	20.31
733.818	23.31
733.843	0.31
733.867	-2.69
733.892	0.31
733.917	2.31
733.941	-0.69
733.966	-1.69
733.991	9.31
734.015	31.31
734.04	11.31
734.065	16.31
734.089	31.31
734.114	-6.69
734.138	22.31
734.163	-8.69
734.188	15.31
734.212	15.31
734.237	10.31
734.261	10.31
734.286	7.31
734.311	-5.69
734.335	14.31
734.36	2.31
734.384	-2.69
734.409	14.31
734.434	4.31
734.458	15.31
734.483	5.31
734.507	-9.69
734.532	3.31
734.556	16.31
734.581	0.31
734.606	1.31
734.63	-5.69
734.655	0.31
734.679	6.31
734.704	3.31
734.728	-3.69
734.753	-13.69
734.777	7.31
734.802	7.31
734.826	16.31
734.851	-3.69
734.876	9.31
734.9	10.31
734.925	2.31
734.949	5.31
734.974	6.31
734.998	3.31
735.023	-5.69
735.047	-12.69
735.072	16.31
735.096	4.31
735.121	9.31
735.145	10.31
735.17	15.31
735.194	11.31
735.219	3.31
735.243	6.31
735.268	12.31
735.292	0.31
735.317	0.31
735.341	11.31
735.365	-22.69
735.39	5.31
735.414	1.31
735.439	18.31
735.463	-8.69
735.488	1.31
735.512	0.31
735.537	10.31
735.561	12.31
735.586	3.31
735.61	16.31
735.634	-5.69
735.659	7.31
735.683	18.31
735.708	-8.69
735.732	-5.69
735.757	1.31
735.781	-8.69
735.805	11.31
735.83	8.31
735.854	0.31
735.879	12.31
735.903	21.31
735.927	30.31
735.952	22.31
735.976	0.31
736.001	3.31
736.025	-1.69
736.049	6.31
736.074	1.31
736.098	3.31
736.123	0.31
736.147	4.31
736.171	12.31
736.196	14.31
736.22	-0.69
736.244	-2.69
736.269	12.31
736.293	14.31
736.317	13.31
736.342	3.31
736.366	14.31
736.39	10.31
736.415	6.31
736.439	0.31
736.463	3.31
736.488	0.31
736.512	11.31
736.536	7.31
736.561	14.31
736.585	4.31
736.609	20.31
736.634	3.31
736.658	12.31
736.682	-4.69
736.707	-0.69
736.731	-12.69
736.755	-5.69
736.78	19.31
736.804	29.31
736.828	14.31
736.852	-9.69
736.877	11.31
736.901	11.31
736.925	6.31
736.949	13.31
736.974	-2.69
736.998	-1.69
737.022	1.31
737.047	3.31
737.071	3.31
737.095	14.31
737.119	34.31
737.144	11.31
737.168	6.31
737.192	-5.69
737.216	14.31
737.241	-5.69
737.265	10.31
737.289	-2.69
737.313	4.31
737.337	-3.69
737.362	3.31
737.386	2.31
737.41	-0.69
737.434	-0.69
737.459	4.31
737.483	17.31
737.507	9.31
737.531	19.31
737.555	0.31
737.58	11.31
737.604	6.31
737.628	-4.69
737.652	-2.69
737.676	-0.69
737.701	14.31
737.725	7.31
737.749	21.31
737.773	10.31
737.797	-1.69
737.821	-1.69
737.846	-6.69
737.87	11.31
737.894	4.31
737.918	6.31
737.942	-8.69
737.966	29.31
737.99	16.31
738.015	9.31
738.039	14.31
738.063	4.31
738.087	13.31
738.111	0.31
738.135	11.31
738.159	0.31
738.184	-0.69
738.208	12.31
738.232	14.31
738.256	20.31
738.28	9.31
738.304	17.31
738.328	-0.69
738.352	8.31
738.376	2.31
738.4	6.31
738.425	15.31
738.449	9.31
738.473	12.31
738.497	14.31
738.521	9.31
738.545	4.31
738.569	14.31
738.593	24.31
738.617	12.31
738.641	-1.69
738.665	8.31
738.689	12.31
738.713	8.31
738.737	10.31
738.762	28.31
738.786	4.31
738.81	-13.69
738.834	27.31
738.858	-0.69
738.882	-4.69
738.906	3.31
738.93	10.31
738.954	11.31
738.978	-4.69
739.002	-6.69
739.026	25.31
739.05	7.31
739.074	-6.69
739.098	33.31
739.122	10.31
739.146	4.31
739.17	9.31
739.194	15.31
739.218	8.31
739.242	0.31
739.266	3.31
739.29	32.31
739.314	17.31
739.338	-1.69
739.362	3.31
739.386	6.31
739.41	-8.69
739.434	10.31
739.458	12.31
739.482	11.31
739.506	14.31
739.53	13.31
739.554	19.31
739.577	17.31
739.601	28.31
739.625	-2.69
739.649	6.31
739.673	1.31
739.697	14.31
739.721	-2.69
739.745	11.31
739.769	16.31
739.793	10.31
739.817	22.31
739.841	-4.69
739.865	5.31
739.889	-14.69
739.912	3.31
739.936	3.31
739.96	2.31
739.984	18.31
740.008	22.31
740.032	22.31
740.056	4.31
740.08	14.31
740.104	-5.69
740.127	-0.69
740.151	14.31
740.175	8.31
740.199	27.31
740.223	40.31
740.247	7.31
740.271	29.31
740.295	12.31
740.318	-8.69
740.342	4.31
740.366	14.31
740.39	4.31
740.414	8.31
740.438	3.31
740.461	19.31
740.485	11.31
740.509	9.31
740.533	8.31
740.557	-6.69
740.581	-2.69
740.604	-11.69
740.628	0.31
740.652	14.31
740.676	6.31
740.7	6.31
740.723	0.31
740.747	8.31
740.771	-3.69
740.795	12.31
740.819	12.31
740.842	3.31
740.866	16.31
740.89	14.31
740.914	-0.69
740.938	-1.69
740.961	23.31
740.985	-4.69
741.009	-14.69
741.033	6.31
741.056	10.31
741.08	1.31
741.104	4.31
741.128	12.31
741.151	10.31
741.175	-1.69
741.199	-4.69
741.223	7.31
741.246	7.31
741.27	13.31
741.294	7.31
741.318	0.31
741.341	-6.69
741.365	-0.69
741.389	6.31
741.413	10.31
741.436	17.31
741.46	12.31
741.484	27.31
741.507	3.31
741.531	28.31
741.555	17.31
741.579	23.31
741.602	19.31
741.626	21.31
741.65	11.31
741.673	-1.69
741.697	13.31
741.721	9.31
741.744	-8.69
741.768	-1.69
741.792	23.31
741.815	-1.69
741.839	16.31
741.863	31.31
741.886	8.31
741.91	23.31
741.934	4.31
741.957	-6.69
741.981	22.31
742.005	0.31
742.028	-7.69
742.052	-7.69
742.075	-1.69
742.099	11.31
742.123	-1.69
742.146	-1.69
742.17	15.31
742.194	1.31
742.217	2.31
742.241	-4.69
742.264	11.31
742.288	36.31
742.312	4.31
742.335	-2.69
742.359	1.31
742.382	21.31
742.406	4.31
742.43	-11.69
742.453	-3.69
742.477	-20.69
742.5	-8.69
742.524	22.31
742.548	11.31
742.571	1.31
742.595	7.31
742.618	1.31
742.642	-11.69
742.665	2.31
742.689	7.31
742.712	15.31
742.736	10.31
742.76	12.31
742.783	1.31
742.807	6.31
742.83	13.31
742.854	-3.69
742.877	-11.69
742.901	-1.69
742.924	3.31
742.948	7.31
742.971	19.31
742.995	2.31
743.018	-13.69
743.042	-0.69
743.065	13.31
743.089	3.31
743.112	9.31
743.136	-7.69
743.159	6.31
743.183	-3.69
743.206	12.31
743.23	11.31
743.253	13.31
743.277	11.31
743.3	6.31
743.324	8.31
743.347	-3.69
743.371	27.31
743.394	18.31
743.418	19.31
743.441	3.31
743.465	7.31
743.488	1.31
743.512	-18.69
743.535	-3.69
743.558	-0.69
743.582	2.31
743.605	2.31
743.629	30.31
743.652	13.31
743.676	9.31
743.699	6.31
743.723	-1.69
743.746	7.31
743.769	-1.69
743.793	12.31
743.816	2.31
743.84	11.31
743.863	7.31
743.886	17.31
743.91	25.31
743.933	13.31
743.957	8.31
743.98	10.31
744.003	-7.69
744.027	1.31
744.05	11.31
744.074	6.31
744.097	9.31
744.12	11.31
744.144	0.31
744.167	6.31
744.19	-0.69
744.214	8.31
744.237	-12.69
744.26	17.31
744.284	2.31
744.307	-8.69
744.331	6.31
744.354	-13.69
744.377	1.31
744.401	3.31
744.424	-11.69
744.447	-9.69
744.471	-9.69
