Data from LowRes_H2_15_26_11_07_2024_HR4C61881__72__15-28-20-836.txt Node

Date: Thu Nov 07 15:28:20 EST 2024
User: crc00042
Spectrometer: HR4C6188
Trigger mode: 4
Integration Time (sec): 1.000000E-1
Scans to average: 1
Electric dark correction enabled: true
Nonlinearity correction enabled: false
Boxcar width: 0
XAxis mode: Wavelengths
Number of Pixels in Spectrum: 3648
>>>>>Begin Spectral Data<<<<<
245.66	-111.92
245.797	-111.92
245.934	-111.92
246.071	-72.92
246.208	15.08
246.344	23.08
246.481	-19.92
246.618	-14.92
246.755	10.08
246.892	-19.92
247.029	-27.92
247.165	-7.92
247.302	7.08
247.439	18.08
247.576	24.08
247.713	6.08
247.849	20.08
247.986	-17.92
248.123	9.08
248.26	-7.92
248.396	0.08
248.533	9.08
248.67	-2.92
248.806	17.08
248.943	-4.92
249.08	2.08
249.216	20.08
249.353	10.08
249.49	7.08
249.626	-9.92
249.763	-2.92
249.9	-0.92
250.036	-7.92
250.173	16.08
250.309	-2.92
250.446	9.08
250.582	4.08
250.719	-4.92
250.856	-7.92
250.992	-10.92
251.129	-4.92
251.265	-11.92
251.402	2.08
251.538	-6.92
251.675	-4.92
251.811	-4.92
251.948	8.08
252.084	-4.92
252.221	-6.92
252.357	-0.92
252.493	10.08
252.63	-1.92
252.766	10.08
252.903	-10.92
253.039	-0.92
253.175	-16.92
253.312	-7.92
253.448	-8.92
253.585	-24.92
253.721	-1.92
253.857	5.08
253.994	10.08
254.13	1.08
254.266	5.08
254.403	-4.92
254.539	3.08
254.675	21.08
254.811	-1.92
254.948	14.08
255.084	-4.92
255.22	-8.92
255.356	9.08
255.493	1.08
255.629	-11.92
255.765	16.08
255.901	16.08
256.037	14.08
256.174	12.08
256.31	-12.92
256.446	-8.92
256.582	-13.92
256.718	13.08
256.854	29.08
256.991	10.08
257.127	7.08
257.263	2.08
257.399	13.08
257.535	-4.92
257.671	-8.92
257.807	6.08
257.943	-11.92
258.079	-15.92
258.215	3.08
258.351	23.08
258.487	10.08
258.623	13.08
258.759	-2.92
258.895	-0.92
259.031	-13.92
259.167	-10.92
259.303	17.08
259.439	16.08
259.575	-2.92
259.711	-2.92
259.847	-2.92
259.983	4.08
260.119	9.08
260.255	-15.92
260.391	14.08
260.527	15.08
260.663	4.08
260.799	1.08
260.934	-3.92
261.07	-15.92
261.206	-29.92
261.342	-25.92
261.478	24.08
261.614	10.08
261.749	4.08
261.885	-17.92
262.021	32.08
262.157	10.08
262.293	-6.92
262.428	-6.92
262.564	16.08
262.7	17.08
262.836	7.08
262.971	17.08
263.107	24.08
263.243	5.08
263.378	-10.92
263.514	-7.92
263.65	-2.92
263.785	1.08
263.921	7.08
264.057	-7.92
264.192	11.08
264.328	23.08
264.464	-6.92
264.599	5.08
264.735	18.08
264.871	7.08
265.006	10.08
265.142	-9.92
265.277	7.08
265.413	10.08
265.548	28.08
265.684	14.08
265.819	9.08
265.955	-1.92
266.091	2.08
266.226	-14.92
266.362	3.08
266.497	5.08
266.633	12.08
266.768	8.08
266.903	8.08
267.039	10.08
267.174	18.08
267.31	5.08
267.445	-4.92
267.581	0.08
267.716	20.08
267.851	4.08
267.987	-8.92
268.122	12.08
268.258	12.08
268.393	-4.92
268.528	19.08
268.664	-9.92
268.799	-12.92
268.934	3.08
269.07	-18.92
269.205	-4.92
269.34	20.08
269.476	-4.92
269.611	-11.92
269.746	32.08
269.881	-4.92
270.017	8.08
270.152	0.08
270.287	-7.92
270.422	2.08
270.558	-2.92
270.693	11.08
270.828	-5.92
270.963	1.08
271.098	2.08
271.234	-3.92
271.369	13.08
271.504	-2.92
271.639	-18.92
271.774	-2.92
271.909	-1.92
272.045	-4.92
272.18	5.08
272.315	10.08
272.45	28.08
272.585	-6.92
272.72	0.08
272.855	-8.92
272.99	5.08
273.125	-12.92
273.26	-18.92
273.395	-18.92
273.53	-3.92
273.665	17.08
273.8	-3.92
273.935	2.08
274.07	-12.92
274.205	17.08
274.34	-5.92
274.475	-9.92
274.61	16.08
274.745	3.08
274.88	26.08
275.015	-2.92
275.15	8.08
275.285	17.08
275.42	5.08
275.555	7.08
275.69	9.08
275.825	12.08
275.959	5.08
276.094	-17.92
276.229	-16.92
276.364	-4.92
276.499	-8.92
276.634	-3.92
276.768	16.08
276.903	23.08
277.038	24.08
277.173	16.08
277.308	4.08
277.442	-14.92
277.577	-30.92
277.712	6.08
277.847	-2.92
277.981	11.08
278.116	-33.92
278.251	14.08
278.386	19.08
278.52	6.08
278.655	-13.92
278.79	-0.92
278.924	21.08
279.059	27.08
279.194	5.08
279.328	39.08
279.463	18.08
279.598	22.08
279.732	24.08
279.867	9.08
280.001	24.08
280.136	1.08
280.271	-0.92
280.405	10.08
280.54	-4.92
280.674	-0.92
280.809	22.08
280.943	1.08
281.078	-12.92
281.213	7.08
281.347	22.08
281.482	8.08
281.616	-5.92
281.751	-15.92
281.885	-12.92
282.02	-6.92
282.154	10.08
282.288	-24.92
282.423	-4.92
282.557	-7.92
282.692	12.08
282.826	6.08
282.961	19.08
283.095	-1.92
283.229	-9.92
283.364	-7.92
283.498	4.08
283.633	0.08
283.767	2.08
283.901	2.08
284.036	15.08
284.17	-6.92
284.304	-11.92
284.439	0.08
284.573	-13.92
284.707	8.08
284.842	-25.92
284.976	-10.92
285.11	-10.92
285.244	-1.92
285.379	41.08
285.513	1.08
285.647	7.08
285.781	16.08
285.916	25.08
286.05	8.08
286.184	37.08
286.318	16.08
286.453	7.08
286.587	-11.92
286.721	2.08
286.855	10.08
286.989	23.08
287.123	-2.92
287.258	-27.92
287.392	1.08
287.526	10.08
287.66	-6.92
287.794	3.08
287.928	-2.92
288.062	-2.92
288.196	-14.92
288.33	14.08
288.464	10.08
288.598	19.08
288.733	9.08
288.867	20.08
289.001	-0.92
289.135	-2.92
289.269	-9.92
289.403	7.08
289.537	5.08
289.671	0.08
289.805	-5.92
289.939	13.08
290.073	-4.92
290.207	33.08
290.34	-8.92
290.474	24.08
290.608	28.08
290.742	19.08
290.876	1.08
291.01	-14.92
291.144	37.08
291.278	16.08
291.412	-10.92
291.546	1.08
291.679	-6.92
291.813	-3.92
291.947	8.08
292.081	12.08
292.215	12.08
292.349	12.08
292.482	16.08
292.616	-4.92
292.75	-3.92
292.884	14.08
293.018	-8.92
293.151	-13.92
293.285	-0.92
293.419	-2.92
293.553	-10.92
293.686	-3.92
293.82	2.08
293.954	23.08
294.088	27.08
294.221	-19.92
294.355	-4.92
294.489	8.08
294.622	-10.92
294.756	9.08
294.89	24.08
295.023	0.08
295.157	18.08
295.291	10.08
295.424	20.08
295.558	4.08
295.691	13.08
295.825	-23.92
295.959	17.08
296.092	-5.92
296.226	0.08
296.359	1.08
296.493	8.08
296.627	-9.92
296.76	4.08
296.894	-10.92
297.027	-8.92
297.161	11.08
297.294	-4.92
297.428	0.08
297.561	19.08
297.695	3.08
297.828	5.08
297.962	5.08
298.095	3.08
298.229	10.08
298.362	-16.92
298.495	-15.92
298.629	-10.92
298.762	8.08
298.896	13.08
299.029	0.08
299.162	9.08
299.296	15.08
299.429	-7.92
299.563	-1.92
299.696	-2.92
299.829	3.08
299.963	10.08
300.096	17.08
300.229	31.08
300.363	12.08
300.496	13.08
300.629	-22.92
300.763	-15.92
300.896	5.08
301.029	10.08
301.162	3.08
301.296	-3.92
301.429	6.08
301.562	-16.92
301.695	15.08
301.829	0.08
301.962	13.08
302.095	-1.92
302.228	9.08
302.362	14.08
302.495	10.08
302.628	2.08
302.761	-2.92
302.894	1.08
303.027	9.08
303.161	-17.92
303.294	-14.92
303.427	16.08
303.56	8.08
303.693	28.08
303.826	12.08
303.959	-2.92
304.092	-12.92
304.225	-11.92
304.359	9.08
304.492	10.08
304.625	0.08
304.758	-3.92
304.891	-10.92
305.024	9.08
305.157	-4.92
305.29	-10.92
305.423	-12.92
305.556	-4.92
305.689	22.08
305.822	17.08
305.955	1.08
306.088	-7.92
306.221	-9.92
306.354	6.08
306.487	-13.92
306.62	-19.92
306.752	2.08
306.885	2.08
307.018	-1.92
307.151	1.08
307.284	8.08
307.417	-17.92
307.55	26.08
307.683	1.08
307.816	15.08
307.948	19.08
308.081	5.08
308.214	11.08
308.347	11.08
308.48	-5.92
308.613	-15.92
308.745	16.08
308.878	-4.92
309.011	-7.92
309.144	8.08
309.277	20.08
309.409	11.08
309.542	8.08
309.675	8.08
309.808	-3.92
309.94	28.08
310.073	-27.92
310.206	10.08
310.339	14.08
310.471	-5.92
310.604	29.08
310.737	0.08
310.869	-0.92
311.002	-11.92
311.135	-11.92
311.267	-12.92
311.4	-4.92
311.533	23.08
311.665	-0.92
311.798	0.08
311.93	14.08
312.063	2.08
312.196	6.08
312.328	-2.92
312.461	6.08
312.593	4.08
312.726	2.08
312.859	-5.92
312.991	-0.92
313.124	-33.92
313.256	3.08
313.389	5.08
313.521	21.08
313.654	8.08
313.786	7.08
313.919	-10.92
314.051	-4.92
314.184	11.08
314.316	7.08
314.449	-15.92
314.581	9.08
314.714	-1.92
314.846	1.08
314.978	-36.92
315.111	-9.92
315.243	3.08
315.376	9.08
315.508	6.08
315.641	3.08
315.773	22.08
315.905	13.08
316.038	6.08
316.17	-7.92
316.302	9.08
316.435	-9.92
316.567	-13.92
316.699	20.08
316.832	-4.92
316.964	1.08
317.096	-10.92
317.229	-16.92
317.361	-11.92
317.493	26.08
317.625	5.08
317.758	0.08
317.89	16.08
318.022	-1.92
318.155	-10.92
318.287	-13.92
318.419	-0.92
318.551	8.08
318.683	16.08
318.816	8.08
318.948	-4.92
319.08	-22.92
319.212	20.08
319.344	11.08
319.477	14.08
319.609	10.08
319.741	8.08
319.873	4.08
320.005	-7.92
320.137	7.08
320.269	5.08
320.401	3.08
320.534	-13.92
320.666	-30.92
320.798	-27.92
320.93	6.08
321.062	-7.92
321.194	-1.92
321.326	-11.92
321.458	5.08
321.59	-5.92
321.722	-8.92
321.854	1.08
321.986	-12.92
322.118	0.08
322.25	-6.92
322.382	10.08
322.514	-10.92
322.646	9.08
322.778	29.08
322.91	1.08
323.042	-3.92
323.174	4.08
323.306	-20.92
323.438	-39.92
323.57	-13.92
323.702	-3.92
323.834	-13.92
323.966	-21.92
324.097	5.08
324.229	-9.92
324.361	17.08
324.493	5.08
324.625	-10.92
324.757	12.08
324.889	14.08
325.021	0.08
325.152	21.08
325.284	25.08
325.416	-10.92
325.548	12.08
325.68	-4.92
325.811	3.08
325.943	9.08
326.075	-0.92
326.207	6.08
326.339	1.08
326.47	5.08
326.602	19.08
326.734	22.08
326.866	20.08
326.997	2.08
327.129	-5.92
327.261	-39.92
327.392	-7.92
327.524	1.08
327.656	4.08
327.787	7.08
327.919	3.08
328.051	13.08
328.182	23.08
328.314	16.08
328.446	3.08
328.577	1.08
328.709	8.08
328.841	-10.92
328.972	8.08
329.104	-1.92
329.235	0.08
329.367	0.08
329.499	-8.92
329.63	-2.92
329.762	0.08
329.893	5.08
330.025	-0.92
330.156	-26.92
330.288	16.08
330.419	-1.92
330.551	9.08
330.683	2.08
330.814	-2.92
330.946	9.08
331.077	-11.92
331.208	0.08
331.34	-0.92
331.471	-10.92
331.603	3.08
331.734	-14.92
331.866	-12.92
331.997	-11.92
332.129	-14.92
332.26	-15.92
332.392	-3.92
332.523	-2.92
332.654	-9.92
332.786	-10.92
332.917	-2.92
333.048	9.08
333.18	16.08
333.311	-3.92
333.443	-1.92
333.574	9.08
333.705	11.08
333.837	-13.92
333.968	-5.92
334.099	18.08
334.231	26.08
334.362	-0.92
334.493	9.08
334.624	20.08
334.756	20.08
334.887	17.08
335.018	-0.92
335.15	7.08
335.281	10.08
335.412	27.08
335.543	13.08
335.675	9.08
335.806	15.08
335.937	3.08
336.068	6.08
336.199	29.08
336.331	4.08
336.462	1.08
336.593	8.08
336.724	-12.92
336.855	12.08
336.986	6.08
337.118	0.08
337.249	1.08
337.38	2.08
337.511	2.08
337.642	4.08
337.773	-10.92
337.904	5.08
338.035	7.08
338.166	-14.92
338.298	21.08
338.429	-5.92
338.56	12.08
338.691	14.08
338.822	16.08
338.953	16.08
339.084	20.08
339.215	28.08
339.346	16.08
339.477	0.08
339.608	15.08
339.739	1.08
339.87	-0.92
340.001	10.08
340.132	1.08
340.263	12.08
340.394	21.08
340.525	17.08
340.656	-3.92
340.787	-12.92
340.918	16.08
341.049	16.08
341.179	18.08
341.31	9.08
341.441	9.08
341.572	19.08
341.703	12.08
341.834	-19.92
341.965	23.08
342.096	3.08
342.227	3.08
342.357	-2.92
342.488	9.08
342.619	16.08
342.75	14.08
342.881	-18.92
343.012	19.08
343.142	28.08
343.273	9.08
343.404	8.08
343.535	35.08
343.666	29.08
343.796	15.08
343.927	16.08
344.058	16.08
344.189	14.08
344.319	35.08
344.45	1.08
344.581	9.08
344.712	-31.92
344.842	-2.92
344.973	-9.92
345.104	11.08
345.234	5.08
345.365	-7.92
345.496	-5.92
345.626	13.08
345.757	21.08
345.888	3.08
346.018	3.08
346.149	8.08
346.28	24.08
346.41	-7.92
346.541	6.08
346.672	-4.92
346.802	12.08
346.933	8.08
347.063	-7.92
347.194	5.08
347.325	2.08
347.455	29.08
347.586	5.08
347.716	-1.92
347.847	5.08
347.977	17.08
348.108	9.08
348.238	7.08
348.369	-1.92
348.499	2.08
348.63	-2.92
348.76	17.08
348.891	2.08
349.021	13.08
349.152	16.08
349.282	6.08
349.413	-16.92
349.543	12.08
349.674	-0.92
349.804	-0.92
349.935	-10.92
350.065	10.08
350.196	-27.92
350.326	3.08
350.456	-0.92
350.587	8.08
350.717	2.08
350.848	8.08
350.978	7.08
351.108	-5.92
351.239	8.08
351.369	-4.92
351.499	-2.92
351.63	-4.92
351.76	-10.92
351.89	9.08
352.021	13.08
352.151	15.08
352.281	2.08
352.412	24.08
352.542	18.08
352.672	7.08
352.803	7.08
352.933	11.08
353.063	16.08
353.193	10.08
353.324	-0.92
353.454	12.08
353.584	22.08
353.714	-2.92
353.845	-7.92
353.975	1.08
354.105	-12.92
354.235	20.08
354.365	10.08
354.496	-3.92
354.626	11.08
354.756	16.08
354.886	-4.92
355.016	-5.92
355.146	0.08
355.277	23.08
355.407	-3.92
355.537	-0.92
355.667	13.08
355.797	-0.92
355.927	-11.92
356.057	6.08
356.187	0.08
356.318	-6.92
356.448	15.08
356.578	0.08
356.708	15.08
356.838	5.08
356.968	-3.92
357.098	19.08
357.228	16.08
357.358	-7.92
357.488	-10.92
357.618	29.08
357.748	23.08
357.878	-4.92
358.008	-13.92
358.138	-18.92
358.268	-5.92
358.398	14.08
358.528	-18.92
358.658	8.08
358.788	0.08
358.918	28.08
359.048	19.08
359.178	18.08
359.308	23.08
359.438	24.08
359.568	-1.92
359.698	9.08
359.827	-7.92
359.957	6.08
360.087	-3.92
360.217	-19.92
360.347	12.08
360.477	27.08
360.607	6.08
360.737	11.08
360.866	-2.92
360.996	-14.92
361.126	14.08
361.256	37.08
361.386	27.08
361.516	21.08
361.645	-6.92
361.775	27.08
361.905	-5.92
362.035	12.08
362.165	16.08
362.294	2.08
362.424	25.08
362.554	10.08
362.684	-18.92
362.813	-3.92
362.943	13.08
363.073	19.08
363.203	-5.92
363.332	3.08
363.462	1.08
363.592	2.08
363.721	-3.92
363.851	-1.92
363.981	8.08
364.111	-14.92
364.24	-9.92
364.37	17.08
364.5	7.08
364.629	9.08
364.759	7.08
364.888	-4.92
365.018	-4.92
365.148	1.08
365.277	15.08
365.407	9.08
365.537	11.08
365.666	9.08
365.796	2.08
365.925	-9.92
366.055	-3.92
366.184	15.08
366.314	4.08
366.444	-3.92
366.573	4.08
366.703	-6.92
366.832	12.08
366.962	8.08
367.091	12.08
367.221	24.08
367.35	-0.92
367.48	25.08
367.609	13.08
367.739	-6.92
367.868	-11.92
367.998	3.08
368.127	11.08
368.257	11.08
368.386	18.08
368.516	23.08
368.645	7.08
368.775	-2.92
368.904	-5.92
369.033	1.08
369.163	-1.92
369.292	38.08
369.422	11.08
369.551	4.08
369.68	27.08
369.81	3.08
369.939	-20.92
370.069	26.08
370.198	15.08
370.327	-0.92
370.457	5.08
370.586	8.08
370.715	6.08
370.845	2.08
370.974	23.08
371.103	7.08
371.233	26.08
371.362	19.08
371.491	-1.92
371.621	15.08
371.75	-6.92
371.879	-29.92
372.008	-0.92
372.138	13.08
372.267	14.08
372.396	11.08
372.525	13.08
372.655	4.08
372.784	10.08
372.913	4.08
373.042	4.08
373.172	9.08
373.301	-4.92
373.43	-26.92
373.559	-1.92
373.688	-2.92
373.818	-6.92
373.947	10.08
374.076	0.08
374.205	19.08
374.334	5.08
374.463	-3.92
374.593	19.08
374.722	4.08
374.851	7.08
374.98	-8.92
375.109	11.08
375.238	18.08
375.367	23.08
375.496	3.08
375.625	0.08
375.755	9.08
375.884	35.08
376.013	13.08
376.142	-9.92
376.271	2.08
376.4	8.08
376.529	1.08
376.658	3.08
376.787	1.08
376.916	0.08
377.045	10.08
377.174	1.08
377.303	-2.92
377.432	17.08
377.561	32.08
377.69	2.08
377.819	26.08
377.948	22.08
378.077	-8.92
378.206	8.08
378.335	3.08
378.464	1.08
378.593	6.08
378.722	-1.92
378.851	9.08
378.98	25.08
379.108	9.08
379.237	0.08
379.366	18.08
379.495	27.08
379.624	-11.92
379.753	9.08
379.882	12.08
380.011	5.08
380.14	0.08
380.268	8.08
380.397	4.08
380.526	12.08
380.655	0.08
380.784	2.08
380.913	-0.92
381.041	17.08
381.17	1.08
381.299	2.08
381.428	22.08
381.557	8.08
381.685	4.08
381.814	23.08
381.943	-8.92
382.072	-4.92
382.2	-8.92
382.329	2.08
382.458	11.08
382.587	15.08
382.715	16.08
382.844	5.08
382.973	2.08
383.102	-4.92
383.23	15.08
383.359	-1.92
383.488	-2.92
383.616	6.08
383.745	12.08
383.874	2.08
384.003	7.08
384.131	-3.92
384.26	2.08
384.389	8.08
384.517	-28.92
384.646	-23.92
384.774	-1.92
384.903	20.08
385.032	17.08
385.16	-0.92
385.289	5.08
385.418	-3.92
385.546	4.08
385.675	6.08
385.803	15.08
385.932	8.08
386.06	3.08
386.189	0.08
386.318	13.08
386.446	-4.92
386.575	1.08
386.703	1.08
386.832	-6.92
386.96	-23.92
387.089	25.08
387.217	14.08
387.346	5.08
387.474	15.08
387.603	0.08
387.731	1.08
387.86	21.08
387.988	19.08
388.117	14.08
388.245	14.08
388.374	-10.92
388.502	29.08
388.631	-3.92
388.759	-2.92
388.888	20.08
389.016	12.08
389.144	-4.92
389.273	6.08
389.401	-7.92
389.53	-5.92
389.658	20.08
389.786	-16.92
389.915	-13.92
390.043	-21.92
390.172	13.08
390.3	25.08
390.428	18.08
390.557	-0.92
390.685	9.08
390.813	22.08
390.942	25.08
391.07	4.08
391.198	1.08
391.327	3.08
391.455	-9.92
391.583	35.08
391.712	-3.92
391.84	0.08
391.968	-3.92
392.096	10.08
392.225	-8.92
392.353	3.08
392.481	-7.92
392.609	24.08
392.738	28.08
392.866	15.08
392.994	-8.92
393.122	35.08
393.251	12.08
393.379	-16.92
393.507	-12.92
393.635	-9.92
393.764	-3.92
393.892	24.08
394.02	6.08
394.148	-10.92
394.276	1.08
394.404	20.08
394.533	-2.92
394.661	28.08
394.789	35.08
394.917	43.08
395.045	-4.92
395.173	-10.92
395.302	-7.92
395.43	1.08
395.558	7.08
395.686	12.08
395.814	34.08
395.942	9.08
396.07	7.08
396.198	10.08
396.326	6.08
396.454	19.08
396.582	17.08
396.711	3.08
396.839	13.08
396.967	21.08
397.095	7.08
397.223	20.08
397.351	27.08
397.479	31.08
397.607	10.08
397.735	11.08
397.863	17.08
397.991	19.08
398.119	1.08
398.247	10.08
398.375	1.08
398.503	-1.92
398.631	-6.92
398.759	9.08
398.887	20.08
399.015	21.08
399.143	4.08
399.271	20.08
399.399	1.08
399.526	18.08
399.654	24.08
399.782	-12.92
399.91	30.08
400.038	26.08
400.166	7.08
400.294	-15.92
400.422	-7.92
400.55	8.08
400.678	7.08
400.805	2.08
400.933	0.08
401.061	31.08
401.189	17.08
401.317	4.08
401.445	20.08
401.573	17.08
401.7	7.08
401.828	-11.92
401.956	-3.92
402.084	19.08
402.212	2.08
402.34	3.08
402.467	-2.92
402.595	14.08
402.723	8.08
402.851	26.08
402.978	1.08
403.106	16.08
403.234	2.08
403.362	14.08
403.489	32.08
403.617	26.08
403.745	-0.92
403.873	-15.92
404	4.08
404.128	-0.92
404.256	17.08
404.384	16.08
404.511	3.08
404.639	-7.92
404.767	-12.92
404.894	5.08
405.022	-3.92
405.15	7.08
405.277	9.08
405.405	-5.92
405.533	5.08
405.66	5.08
405.788	-16.92
405.916	-6.92
406.043	-6.92
406.171	8.08
406.299	16.08
406.426	5.08
406.554	25.08
406.681	25.08
406.809	5.08
406.937	-2.92
407.064	-9.92
407.192	16.08
407.319	-1.92
407.447	10.08
407.574	26.08
407.702	-2.92
407.83	-1.92
407.957	3.08
408.085	15.08
408.212	-6.92
408.34	13.08
408.467	1.08
408.595	2.08
408.722	21.08
408.85	9.08
408.977	-7.92
409.105	6.08
409.232	16.08
409.36	9.08
409.487	4.08
409.615	14.08
409.742	14.08
409.87	19.08
409.997	29.08
410.125	38.08
410.252	48.08
410.379	45.08
410.507	33.08
410.634	18.08
410.762	13.08
410.889	25.08
411.017	-8.92
411.144	27.08
411.271	1.08
411.399	9.08
411.526	15.08
411.653	22.08
411.781	27.08
411.908	26.08
412.036	7.08
412.163	24.08
412.29	24.08
412.418	32.08
412.545	13.08
412.672	14.08
412.8	38.08
412.927	15.08
413.054	17.08
413.182	23.08
413.309	6.08
413.436	-5.92
413.564	4.08
413.691	2.08
413.818	17.08
413.945	-8.92
414.073	1.08
414.2	8.08
414.327	-0.92
414.454	10.08
414.582	-2.92
414.709	-20.92
414.836	20.08
414.963	19.08
415.091	20.08
415.218	5.08
415.345	11.08
415.472	14.08
415.6	-0.92
415.727	19.08
415.854	-9.92
415.981	4.08
416.108	-8.92
416.236	2.08
416.363	-2.92
416.49	-5.92
416.617	25.08
416.744	19.08
416.871	9.08
416.998	9.08
417.126	-10.92
417.253	-5.92
417.38	-5.92
417.507	-2.92
417.634	-5.92
417.761	26.08
417.888	22.08
418.015	44.08
418.143	7.08
418.27	27.08
418.397	21.08
418.524	24.08
418.651	-0.92
418.778	20.08
418.905	10.08
419.032	26.08
419.159	11.08
419.286	36.08
419.413	24.08
419.54	28.08
419.667	-7.92
419.794	-4.92
419.921	-3.92
420.048	8.08
420.175	5.08
420.302	12.08
420.429	8.08
420.556	-4.92
420.683	-3.92
420.81	15.08
420.937	29.08
421.064	12.08
421.191	-3.92
421.318	27.08
421.445	19.08
421.572	12.08
421.699	8.08
421.826	20.08
421.953	-0.92
422.08	17.08
422.207	-20.92
422.334	-4.92
422.461	19.08
422.588	5.08
422.714	10.08
422.841	22.08
422.968	2.08
423.095	12.08
423.222	-2.92
423.349	20.08
423.476	23.08
423.603	-9.92
423.729	-9.92
423.856	16.08
423.983	15.08
424.11	16.08
424.237	17.08
424.364	19.08
424.491	7.08
424.617	-3.92
424.744	-0.92
424.871	13.08
424.998	26.08
425.125	6.08
425.251	6.08
425.378	-6.92
425.505	4.08
425.632	1.08
425.758	-7.92
425.885	5.08
426.012	25.08
426.139	5.08
426.266	8.08
426.392	-0.92
426.519	8.08
426.646	11.08
426.772	20.08
426.899	14.08
427.026	21.08
427.153	12.08
427.279	18.08
427.406	-0.92
427.533	-2.92
427.659	-4.92
427.786	0.08
427.913	29.08
428.039	-3.92
428.166	22.08
428.293	-3.92
428.419	19.08
428.546	18.08
428.673	-6.92
428.799	-14.92
428.926	12.08
429.053	8.08
429.179	3.08
429.306	9.08
429.433	13.08
429.559	-2.92
429.686	-15.92
429.812	-5.92
429.939	-6.92
430.066	4.08
430.192	0.08
430.319	12.08
430.445	-7.92
430.572	-5.92
430.699	1.08
430.825	-14.92
430.952	-3.92
431.078	0.08
431.205	15.08
431.331	4.08
431.458	8.08
431.584	-3.92
431.711	-5.92
431.837	5.08
431.964	13.08
432.09	16.08
432.217	4.08
432.343	15.08
432.47	16.08
432.596	0.08
432.723	-1.92
432.849	-19.92
432.976	26.08
433.102	-0.92
433.229	6.08
433.355	18.08
433.482	81.08
433.608	161.08
433.735	144.08
433.861	107.08
433.987	133.08
434.114	245.08
434.24	205.08
434.367	73.08
434.493	-4.92
434.62	16.08
434.746	27.08
434.872	7.08
434.999	13.08
435.125	10.08
435.252	-3.92
435.378	11.08
435.504	2.08
435.631	2.08
435.757	-7.92
435.883	10.08
436.01	0.08
436.136	-7.92
436.262	3.08
436.389	3.08
436.515	8.08
436.641	1.08
436.768	21.08
436.894	6.08
437.02	13.08
437.147	20.08
437.273	24.08
437.399	0.08
437.526	9.08
437.652	2.08
437.778	8.08
437.904	14.08
438.031	9.08
438.157	12.08
438.283	15.08
438.409	-8.92
438.536	-20.92
438.662	14.08
438.788	-7.92
438.914	17.08
439.041	14.08
439.167	22.08
439.293	-2.92
439.419	-4.92
439.546	16.08
439.672	-1.92
439.798	8.08
439.924	3.08
440.05	24.08
440.177	22.08
440.303	17.08
440.429	6.08
440.555	26.08
440.681	12.08
440.807	25.08
440.934	4.08
441.06	7.08
441.186	7.08
441.312	20.08
441.438	10.08
441.564	27.08
441.69	42.08
441.816	34.08
441.943	12.08
442.069	13.08
442.195	21.08
442.321	29.08
442.447	-16.92
442.573	-3.92
442.699	-9.92
442.825	4.08
442.951	13.08
443.077	19.08
443.203	22.08
443.33	14.08
443.456	-15.92
443.582	-6.92
443.708	11.08
443.834	27.08
443.96	5.08
444.086	2.08
444.212	15.08
444.338	15.08
444.464	29.08
444.59	22.08
444.716	1.08
444.842	23.08
444.968	-0.92
445.094	17.08
445.22	-9.92
445.346	-6.92
445.472	3.08
445.598	-2.92
445.724	-2.92
445.85	5.08
445.976	20.08
446.102	5.08
446.228	20.08
446.354	19.08
446.48	16.08
446.605	6.08
446.731	3.08
446.857	-8.92
446.983	11.08
447.109	3.08
447.235	-4.92
447.361	-6.92
447.487	17.08
447.613	11.08
447.739	-10.92
447.865	3.08
447.99	14.08
448.116	18.08
448.242	5.08
448.368	-3.92
448.494	-9.92
448.62	-0.92
448.746	4.08
448.872	17.08
448.997	3.08
449.123	7.08
449.249	22.08
449.375	19.08
449.501	0.08
449.627	6.08
449.752	35.08
449.878	11.08
450.004	6.08
450.13	16.08
450.256	-8.92
450.381	15.08
450.507	21.08
450.633	15.08
450.759	16.08
450.884	10.08
451.01	7.08
451.136	-0.92
451.262	8.08
451.388	12.08
451.513	-7.92
451.639	19.08
451.765	-11.92
451.89	22.08
452.016	20.08
452.142	11.08
452.268	19.08
452.393	3.08
452.519	-3.92
452.645	12.08
452.771	1.08
452.896	-6.92
453.022	7.08
453.148	33.08
453.273	13.08
453.399	11.08
453.525	4.08
453.65	10.08
453.776	-3.92
453.902	18.08
454.027	11.08
454.153	33.08
454.279	28.08
454.404	10.08
454.53	34.08
454.656	29.08
454.781	-1.92
454.907	5.08
455.032	1.08
455.158	19.08
455.284	31.08
455.409	14.08
455.535	13.08
455.66	17.08
455.786	30.08
455.912	6.08
456.037	10.08
456.163	24.08
456.288	19.08
456.414	1.08
456.539	5.08
456.665	5.08
456.791	8.08
456.916	3.08
457.042	6.08
457.167	2.08
457.293	13.08
457.418	12.08
457.544	3.08
457.669	1.08
457.795	11.08
457.92	19.08
458.046	33.08
458.171	8.08
458.297	11.08
458.422	2.08
458.548	8.08
458.673	14.08
458.799	23.08
458.924	-9.92
459.05	28.08
459.175	13.08
459.301	9.08
459.426	17.08
459.552	-0.92
459.677	2.08
459.803	21.08
459.928	21.08
460.053	-6.92
460.179	-3.92
460.304	25.08
460.43	17.08
460.555	15.08
460.681	-5.92
460.806	6.08
460.931	8.08
461.057	15.08
461.182	26.08
461.308	5.08
461.433	13.08
461.558	4.08
461.684	36.08
461.809	14.08
461.934	16.08
462.06	12.08
462.185	-5.92
462.311	4.08
462.436	32.08
462.561	17.08
462.687	13.08
462.812	18.08
462.937	8.08
463.063	8.08
463.188	6.08
463.313	7.08
463.439	12.08
463.564	12.08
463.689	-11.92
463.814	-1.92
463.94	5.08
464.065	11.08
464.19	25.08
464.316	-0.92
464.441	-2.92
464.566	-6.92
464.692	-7.92
464.817	1.08
464.942	-3.92
465.067	-5.92
465.193	-19.92
465.318	11.08
465.443	0.08
465.568	20.08
465.694	8.08
465.819	28.08
465.944	19.08
466.069	24.08
466.194	15.08
466.32	16.08
466.445	28.08
466.57	3.08
466.695	1.08
466.82	6.08
466.946	19.08
467.071	17.08
467.196	-7.92
467.321	18.08
467.446	4.08
467.572	16.08
467.697	6.08
467.822	10.08
467.947	12.08
468.072	0.08
468.197	-8.92
468.323	11.08
468.448	-12.92
468.573	7.08
468.698	2.08
468.823	18.08
468.948	8.08
469.073	2.08
469.198	4.08
469.324	39.08
469.449	7.08
469.574	18.08
469.699	3.08
469.824	22.08
469.949	15.08
470.074	9.08
470.199	28.08
470.324	28.08
470.449	6.08
470.574	1.08
470.7	38.08
470.825	23.08
470.95	26.08
471.075	-2.92
471.2	18.08
471.325	21.08
471.45	17.08
471.575	-2.92
471.7	5.08
471.825	23.08
471.95	0.08
472.075	-3.92
472.2	-3.92
472.325	4.08
472.45	0.08
472.575	8.08
472.7	-9.92
472.825	2.08
472.95	8.08
473.075	15.08
473.2	7.08
473.325	0.08
473.45	4.08
473.575	-3.92
473.7	21.08
473.825	13.08
473.95	24.08
474.075	24.08
474.2	9.08
474.325	-0.92
474.45	20.08
474.574	28.08
474.699	15.08
474.824	22.08
474.949	7.08
475.074	4.08
475.199	22.08
475.324	8.08
475.449	11.08
475.574	8.08
475.699	28.08
475.824	2.08
475.949	12.08
476.073	5.08
476.198	3.08
476.323	1.08
476.448	15.08
476.573	6.08
476.698	32.08
476.823	10.08
476.947	8.08
477.072	8.08
477.197	13.08
477.322	1.08
477.447	3.08
477.572	9.08
477.697	16.08
477.821	2.08
477.946	41.08
478.071	30.08
478.196	13.08
478.321	25.08
478.445	15.08
478.57	3.08
478.695	14.08
478.82	22.08
478.945	8.08
479.069	-5.92
479.194	4.08
479.319	19.08
479.444	3.08
479.569	1.08
479.693	16.08
479.818	19.08
479.943	20.08
480.068	17.08
480.192	24.08
480.317	8.08
480.442	4.08
480.567	14.08
480.691	18.08
480.816	0.08
480.941	-3.92
481.066	14.08
481.19	24.08
481.315	31.08
481.44	14.08
481.564	3.08
481.689	25.08
481.814	24.08
481.938	38.08
482.063	19.08
482.188	20.08
482.313	28.08
482.437	20.08
482.562	33.08
482.687	32.08
482.811	24.08
482.936	4.08
483.061	31.08
483.185	22.08
483.31	37.08
483.435	23.08
483.559	19.08
483.684	22.08
483.808	37.08
483.933	26.08
484.058	7.08
484.182	24.08
484.307	17.08
484.432	31.08
484.556	21.08
484.681	25.08
484.805	16.08
484.93	21.08
485.055	25.08
485.179	78.08
485.304	116.08
485.428	385.08
485.553	1276.08
485.678	1731.08
485.802	1670.08
485.927	1815.08
486.051	2714.08
486.176	1648.08
486.3	447.08
486.425	151.08
486.549	89.08
486.674	55.08
486.799	23.08
486.923	26.08
487.048	19.08
487.172	10.08
487.297	29.08
487.421	52.08
487.546	23.08
487.67	20.08
487.795	5.08
487.919	23.08
488.044	45.08
488.168	22.08
488.293	28.08
488.417	-5.92
488.542	29.08
488.666	19.08
488.791	14.08
488.915	25.08
489.04	32.08
489.164	18.08
489.289	29.08
489.413	10.08
489.538	22.08
489.662	18.08
489.786	-5.92
489.911	14.08
490.035	2.08
490.16	3.08
490.284	7.08
490.409	1.08
490.533	19.08
490.658	44.08
490.782	8.08
490.906	25.08
491.031	17.08
491.155	14.08
491.28	11.08
491.404	19.08
491.528	47.08
491.653	-7.92
491.777	13.08
491.902	-6.92
492.026	15.08
492.15	23.08
492.275	25.08
492.399	19.08
492.524	9.08
492.648	38.08
492.772	30.08
492.897	26.08
493.021	10.08
493.145	26.08
493.27	20.08
493.394	14.08
493.518	16.08
493.643	11.08
493.767	23.08
493.891	7.08
494.016	13.08
494.14	6.08
494.264	32.08
494.389	27.08
494.513	-2.92
494.637	-10.92
494.762	17.08
494.886	25.08
495.01	33.08
495.134	6.08
495.259	23.08
495.383	21.08
495.507	14.08
495.632	13.08
495.756	39.08
495.88	15.08
496.004	24.08
496.129	0.08
496.253	9.08
496.377	36.08
496.501	37.08
496.626	6.08
496.75	13.08
496.874	12.08
496.998	13.08
497.123	17.08
497.247	6.08
497.371	8.08
497.495	8.08
497.62	16.08
497.744	-0.92
497.868	0.08
497.992	10.08
498.116	-6.92
498.241	15.08
498.365	5.08
498.489	18.08
498.613	21.08
498.737	15.08
498.862	20.08
498.986	9.08
499.11	20.08
499.234	8.08
499.358	-15.92
499.482	-4.92
499.607	10.08
499.731	23.08
499.855	16.08
499.979	7.08
500.103	16.08
500.227	15.08
500.351	25.08
500.476	30.08
500.6	9.08
500.724	17.08
500.848	13.08
500.972	7.08
501.096	9.08
501.22	44.08
501.344	12.08
501.469	-1.92
501.593	18.08
501.717	18.08
501.841	20.08
501.965	17.08
502.089	11.08
502.213	19.08
502.337	3.08
502.461	3.08
502.585	22.08
502.709	24.08
502.834	11.08
502.958	2.08
503.082	-5.92
503.206	8.08
503.33	24.08
503.454	36.08
503.578	12.08
503.702	21.08
503.826	26.08
503.95	26.08
504.074	22.08
504.198	9.08
504.322	-12.92
504.446	6.08
504.57	22.08
504.694	15.08
504.818	13.08
504.942	25.08
505.066	12.08
505.19	18.08
505.314	25.08
505.438	28.08
505.562	1.08
505.686	38.08
505.81	11.08
505.934	9.08
506.058	5.08
506.182	13.08
506.306	35.08
506.43	12.08
506.554	21.08
506.678	13.08
506.802	7.08
506.926	13.08
507.05	8.08
507.174	22.08
507.298	25.08
507.422	34.08
507.546	36.08
507.67	15.08
507.794	2.08
507.918	9.08
508.042	12.08
508.165	-9.92
508.289	4.08
508.413	11.08
508.537	-4.92
508.661	1.08
508.785	16.08
508.909	32.08
509.033	27.08
509.157	17.08
509.281	22.08
509.405	6.08
509.528	31.08
509.652	23.08
509.776	10.08
509.9	31.08
510.024	8.08
510.148	9.08
510.272	10.08
510.396	16.08
510.519	-7.92
510.643	32.08
510.767	6.08
510.891	38.08
511.015	15.08
511.139	15.08
511.263	29.08
511.386	7.08
511.51	23.08
511.634	3.08
511.758	23.08
511.882	5.08
512.006	14.08
512.129	7.08
512.253	40.08
512.377	6.08
512.501	13.08
512.625	38.08
512.748	12.08
512.872	15.08
512.996	5.08
513.12	12.08
513.244	16.08
513.367	11.08
513.491	16.08
513.615	17.08
513.739	-5.92
513.862	20.08
513.986	1.08
514.11	18.08
514.234	1.08
514.358	20.08
514.481	22.08
514.605	19.08
514.729	27.08
514.853	19.08
514.976	-7.92
515.1	12.08
515.224	27.08
515.348	9.08
515.471	7.08
515.595	8.08
515.719	-8.92
515.842	37.08
515.966	12.08
516.09	27.08
516.214	14.08
516.337	32.08
516.461	11.08
516.585	34.08
516.708	31.08
516.832	10.08
516.956	10.08
517.08	14.08
517.203	9.08
517.327	14.08
517.451	25.08
517.574	33.08
517.698	-4.92
517.822	20.08
517.945	21.08
518.069	25.08
518.193	54.08
518.316	43.08
518.44	41.08
518.564	14.08
518.687	22.08
518.811	22.08
518.935	45.08
519.058	22.08
519.182	40.08
519.306	40.08
519.429	26.08
519.553	57.08
519.676	31.08
519.8	10.08
519.924	12.08
520.047	21.08
520.171	21.08
520.294	16.08
520.418	21.08
520.542	9.08
520.665	37.08
520.789	21.08
520.913	8.08
521.036	-6.92
521.16	-5.92
521.283	3.08
521.407	12.08
521.53	3.08
521.654	-4.92
521.778	21.08
521.901	22.08
522.025	-0.92
522.148	-6.92
522.272	9.08
522.395	1.08
522.519	29.08
522.643	12.08
522.766	11.08
522.89	-9.92
523.013	17.08
523.137	13.08
523.26	13.08
523.384	23.08
523.507	11.08
523.631	20.08
523.754	3.08
523.878	11.08
524.002	13.08
524.125	7.08
524.249	14.08
524.372	21.08
524.496	16.08
524.619	19.08
524.743	8.08
524.866	14.08
524.99	16.08
525.113	-1.92
525.237	20.08
525.36	7.08
525.484	23.08
525.607	15.08
525.731	11.08
525.854	11.08
525.978	40.08
526.101	7.08
526.224	-6.92
526.348	9.08
526.471	27.08
526.595	17.08
526.718	4.08
526.842	-2.92
526.965	21.08
527.089	19.08
527.212	10.08
527.336	3.08
527.459	13.08
527.582	13.08
527.706	13.08
527.829	9.08
527.953	9.08
528.076	-2.92
528.2	-1.92
528.323	33.08
528.446	28.08
528.57	5.08
528.693	5.08
528.817	5.08
528.94	21.08
529.064	35.08
529.187	11.08
529.31	12.08
529.434	-5.92
529.557	15.08
529.68	4.08
529.804	15.08
529.927	20.08
530.051	13.08
530.174	15.08
530.297	6.08
530.421	11.08
530.544	15.08
530.668	-0.92
530.791	4.08
530.914	25.08
531.038	4.08
531.161	16.08
531.284	11.08
531.408	3.08
531.531	-0.92
531.654	1.08
531.778	18.08
531.901	-9.92
532.024	20.08
532.148	14.08
532.271	18.08
532.394	16.08
532.518	20.08
532.641	29.08
532.764	24.08
532.888	29.08
533.011	-0.92
533.134	13.08
533.258	19.08
533.381	8.08
533.504	8.08
533.628	17.08
533.751	19.08
533.874	26.08
533.997	16.08
534.121	2.08
534.244	13.08
534.367	14.08
534.491	13.08
534.614	-4.92
534.737	20.08
534.86	17.08
534.984	8.08
535.107	5.08
535.23	0.08
535.354	9.08
535.477	4.08
535.6	11.08
535.723	21.08
535.847	26.08
535.97	-3.92
536.093	18.08
536.216	-0.92
536.34	8.08
536.463	-0.92
536.586	6.08
536.709	16.08
536.833	20.08
536.956	5.08
537.079	2.08
537.202	11.08
537.325	0.08
537.449	-2.92
537.572	18.08
537.695	9.08
537.818	1.08
537.941	8.08
538.065	6.08
538.188	5.08
538.311	13.08
538.434	12.08
538.558	14.08
538.681	6.08
538.804	34.08
538.927	3.08
539.05	8.08
539.173	0.08
539.297	-5.92
539.42	9.08
539.543	12.08
539.666	26.08
539.789	20.08
539.913	23.08
540.036	14.08
540.159	4.08
540.282	7.08
540.405	9.08
540.528	13.08
540.651	-1.92
540.775	11.08
540.898	11.08
541.021	-5.92
541.144	22.08
541.267	28.08
541.39	1.08
541.513	23.08
541.637	6.08
541.76	11.08
541.883	15.08
542.006	12.08
542.129	5.08
542.252	5.08
542.375	7.08
542.498	8.08
542.622	32.08
542.745	17.08
542.868	10.08
542.991	16.08
543.114	26.08
543.237	45.08
543.36	22.08
543.483	5.08
543.606	10.08
543.73	24.08
543.853	-4.92
543.976	-2.92
544.099	13.08
544.222	18.08
544.345	-7.92
544.468	17.08
544.591	23.08
544.714	18.08
544.837	20.08
544.96	17.08
545.083	28.08
545.206	33.08
545.329	34.08
545.453	17.08
545.576	17.08
545.699	19.08
545.822	18.08
545.945	27.08
546.068	3.08
546.191	21.08
546.314	12.08
546.437	13.08
546.56	9.08
546.683	0.08
546.806	21.08
546.929	5.08
547.052	5.08
547.175	11.08
547.298	19.08
547.421	7.08
547.544	-5.92
547.667	11.08
547.79	16.08
547.913	-7.92
548.036	-6.92
548.159	-1.92
548.282	14.08
548.405	2.08
548.528	7.08
548.651	13.08
548.774	23.08
548.897	-8.92
549.02	7.08
549.143	19.08
549.266	5.08
549.389	20.08
549.512	1.08
549.635	20.08
549.758	26.08
549.881	24.08
550.004	21.08
550.127	24.08
550.25	13.08
550.373	7.08
550.496	22.08
550.619	14.08
550.742	-3.92
550.865	0.08
550.988	2.08
551.111	19.08
551.234	18.08
551.356	-2.92
551.479	-8.92
551.602	3.08
551.725	21.08
551.848	28.08
551.971	19.08
552.094	0.08
552.217	11.08
552.34	10.08
552.463	-0.92
552.586	-3.92
552.709	20.08
552.832	4.08
552.955	12.08
553.077	20.08
553.2	14.08
553.323	-5.92
553.446	3.08
553.569	6.08
553.692	4.08
553.815	4.08
553.938	12.08
554.061	39.08
554.184	-12.92
554.306	9.08
554.429	7.08
554.552	2.08
554.675	-3.92
554.798	0.08
554.921	17.08
555.044	-5.92
555.167	-19.92
555.29	7.08
555.412	4.08
555.535	21.08
555.658	3.08
555.781	11.08
555.904	10.08
556.027	17.08
556.15	12.08
556.272	7.08
556.395	33.08
556.518	-3.92
556.641	7.08
556.764	10.08
556.887	16.08
557.01	10.08
557.132	-15.92
557.255	3.08
557.378	8.08
557.501	0.08
557.624	31.08
557.747	27.08
557.869	13.08
557.992	23.08
558.115	20.08
558.238	6.08
558.361	19.08
558.483	35.08
558.606	15.08
558.729	3.08
558.852	32.08
558.975	25.08
559.098	29.08
559.22	24.08
559.343	19.08
559.466	19.08
559.589	5.08
559.712	26.08
559.834	19.08
559.957	3.08
560.08	6.08
560.203	26.08
560.325	19.08
560.448	35.08
560.571	35.08
560.694	13.08
560.817	23.08
560.939	7.08
561.062	12.08
561.185	16.08
561.308	3.08
561.43	-0.92
561.553	-4.92
561.676	8.08
561.799	10.08
561.921	16.08
562.044	16.08
562.167	-2.92
562.29	21.08
562.413	34.08
562.535	19.08
562.658	-7.92
562.781	7.08
562.903	20.08
563.026	-8.92
563.149	31.08
563.272	16.08
563.394	7.08
563.517	9.08
563.64	7.08
563.763	-7.92
563.885	6.08
564.008	11.08
564.131	19.08
564.254	-4.92
564.376	15.08
564.499	-11.92
564.622	9.08
564.744	21.08
564.867	4.08
564.99	-1.92
565.113	28.08
565.235	10.08
565.358	-0.92
565.481	-15.92
565.603	5.08
565.726	-13.92
565.849	21.08
565.971	24.08
566.094	1.08
566.217	5.08
566.34	17.08
566.462	14.08
566.585	10.08
566.708	28.08
566.83	20.08
566.953	30.08
567.076	8.08
567.198	-2.92
567.321	-16.92
567.444	-3.92
567.566	7.08
567.689	4.08
567.812	-0.92
567.934	5.08
568.057	17.08
568.18	11.08
568.302	3.08
568.425	6.08
568.548	22.08
568.67	19.08
568.793	-3.92
568.916	14.08
569.038	20.08
569.161	2.08
569.283	12.08
569.406	19.08
569.529	23.08
569.651	-18.92
569.774	2.08
569.897	12.08
570.019	25.08
570.142	19.08
570.265	17.08
570.387	5.08
570.51	21.08
570.632	23.08
570.755	0.08
570.878	-0.92
571	17.08
571.123	7.08
571.246	27.08
571.368	12.08
571.491	12.08
571.613	-6.92
571.736	-6.92
571.859	3.08
571.981	-6.92
572.104	6.08
572.226	5.08
572.349	-9.92
572.472	10.08
572.594	13.08
572.717	22.08
572.839	2.08
572.962	22.08
573.085	25.08
573.207	-5.92
573.33	-2.92
573.452	26.08
573.575	9.08
573.697	4.08
573.82	5.08
573.943	3.08
574.065	-2.92
574.188	-2.92
574.31	10.08
574.433	5.08
574.555	25.08
574.678	8.08
574.801	22.08
574.923	5.08
575.046	5.08
575.168	5.08
575.291	0.08
575.413	17.08
575.536	8.08
575.659	16.08
575.781	17.08
575.904	28.08
576.026	9.08
576.149	18.08
576.271	26.08
576.394	20.08
576.516	-0.92
576.639	15.08
576.761	-11.92
576.884	0.08
577.007	-3.92
577.129	20.08
577.252	25.08
577.374	38.08
577.497	9.08
577.619	11.08
577.742	0.08
577.864	10.08
577.987	3.08
578.109	18.08
578.232	20.08
578.354	25.08
578.477	0.08
578.599	-3.92
578.722	1.08
578.844	3.08
578.967	1.08
579.089	4.08
579.212	5.08
579.334	15.08
579.457	5.08
579.579	-3.92
579.702	3.08
579.824	19.08
579.947	6.08
580.069	5.08
580.192	-4.92
580.314	23.08
580.437	27.08
580.559	54.08
580.682	0.08
580.804	25.08
580.927	27.08
581.049	29.08
581.172	10.08
581.294	24.08
581.417	9.08
581.539	6.08
581.662	4.08
581.784	24.08
581.907	17.08
582.029	23.08
582.152	-4.92
582.274	26.08
582.396	6.08
582.519	11.08
582.641	-2.92
582.764	7.08
582.886	33.08
583.009	5.08
583.131	15.08
583.254	24.08
583.376	22.08
583.499	17.08
583.621	-5.92
583.743	19.08
583.866	8.08
583.988	13.08
584.111	23.08
584.233	33.08
584.356	23.08
584.478	1.08
584.601	-5.92
584.723	13.08
584.845	13.08
584.968	7.08
585.09	-4.92
585.213	-1.92
585.335	-9.92
585.458	28.08
585.58	9.08
585.702	22.08
585.825	-2.92
585.947	-0.92
586.07	-5.92
586.192	9.08
586.315	12.08
586.437	19.08
586.559	7.08
586.682	2.08
586.804	9.08
586.927	15.08
587.049	9.08
587.171	33.08
587.294	18.08
587.416	24.08
587.539	11.08
587.661	-2.92
587.783	2.08
587.906	-0.92
588.028	19.08
588.151	16.08
588.273	16.08
588.395	8.08
588.518	7.08
588.64	3.08
588.763	24.08
588.885	23.08
589.007	9.08
589.13	-9.92
589.252	-14.92
589.375	-5.92
589.497	14.08
589.619	7.08
589.742	13.08
589.864	22.08
589.986	8.08
590.109	1.08
590.231	-2.92
590.354	23.08
590.476	10.08
590.598	-4.92
590.721	4.08
590.843	10.08
590.965	12.08
591.088	6.08
591.21	17.08
591.332	27.08
591.455	-2.92
591.577	5.08
591.7	20.08
591.822	22.08
591.944	10.08
592.067	-1.92
592.189	8.08
592.311	12.08
592.434	19.08
592.556	26.08
592.678	1.08
592.801	11.08
592.923	16.08
593.045	4.08
593.168	27.08
593.29	8.08
593.412	8.08
593.535	20.08
593.657	-8.92
593.779	16.08
593.902	17.08
594.024	5.08
594.146	25.08
594.269	32.08
594.391	7.08
594.513	17.08
594.636	0.08
594.758	-6.92
594.88	30.08
595.003	30.08
595.125	9.08
595.247	7.08
595.37	3.08
595.492	7.08
595.614	39.08
595.737	23.08
595.859	3.08
595.981	1.08
596.104	8.08
596.226	8.08
596.348	17.08
596.471	-1.92
596.593	8.08
596.715	-3.92
596.838	5.08
596.96	-8.92
597.082	18.08
597.204	14.08
597.327	22.08
597.449	17.08
597.571	18.08
597.694	21.08
597.816	17.08
597.938	1.08
598.061	8.08
598.183	6.08
598.305	8.08
598.427	9.08
598.55	10.08
598.672	25.08
598.794	23.08
598.917	-0.92
599.039	3.08
599.161	41.08
599.283	5.08
599.406	11.08
599.528	26.08
599.65	39.08
599.773	8.08
599.895	32.08
600.017	35.08
600.139	7.08
600.262	13.08
600.384	10.08
600.506	10.08
600.628	22.08
600.751	34.08
600.873	8.08
600.995	2.08
601.118	36.08
601.24	14.08
601.362	9.08
601.484	6.08
601.607	12.08
601.729	13.08
601.851	12.08
601.973	6.08
602.096	24.08
602.218	15.08
602.34	10.08
602.462	25.08
602.585	27.08
602.707	-3.92
602.829	14.08
602.951	0.08
603.074	-6.92
603.196	-0.92
603.318	-0.92
603.44	15.08
603.563	-0.92
603.685	-12.92
603.807	8.08
603.929	7.08
604.052	7.08
604.174	3.08
604.296	8.08
604.418	11.08
604.541	42.08
604.663	-10.92
604.785	10.08
604.907	-0.92
605.03	4.08
605.152	42.08
605.274	16.08
605.396	6.08
605.519	10.08
605.641	12.08
605.763	17.08
605.885	7.08
606.008	10.08
606.13	12.08
606.252	15.08
606.374	-2.92
606.496	-3.92
606.619	-0.92
606.741	14.08
606.863	37.08
606.985	32.08
607.108	5.08
607.23	10.08
607.352	1.08
607.474	5.08
607.596	15.08
607.719	9.08
607.841	17.08
607.963	18.08
608.085	8.08
608.207	25.08
608.33	9.08
608.452	13.08
608.574	-2.92
608.696	35.08
608.819	20.08
608.941	25.08
609.063	8.08
609.185	0.08
609.307	16.08
609.43	21.08
609.552	37.08
609.674	0.08
609.796	12.08
609.918	16.08
610.041	8.08
610.163	24.08
610.285	8.08
610.407	9.08
610.529	7.08
610.652	14.08
610.774	15.08
610.896	3.08
611.018	11.08
611.14	19.08
611.263	0.08
611.385	11.08
611.507	27.08
611.629	2.08
611.751	17.08
611.873	44.08
611.996	17.08
612.118	24.08
612.24	-8.92
612.362	18.08
612.484	27.08
612.607	7.08
612.729	28.08
612.851	17.08
612.973	5.08
613.095	13.08
613.218	0.08
613.34	0.08
613.462	13.08
613.584	8.08
613.706	-4.92
613.828	37.08
613.951	23.08
614.073	20.08
614.195	-8.92
614.317	30.08
614.439	22.08
614.561	17.08
614.684	28.08
614.806	5.08
614.928	36.08
615.05	9.08
615.172	30.08
615.294	20.08
615.417	13.08
615.539	-7.92
615.661	2.08
615.783	31.08
615.905	38.08
616.027	77.08
616.15	95.08
616.272	78.08
616.394	57.08
616.516	47.08
616.638	24.08
616.76	21.08
616.883	14.08
617.005	-9.92
617.127	11.08
617.249	4.08
617.371	21.08
617.493	-0.92
617.615	7.08
617.738	7.08
617.86	23.08
617.982	10.08
618.104	15.08
618.226	-3.92
618.348	-14.92
618.471	-0.92
618.593	7.08
618.715	-4.92
618.837	12.08
618.959	28.08
619.081	20.08
619.203	13.08
619.326	-0.92
619.448	1.08
619.57	18.08
619.692	11.08
619.814	21.08
619.936	9.08
620.058	0.08
620.181	4.08
620.303	15.08
620.425	20.08
620.547	6.08
620.669	3.08
620.791	8.08
620.913	7.08
621.036	-3.92
621.158	3.08
621.28	15.08
621.402	0.08
621.524	-6.92
621.646	23.08
621.768	-5.92
621.891	-26.92
622.013	8.08
622.135	1.08
622.257	-6.92
622.379	-2.92
622.501	1.08
622.623	2.08
622.745	16.08
622.868	15.08
622.99	10.08
623.112	18.08
623.234	0.08
623.356	14.08
623.478	11.08
623.6	16.08
623.722	8.08
623.845	11.08
623.967	11.08
624.089	5.08
624.211	5.08
624.333	17.08
624.455	3.08
624.577	7.08
624.699	7.08
624.822	1.08
624.944	0.08
625.066	0.08
625.188	12.08
625.31	20.08
625.432	17.08
625.554	4.08
625.676	38.08
625.799	1.08
625.921	-8.92
626.043	17.08
626.165	18.08
626.287	-8.92
626.409	1.08
626.531	-1.92
626.653	5.08
626.775	15.08
626.898	0.08
627.02	0.08
627.142	25.08
627.264	17.08
627.386	9.08
627.508	18.08
627.63	10.08
627.752	14.08
627.874	5.08
627.997	12.08
628.119	25.08
628.241	43.08
628.363	31.08
628.485	12.08
628.607	10.08
628.729	-2.92
628.851	8.08
628.973	9.08
629.096	-1.92
629.218	14.08
629.34	4.08
629.462	-11.92
629.584	1.08
629.706	9.08
629.828	21.08
629.95	13.08
630.072	4.08
630.195	12.08
630.317	26.08
630.439	0.08
630.561	28.08
630.683	10.08
630.805	22.08
630.927	31.08
631.049	12.08
631.171	-2.92
631.293	15.08
631.416	15.08
631.538	10.08
631.66	25.08
631.782	28.08
631.904	16.08
632.026	5.08
632.148	-4.92
632.27	5.08
632.392	16.08
632.514	27.08
632.637	25.08
632.759	0.08
632.881	-16.92
633.003	11.08
633.125	-6.92
633.247	-0.92
633.369	18.08
633.491	8.08
633.613	18.08
633.735	-3.92
633.858	19.08
633.98	21.08
634.102	10.08
634.224	5.08
634.346	1.08
634.468	-0.92
634.59	9.08
634.712	-6.92
634.834	9.08
634.956	9.08
635.078	-9.92
635.201	-3.92
635.323	11.08
635.445	-0.92
635.567	-15.92
635.689	6.08
635.811	-0.92
635.933	13.08
636.055	0.08
636.177	6.08
636.299	13.08
636.421	-12.92
636.544	-13.92
636.666	14.08
636.788	11.08
636.91	8.08
637.032	9.08
637.154	15.08
637.276	23.08
637.398	28.08
637.52	39.08
637.642	9.08
637.764	-5.92
637.887	2.08
638.009	7.08
638.131	-14.92
638.253	9.08
638.375	17.08
638.497	3.08
638.619	-1.92
638.741	8.08
638.863	-8.92
638.985	-0.92
639.107	6.08
639.23	-1.92
639.352	20.08
639.474	10.08
639.596	14.08
639.718	5.08
639.84	6.08
639.962	8.08
640.084	25.08
640.206	15.08
640.328	-0.92
640.45	18.08
640.573	-1.92
640.695	14.08
640.817	31.08
640.939	27.08
641.061	16.08
641.183	6.08
641.305	11.08
641.427	7.08
641.549	-5.92
641.671	11.08
641.793	7.08
641.915	19.08
642.038	5.08
642.16	18.08
642.282	7.08
642.404	2.08
642.526	13.08
642.648	20.08
642.77	14.08
642.892	2.08
643.014	16.08
643.136	10.08
643.258	6.08
643.381	16.08
643.503	31.08
643.625	17.08
643.747	4.08
643.869	5.08
643.991	11.08
644.113	11.08
644.235	8.08
644.357	3.08
644.479	19.08
644.601	10.08
644.723	-6.92
644.846	-3.92
644.968	1.08
645.09	20.08
645.212	-8.92
645.334	-2.92
645.456	11.08
645.578	15.08
645.7	9.08
645.822	19.08
645.944	6.08
646.066	5.08
646.188	20.08
646.311	29.08
646.433	6.08
646.555	30.08
646.677	37.08
646.799	31.08
646.921	20.08
647.043	24.08
647.165	-5.92
647.287	0.08
647.409	8.08
647.531	13.08
647.654	-24.92
647.776	9.08
647.898	11.08
648.02	19.08
648.142	3.08
648.264	19.08
648.386	-0.92
648.508	-16.92
648.63	-3.92
648.752	-0.92
648.874	2.08
648.997	-9.92
649.119	24.08
649.241	35.08
649.363	44.08
649.485	8.08
649.607	9.08
649.729	-0.92
649.851	1.08
649.973	9.08
650.095	10.08
650.217	2.08
650.34	7.08
650.462	18.08
650.584	3.08
650.706	-3.92
650.828	6.08
650.95	-14.92
651.072	4.08
651.194	0.08
651.316	15.08
651.438	24.08
651.56	-12.92
651.683	5.08
651.805	26.08
651.927	10.08
652.049	7.08
652.171	13.08
652.293	-8.92
652.415	-5.92
652.537	-7.92
652.659	-10.92
652.781	8.08
652.903	24.08
653.026	29.08
653.148	21.08
653.27	8.08
653.392	21.08
653.514	12.08
653.636	1.08
653.758	1.08
653.88	1.08
654.002	-3.92
654.124	20.08
654.247	5.08
654.369	23.08
654.491	14.08
654.613	21.08
654.735	-11.92
654.857	6.08
654.979	5.08
655.101	26.08
655.223	39.08
655.345	16.08
655.468	14.08
655.59	19.08
655.712	47.08
655.834	30.08
655.956	39.08
656.078	29.08
656.2	33.08
656.322	31.08
656.444	28.08
656.566	52.08
656.689	39.08
656.811	60.08
656.933	101.08
657.055	88.08
657.177	175.08
657.299	245.08
657.421	520.08
657.543	1899.08
657.665	12615.08
657.787	15174.08
657.91	15303.08
658.032	15662.08
658.154	4679.08
658.276	3847.08
658.398	1234.08
658.52	1092.08
658.642	512.08
658.764	615.08
658.886	271.08
659.009	408.08
659.131	227.08
659.253	306.08
659.375	165.08
659.497	222.08
659.619	144.08
659.741	214.08
659.863	108.08
659.985	177.08
660.108	111.08
660.23	145.08
660.352	83.08
660.474	133.08
660.596	81.08
660.718	144.08
660.84	63.08
660.962	113.08
661.084	49.08
661.207	101.08
661.329	72.08
661.451	90.08
661.573	49.08
661.695	91.08
661.817	48.08
661.939	101.08
662.061	68.08
662.184	68.08
662.306	29.08
662.428	76.08
662.55	63.08
662.672	65.08
662.794	47.08
662.916	71.08
663.038	43.08
663.161	88.08
663.283	53.08
663.405	68.08
663.527	36.08
663.649	61.08
663.771	27.08
663.893	40.08
664.015	38.08
664.138	52.08
664.26	15.08
664.382	40.08
664.504	22.08
664.626	50.08
664.748	18.08
664.87	29.08
664.992	33.08
665.115	63.08
665.237	35.08
665.359	47.08
665.481	26.08
665.603	34.08
665.725	13.08
665.847	27.08
665.97	25.08
666.092	50.08
666.214	31.08
666.336	47.08
666.458	36.08
666.58	51.08
666.702	4.08
666.825	33.08
666.947	16.08
667.069	41.08
667.191	17.08
667.313	36.08
667.435	15.08
667.557	11.08
667.68	13.08
667.802	22.08
667.924	3.08
668.046	52.08
668.168	25.08
668.29	36.08
668.412	5.08
668.535	27.08
668.657	25.08
668.779	13.08
668.901	23.08
669.023	41.08
669.145	19.08
669.267	47.08
669.39	31.08
669.512	31.08
669.634	12.08
669.756	32.08
669.878	8.08
670	34.08
670.123	0.08
670.245	43.08
670.367	14.08
670.489	31.08
670.611	5.08
670.733	15.08
670.856	8.08
670.978	25.08
671.1	17.08
671.222	30.08
671.344	12.08
671.466	17.08
671.589	-8.92
671.711	13.08
671.833	5.08
671.955	36.08
672.077	11.08
672.199	26.08
672.322	28.08
672.444	33.08
672.566	27.08
672.688	16.08
672.81	9.08
672.932	27.08
673.055	-2.92
673.177	5.08
673.299	7.08
673.421	-3.92
673.543	8.08
673.665	21.08
673.788	26.08
673.91	9.08
674.032	-4.92
674.154	23.08
674.276	-1.92
674.399	7.08
674.521	17.08
674.643	15.08
674.765	1.08
674.887	37.08
675.009	28.08
675.132	9.08
675.254	5.08
675.376	0.08
675.498	19.08
675.62	48.08
675.743	19.08
675.865	17.08
675.987	-8.92
676.109	3.08
676.231	21.08
676.354	45.08
676.476	5.08
676.598	15.08
676.72	0.08
676.842	21.08
676.965	15.08
677.087	36.08
677.209	8.08
677.331	22.08
677.453	19.08
677.576	32.08
677.698	14.08
677.82	14.08
677.942	1.08
678.064	4.08
678.187	17.08
678.309	30.08
678.431	2.08
678.553	4.08
678.675	24.08
678.798	37.08
678.92	18.08
679.042	4.08
679.164	8.08
679.286	27.08
679.409	15.08
679.531	29.08
679.653	3.08
679.775	-2.92
679.898	-4.92
680.02	14.08
680.142	4.08
680.264	11.08
680.386	-8.92
680.509	19.08
680.631	10.08
680.753	12.08
680.875	-11.92
680.998	18.08
681.12	11.08
681.242	20.08
681.364	-4.92
681.486	20.08
681.609	6.08
681.731	-8.92
681.853	1.08
681.975	11.08
682.098	1.08
682.22	27.08
682.342	8.08
682.464	27.08
682.587	12.08
682.709	7.08
682.831	2.08
682.953	3.08
683.076	1.08
683.198	13.08
683.32	11.08
683.442	19.08
683.565	6.08
683.687	0.08
683.809	-4.92
683.931	3.08
684.054	12.08
684.176	13.08
684.298	17.08
684.42	19.08
684.543	8.08
684.665	1.08
684.787	9.08
684.909	7.08
685.032	15.08
685.154	1.08
685.276	-0.92
685.398	6.08
685.521	-10.92
685.643	18.08
685.765	14.08
685.887	17.08
686.01	-1.92
686.132	13.08
686.254	14.08
686.377	25.08
686.499	21.08
686.621	16.08
686.743	4.08
686.866	13.08
686.988	17.08
687.11	29.08
687.232	-3.92
687.355	-21.92
687.477	3.08
687.599	33.08
687.722	16.08
687.844	3.08
687.966	7.08
688.088	22.08
688.211	23.08
688.333	21.08
688.455	16.08
688.578	31.08
688.7	10.08
688.822	14.08
688.944	-11.92
689.067	33.08
689.189	2.08
689.311	-9.92
689.434	-3.92
689.556	9.08
689.678	8.08
689.801	4.08
689.923	11.08
690.045	33.08
690.167	40.08
690.29	24.08
690.412	5.08
690.534	16.08
690.657	-2.92
690.779	1.08
690.901	-8.92
691.024	9.08
691.146	-4.92
691.268	1.08
691.391	0.08
691.513	16.08
691.635	14.08
691.758	20.08
691.88	11.08
692.002	1.08
692.125	-8.92
692.247	6.08
692.369	5.08
692.492	-7.92
692.614	1.08
692.736	3.08
692.859	-3.92
692.981	16.08
693.103	5.08
693.226	0.08
693.348	20.08
693.47	-4.92
693.593	12.08
693.715	4.08
693.837	18.08
693.96	4.08
694.082	8.08
694.204	6.08
694.327	15.08
694.449	15.08
694.571	4.08
694.694	4.08
694.816	13.08
694.938	-5.92
695.061	12.08
695.183	19.08
695.305	3.08
695.428	-0.92
695.55	-11.92
695.672	3.08
695.795	23.08
695.917	24.08
696.04	7.08
696.162	0.08
696.284	19.08
696.407	-6.92
696.529	-2.92
696.651	48.08
696.774	5.08
696.896	18.08
697.019	23.08
697.141	16.08
697.263	9.08
697.386	-0.92
697.508	-1.92
697.63	11.08
697.753	10.08
697.875	5.08
697.998	-0.92
698.12	10.08
698.242	3.08
698.365	-7.92
698.487	-6.92
698.61	6.08
698.732	10.08
698.854	3.08
698.977	20.08
699.099	23.08
699.221	12.08
699.344	-2.92
699.466	-11.92
699.589	9.08
699.711	-5.92
699.834	11.08
699.956	23.08
700.078	0.08
700.201	5.08
700.323	22.08
700.446	27.08
700.568	12.08
700.69	15.08
700.813	22.08
700.935	-1.92
701.058	30.08
701.18	9.08
701.302	9.08
701.425	-10.92
701.547	-3.92
701.67	6.08
701.792	20.08
701.915	-3.92
702.037	8.08
702.159	-9.92
702.282	1.08
702.404	7.08
702.527	29.08
702.649	32.08
702.772	25.08
702.894	3.08
703.017	4.08
703.139	9.08
703.261	31.08
703.384	19.08
703.506	4.08
703.629	-3.92
703.751	16.08
703.874	19.08
703.996	16.08
704.119	-4.92
704.241	2.08
704.364	-9.92
704.486	19.08
704.608	21.08
704.731	13.08
704.853	18.08
704.976	5.08
705.098	11.08
705.221	12.08
705.343	9.08
705.466	23.08
705.588	17.08
705.711	25.08
705.833	20.08
705.956	15.08
706.078	-6.92
706.201	8.08
706.323	2.08
706.446	11.08
