Data from LowRes_H2_15_26_11_07_2024_HR4C61881__65__15-28-20-136.txt Node

Date: Thu Nov 07 15:28:20 EST 2024
User: crc00042
Spectrometer: HR4C6188
Trigger mode: 4
Integration Time (sec): 1.000000E-1
Scans to average: 1
Electric dark correction enabled: true
Nonlinearity correction enabled: false
Boxcar width: 0
XAxis mode: Wavelengths
Number of Pixels in Spectrum: 3648
>>>>>Begin Spectral Data<<<<<
245.66	-119.62
245.797	-119.62
245.934	-119.62
246.071	-81.62
246.208	6.38
246.344	2.38
246.481	-10.62
246.618	-4.62
246.755	13.38
246.892	1.38
247.029	-3.62
247.165	-29.62
247.302	19.38
247.439	4.38
247.576	-3.62
247.713	-26.62
247.849	35.38
247.986	2.38
248.123	6.38
248.26	-9.62
248.396	-2.62
248.533	18.38
248.67	-4.62
248.806	12.38
248.943	1.38
249.08	2.38
249.216	14.38
249.353	-9.62
249.49	5.38
249.626	12.38
249.763	16.38
249.9	-5.62
250.036	-17.62
250.173	1.38
250.309	4.38
250.446	-8.62
250.582	-10.62
250.719	1.38
250.856	-4.62
250.992	3.38
251.129	5.38
251.265	2.38
251.402	1.38
251.538	-1.62
251.675	-0.62
251.811	12.38
251.948	-1.62
252.084	10.38
252.221	-21.62
252.357	-14.62
252.493	9.38
252.63	11.38
252.766	17.38
252.903	10.38
253.039	-4.62
253.175	1.38
253.312	18.38
253.448	-6.62
253.585	-31.62
253.721	10.38
253.857	-7.62
253.994	20.38
254.13	2.38
254.266	4.38
254.403	-14.62
254.539	13.38
254.675	22.38
254.811	11.38
254.948	-11.62
255.084	-17.62
255.22	-11.62
255.356	-6.62
255.493	19.38
255.629	16.38
255.765	7.38
255.901	10.38
256.037	4.38
256.174	23.38
256.31	-10.62
256.446	-0.62
256.582	1.38
256.718	16.38
256.854	14.38
256.991	10.38
257.127	20.38
257.263	-5.62
257.399	-6.62
257.535	-14.62
257.671	-6.62
257.807	-9.62
257.943	-20.62
258.079	-5.62
258.215	-21.62
258.351	9.38
258.487	-1.62
258.623	26.38
258.759	4.38
258.895	-3.62
259.031	1.38
259.167	-37.62
259.303	11.38
259.439	4.38
259.575	18.38
259.711	-1.62
259.847	-2.62
259.983	3.38
260.119	-6.62
260.255	-0.62
260.391	-5.62
260.527	18.38
260.663	16.38
260.799	11.38
260.934	6.38
261.07	1.38
261.206	-3.62
261.342	-3.62
261.478	14.38
261.614	-3.62
261.749	-4.62
261.885	-13.62
262.021	-6.62
262.157	13.38
262.293	9.38
262.428	-3.62
262.564	-2.62
262.7	8.38
262.836	-10.62
262.971	21.38
263.107	18.38
263.243	19.38
263.378	-0.62
263.514	-11.62
263.65	8.38
263.785	-23.62
263.921	-8.62
264.057	3.38
264.192	5.38
264.328	15.38
264.464	-15.62
264.599	-6.62
264.735	9.38
264.871	-7.62
265.006	5.38
265.142	6.38
265.277	0.38
265.413	31.38
265.548	13.38
265.684	4.38
265.819	-7.62
265.955	-27.62
266.091	-20.62
266.226	4.38
266.362	7.38
266.497	8.38
266.633	-5.62
266.768	10.38
266.903	7.38
267.039	12.38
267.174	21.38
267.31	4.38
267.445	-4.62
267.581	7.38
267.716	28.38
267.851	7.38
267.987	13.38
268.122	26.38
268.258	-7.62
268.393	-21.62
268.528	20.38
268.664	-17.62
268.799	-8.62
268.934	4.38
269.07	3.38
269.205	-7.62
269.34	21.38
269.476	-10.62
269.611	-16.62
269.746	20.38
269.881	-4.62
270.017	-5.62
270.152	7.38
270.287	1.38
270.422	12.38
270.558	-19.62
270.693	-0.62
270.828	-9.62
270.963	-13.62
271.098	-10.62
271.234	-0.62
271.369	9.38
271.504	-0.62
271.639	-7.62
271.774	-8.62
271.909	-5.62
272.045	-17.62
272.18	8.38
272.315	-12.62
272.45	19.38
272.585	6.38
272.72	-2.62
272.855	6.38
272.99	14.38
273.125	-11.62
273.26	-24.62
273.395	-9.62
273.53	-3.62
273.665	25.38
273.8	9.38
273.935	0.38
274.07	2.38
274.205	-7.62
274.34	-1.62
274.475	2.38
274.61	28.38
274.745	-2.62
274.88	7.38
275.015	-12.62
275.15	10.38
275.285	-0.62
275.42	7.38
275.555	7.38
275.69	14.38
275.825	2.38
275.959	13.38
276.094	5.38
276.229	11.38
276.364	-10.62
276.499	-4.62
276.634	-6.62
276.768	-5.62
276.903	-3.62
277.038	16.38
277.173	3.38
277.308	-16.62
277.442	-22.62
277.577	-23.62
277.712	-10.62
277.847	-2.62
277.981	4.38
278.116	-46.62
278.251	8.38
278.386	-3.62
278.52	-2.62
278.655	-5.62
278.79	9.38
278.924	16.38
279.059	11.38
279.194	-4.62
279.328	25.38
279.463	21.38
279.598	16.38
279.732	15.38
279.867	10.38
280.001	5.38
280.136	-11.62
280.271	0.38
280.405	15.38
280.54	4.38
280.674	-15.62
280.809	26.38
280.943	-12.62
281.078	2.38
281.213	25.38
281.347	4.38
281.482	8.38
281.616	2.38
281.751	-6.62
281.885	-22.62
282.02	-9.62
282.154	18.38
282.288	-20.62
282.423	-8.62
282.557	-32.62
282.692	-0.62
282.826	-12.62
282.961	16.38
283.095	4.38
283.229	2.38
283.364	-5.62
283.498	-4.62
283.633	1.38
283.767	-9.62
283.901	-4.62
284.036	12.38
284.17	7.38
284.304	10.38
284.439	0.38
284.573	-10.62
284.707	13.38
284.842	8.38
284.976	3.38
285.11	-14.62
285.244	-5.62
285.379	41.38
285.513	-0.62
285.647	-10.62
285.781	-8.62
285.916	7.38
286.05	4.38
286.184	36.38
286.318	-0.62
286.453	9.38
286.587	-5.62
286.721	-3.62
286.855	10.38
286.989	-6.62
287.123	-16.62
287.258	3.38
287.392	-11.62
287.526	8.38
287.66	5.38
287.794	2.38
287.928	-0.62
288.062	10.38
288.196	4.38
288.33	9.38
288.464	17.38
288.598	19.38
288.733	16.38
288.867	22.38
289.001	16.38
289.135	7.38
289.269	-4.62
289.403	9.38
289.537	6.38
289.671	1.38
289.805	-30.62
289.939	-4.62
290.073	-13.62
290.207	4.38
290.34	-21.62
290.474	9.38
290.608	1.38
290.742	-5.62
290.876	5.38
291.01	7.38
291.144	7.38
291.278	30.38
291.412	-1.62
291.546	-12.62
291.679	-5.62
291.813	-9.62
291.947	3.38
292.081	3.38
292.215	18.38
292.349	8.38
292.482	18.38
292.616	-15.62
292.75	6.38
292.884	1.38
293.018	-4.62
293.151	-11.62
293.285	-1.62
293.419	-19.62
293.553	12.38
293.686	10.38
293.82	7.38
293.954	8.38
294.088	29.38
294.221	-13.62
294.355	-6.62
294.489	15.38
294.622	-7.62
294.756	-16.62
294.89	-2.62
295.023	-5.62
295.157	21.38
295.291	15.38
295.424	18.38
295.558	4.38
295.691	-8.62
295.825	-5.62
295.959	0.38
296.092	-13.62
296.226	0.38
296.359	-5.62
296.493	5.38
296.627	3.38
296.76	19.38
296.894	1.38
297.027	1.38
297.161	-1.62
297.294	-10.62
297.428	1.38
297.561	4.38
297.695	-1.62
297.828	4.38
297.962	7.38
298.095	-11.62
298.229	6.38
298.362	5.38
298.495	-6.62
298.629	-7.62
298.762	4.38
298.896	8.38
299.029	-7.62
299.162	-0.62
299.296	2.38
299.429	1.38
299.563	8.38
299.696	12.38
299.829	2.38
299.963	12.38
300.096	19.38
300.229	13.38
300.363	7.38
300.496	-3.62
300.629	-11.62
300.763	3.38
300.896	-10.62
301.029	3.38
301.162	7.38
301.296	-8.62
301.429	8.38
301.562	-10.62
301.695	-3.62
301.829	1.38
301.962	8.38
302.095	8.38
302.228	-11.62
302.362	-0.62
302.495	-2.62
302.628	11.38
302.761	-0.62
302.894	-1.62
303.027	20.38
303.161	3.38
303.294	-6.62
303.427	26.38
303.56	10.38
303.693	15.38
303.826	10.38
303.959	-13.62
304.092	-16.62
304.225	-5.62
304.359	7.38
304.492	0.38
304.625	-1.62
304.758	11.38
304.891	-12.62
305.024	20.38
305.157	5.38
305.29	-5.62
305.423	-21.62
305.556	7.38
305.689	0.38
305.822	-18.62
305.955	-4.62
306.088	-11.62
306.221	-25.62
306.354	3.38
306.487	1.38
306.62	-4.62
306.752	1.38
306.885	6.38
307.018	2.38
307.151	9.38
307.284	12.38
307.417	-12.62
307.55	11.38
307.683	1.38
307.816	11.38
307.948	19.38
308.081	28.38
308.214	14.38
308.347	27.38
308.48	3.38
308.613	-21.62
308.745	14.38
308.878	-14.62
309.011	-8.62
309.144	15.38
309.277	-10.62
309.409	18.38
309.542	-13.62
309.675	3.38
309.808	-11.62
309.94	0.38
310.073	-3.62
310.206	8.38
310.339	8.38
310.471	-3.62
310.604	14.38
310.737	-17.62
310.869	-5.62
311.002	-3.62
311.135	-14.62
311.267	-29.62
311.4	-13.62
311.533	19.38
311.665	-12.62
311.798	0.38
311.93	0.38
312.063	-3.62
312.196	0.38
312.328	-11.62
312.461	-12.62
312.593	4.38
312.726	20.38
312.859	5.38
312.991	24.38
313.124	-22.62
313.256	13.38
313.389	8.38
313.521	-10.62
313.654	-12.62
313.786	-10.62
313.919	-12.62
314.051	2.38
314.184	12.38
314.316	3.38
314.449	-16.62
314.581	-4.62
314.714	-5.62
314.846	13.38
314.978	-11.62
315.111	-21.62
315.243	4.38
315.376	10.38
315.508	8.38
315.641	2.38
315.773	8.38
315.905	-5.62
316.038	19.38
316.17	-0.62
316.302	-11.62
316.435	-3.62
316.567	-1.62
316.699	19.38
316.832	-4.62
316.964	-18.62
317.096	-3.62
317.229	-24.62
317.361	-22.62
317.493	8.38
317.625	-16.62
317.758	-1.62
317.89	18.38
318.022	13.38
318.155	-4.62
318.287	14.38
318.419	-8.62
318.551	6.38
318.683	-3.62
318.816	-9.62
318.948	-19.62
319.08	-9.62
319.212	2.38
319.344	8.38
319.477	-0.62
319.609	-8.62
319.741	26.38
319.873	-3.62
320.005	-19.62
320.137	-0.62
320.269	4.38
320.401	-13.62
320.534	-5.62
320.666	-7.62
320.798	-11.62
320.93	-18.62
321.062	-0.62
321.194	-2.62
321.326	-3.62
321.458	7.38
321.59	8.38
321.722	2.38
321.854	1.38
321.986	3.38
322.118	-12.62
322.25	5.38
322.382	-1.62
322.514	-0.62
322.646	2.38
322.778	16.38
322.91	-3.62
323.042	-1.62
323.174	-0.62
323.306	-8.62
323.438	-28.62
323.57	-9.62
323.702	2.38
323.834	7.38
323.966	10.38
324.097	-3.62
324.229	6.38
324.361	14.38
324.493	10.38
324.625	-8.62
324.757	0.38
324.889	6.38
325.021	18.38
325.152	24.38
325.284	12.38
325.416	-6.62
325.548	-0.62
325.68	12.38
325.811	1.38
325.943	2.38
326.075	-14.62
326.207	12.38
326.339	5.38
326.47	-10.62
326.602	6.38
326.734	25.38
326.866	32.38
326.997	-5.62
327.129	-7.62
327.261	-32.62
327.392	-4.62
327.524	-1.62
327.656	7.38
327.787	13.38
327.919	0.38
328.051	-1.62
328.182	18.38
328.314	26.38
328.446	0.38
328.577	12.38
328.709	3.38
328.841	9.38
328.972	-11.62
329.104	-14.62
329.235	-1.62
329.367	-8.62
329.499	-8.62
329.63	-4.62
329.762	9.38
329.893	17.38
330.025	-3.62
330.156	-12.62
330.288	-3.62
330.419	24.38
330.551	21.38
330.683	-3.62
330.814	-2.62
330.946	9.38
331.077	-3.62
331.208	0.38
331.34	3.38
331.471	-1.62
331.603	7.38
331.734	-14.62
331.866	4.38
331.997	12.38
332.129	-3.62
332.26	11.38
332.392	6.38
332.523	-7.62
332.654	-17.62
332.786	11.38
332.917	-0.62
333.048	15.38
333.18	16.38
333.311	-3.62
333.443	-3.62
333.574	-7.62
333.705	4.38
333.837	-19.62
333.968	11.38
334.099	10.38
334.231	0.38
334.362	3.38
334.493	15.38
334.624	12.38
334.756	20.38
334.887	21.38
335.018	19.38
335.15	7.38
335.281	4.38
335.412	-5.62
335.543	11.38
335.675	-6.62
335.806	-3.62
335.937	1.38
336.068	16.38
336.199	16.38
336.331	-6.62
336.462	5.38
336.593	9.38
336.724	5.38
336.855	0.38
336.986	25.38
337.118	1.38
337.249	11.38
337.38	31.38
337.511	-5.62
337.642	-3.62
337.773	4.38
337.904	7.38
338.035	16.38
338.166	3.38
338.298	8.38
338.429	-5.62
338.56	12.38
338.691	13.38
338.822	-7.62
338.953	-5.62
339.084	18.38
339.215	12.38
339.346	0.38
339.477	-4.62
339.608	8.38
339.739	-0.62
339.87	-16.62
340.001	2.38
340.132	-6.62
340.263	-7.62
340.394	7.38
340.525	11.38
340.656	-5.62
340.787	-2.62
340.918	16.38
341.049	17.38
341.179	24.38
341.31	-7.62
341.441	1.38
341.572	4.38
341.703	6.38
341.834	-6.62
341.965	-4.62
342.096	-5.62
342.227	10.38
342.357	-11.62
342.488	-4.62
342.619	-23.62
342.75	9.38
342.881	-15.62
343.012	20.38
343.142	26.38
343.273	-5.62
343.404	12.38
343.535	37.38
343.666	16.38
343.796	12.38
343.927	4.38
344.058	0.38
344.189	18.38
344.319	13.38
344.45	16.38
344.581	1.38
344.712	-9.62
344.842	-4.62
344.973	-2.62
345.104	2.38
345.234	-11.62
345.365	-9.62
345.496	-8.62
345.626	1.38
345.757	-2.62
345.888	-9.62
346.018	7.38
346.149	10.38
346.28	13.38
346.41	14.38
346.541	17.38
346.672	15.38
346.802	18.38
346.933	8.38
347.063	-9.62
347.194	8.38
347.325	11.38
347.455	19.38
347.586	3.38
347.716	-2.62
347.847	12.38
347.977	12.38
348.108	11.38
348.238	0.38
348.369	-0.62
348.499	12.38
348.63	8.38
348.76	-15.62
348.891	-1.62
349.021	10.38
349.152	0.38
349.282	-17.62
349.413	9.38
349.543	-4.62
349.674	-1.62
349.804	10.38
349.935	-1.62
350.065	-2.62
350.196	-14.62
350.326	13.38
350.456	12.38
350.587	16.38
350.717	-5.62
350.848	11.38
350.978	9.38
351.108	4.38
351.239	10.38
351.369	-16.62
351.499	-13.62
351.63	-7.62
351.76	1.38
351.89	-21.62
352.021	7.38
352.151	-10.62
352.281	9.38
352.412	21.38
352.542	19.38
352.672	8.38
352.803	11.38
352.933	-0.62
353.063	9.38
353.193	12.38
353.324	-16.62
353.454	16.38
353.584	24.38
353.714	4.38
353.845	-5.62
353.975	-3.62
354.105	4.38
354.235	15.38
354.365	6.38
354.496	18.38
354.626	9.38
354.756	8.38
354.886	7.38
355.016	9.38
355.146	3.38
355.277	11.38
355.407	-0.62
355.537	-3.62
355.667	-10.62
355.797	-4.62
355.927	-10.62
356.057	-8.62
356.187	-7.62
356.318	7.38
356.448	0.38
356.578	9.38
356.708	14.38
356.838	4.38
356.968	-6.62
357.098	4.38
357.228	6.38
357.358	10.38
357.488	-12.62
357.618	21.38
357.748	27.38
357.878	23.38
358.008	5.38
358.138	-7.62
358.268	14.38
358.398	26.38
358.528	-5.62
358.658	16.38
358.788	-2.62
358.918	8.38
359.048	9.38
359.178	8.38
359.308	4.38
359.438	12.38
359.568	17.38
359.698	11.38
359.827	5.38
359.957	-15.62
360.087	12.38
360.217	-7.62
360.347	4.38
360.477	19.38
360.607	-11.62
360.737	36.38
360.866	-3.62
360.996	-12.62
361.126	-1.62
361.256	15.38
361.386	17.38
361.516	9.38
361.645	-9.62
361.775	24.38
361.905	-17.62
362.035	7.38
362.165	-7.62
362.294	-19.62
362.424	18.38
362.554	20.38
362.684	6.38
362.813	11.38
362.943	-1.62
363.073	12.38
363.203	12.38
363.332	15.38
363.462	-12.62
363.592	-3.62
363.721	5.38
363.851	-10.62
363.981	11.38
364.111	19.38
364.24	-0.62
364.37	22.38
364.5	-0.62
364.629	18.38
364.759	-4.62
364.888	-26.62
365.018	6.38
365.148	1.38
365.277	9.38
365.407	10.38
365.537	17.38
365.666	5.38
365.796	-13.62
365.925	8.38
366.055	21.38
366.184	-21.62
366.314	9.38
366.444	7.38
366.573	7.38
366.703	3.38
366.832	1.38
366.962	0.38
367.091	26.38
367.221	6.38
367.35	6.38
367.48	40.38
367.609	17.38
367.739	21.38
367.868	-3.62
367.998	0.38
368.127	18.38
368.257	19.38
368.386	31.38
368.516	23.38
368.645	5.38
368.775	13.38
368.904	21.38
369.033	18.38
369.163	-11.62
369.292	24.38
369.422	8.38
369.551	13.38
369.68	16.38
369.81	8.38
369.939	4.38
370.069	10.38
370.198	22.38
370.327	-20.62
370.457	6.38
370.586	1.38
370.715	12.38
370.845	3.38
370.974	24.38
371.103	24.38
371.233	23.38
371.362	-6.62
371.491	-15.62
371.621	3.38
371.75	-6.62
371.879	-12.62
372.008	-6.62
372.138	1.38
372.267	8.38
372.396	-5.62
372.525	21.38
372.655	9.38
372.784	27.38
372.913	-4.62
373.042	29.38
373.172	7.38
373.301	-6.62
373.43	-9.62
373.559	-6.62
373.688	-8.62
373.818	32.38
373.947	21.38
374.076	15.38
374.205	14.38
374.334	32.38
374.463	1.38
374.593	-4.62
374.722	-0.62
374.851	19.38
374.98	-4.62
375.109	-9.62
375.238	1.38
375.367	14.38
375.496	-19.62
375.625	-21.62
375.755	1.38
375.884	33.38
376.013	10.38
376.142	0.38
376.271	3.38
376.4	-3.62
376.529	3.38
376.658	25.38
376.787	3.38
376.916	14.38
377.045	4.38
377.174	14.38
377.303	-5.62
377.432	20.38
377.561	26.38
377.69	-0.62
377.819	5.38
377.948	4.38
378.077	-13.62
378.206	-7.62
378.335	1.38
378.464	15.38
378.593	30.38
378.722	0.38
378.851	12.38
378.98	16.38
379.108	-9.62
379.237	-1.62
379.366	14.38
379.495	23.38
379.624	2.38
379.753	10.38
379.882	1.38
380.011	-0.62
380.14	7.38
380.268	7.38
380.397	-3.62
380.526	12.38
380.655	-15.62
380.784	-19.62
380.913	-19.62
381.041	8.38
381.17	-2.62
381.299	3.38
381.428	17.38
381.557	16.38
381.685	-0.62
381.814	12.38
381.943	14.38
382.072	4.38
382.2	0.38
382.329	19.38
382.458	4.38
382.587	5.38
382.715	13.38
382.844	17.38
382.973	11.38
383.102	15.38
383.23	16.38
383.359	5.38
383.488	27.38
383.616	-0.62
383.745	-7.62
383.874	29.38
384.003	7.38
384.131	-9.62
384.26	-5.62
384.389	13.38
384.517	-7.62
384.646	-7.62
384.774	3.38
384.903	14.38
385.032	17.38
385.16	8.38
385.289	-19.62
385.418	0.38
385.546	19.38
385.675	15.38
385.803	10.38
385.932	-7.62
386.06	-5.62
386.189	21.38
386.318	12.38
386.446	16.38
386.575	-6.62
386.703	7.38
386.832	-7.62
386.96	-8.62
387.089	26.38
387.217	21.38
387.346	-8.62
387.474	9.38
387.603	1.38
387.731	8.38
387.86	5.38
387.988	9.38
388.117	16.38
388.245	1.38
388.374	-9.62
388.502	7.38
388.631	-11.62
388.759	2.38
388.888	-0.62
389.016	-12.62
389.144	7.38
389.273	-8.62
389.401	4.38
389.53	-17.62
389.658	-0.62
389.786	-16.62
389.915	5.38
390.043	-0.62
390.172	3.38
390.3	18.38
390.428	-15.62
390.557	-5.62
390.685	1.38
390.813	22.38
390.942	15.38
391.07	-0.62
391.198	4.38
391.327	6.38
391.455	-12.62
391.583	31.38
391.712	9.38
391.84	0.38
391.968	-21.62
392.096	22.38
392.225	-8.62
392.353	13.38
392.481	12.38
392.609	16.38
392.738	23.38
392.866	-4.62
392.994	-13.62
393.122	25.38
393.251	-18.62
393.379	5.38
393.507	-12.62
393.635	-12.62
393.764	-2.62
393.892	14.38
394.02	-3.62
394.148	8.38
394.276	18.38
394.404	23.38
394.533	-0.62
394.661	11.38
394.789	13.38
394.917	18.38
395.045	-8.62
395.173	-4.62
395.302	16.38
395.43	13.38
395.558	10.38
395.686	-16.62
395.814	-7.62
395.942	-15.62
396.07	-0.62
396.198	10.38
396.326	14.38
396.454	6.38
396.582	18.38
396.711	12.38
396.839	25.38
396.967	18.38
397.095	2.38
397.223	18.38
397.351	23.38
397.479	25.38
397.607	7.38
397.735	8.38
397.863	12.38
397.991	9.38
398.119	-1.62
398.247	-9.62
398.375	13.38
398.503	-5.62
398.631	-3.62
398.759	-12.62
398.887	-12.62
399.015	3.38
399.143	-5.62
399.271	23.38
399.399	4.38
399.526	20.38
399.654	16.38
399.782	-15.62
399.91	16.38
400.038	22.38
400.166	2.38
400.294	21.38
400.422	-12.62
400.55	0.38
400.678	2.38
400.805	-4.62
400.933	4.38
401.061	10.38
401.189	14.38
401.317	16.38
401.445	33.38
401.573	23.38
401.7	3.38
401.828	-24.62
401.956	-6.62
402.084	3.38
402.212	5.38
402.34	7.38
402.467	16.38
402.595	15.38
402.723	5.38
402.851	27.38
402.978	4.38
403.106	17.38
403.234	-13.62
403.362	28.38
403.489	29.38
403.617	12.38
403.745	16.38
403.873	-0.62
404	12.38
404.128	4.38
404.256	13.38
404.384	33.38
404.511	23.38
404.639	-6.62
404.767	5.38
404.894	25.38
405.022	16.38
405.15	20.38
405.277	3.38
405.405	-10.62
405.533	4.38
405.66	-0.62
405.788	-12.62
405.916	-13.62
406.043	-25.62
406.171	-3.62
406.299	-8.62
406.426	1.38
406.554	13.38
406.681	10.38
406.809	-0.62
406.937	-2.62
407.064	3.38
407.192	14.38
407.319	19.38
407.447	-1.62
407.574	11.38
407.702	17.38
407.83	7.38
407.957	-0.62
408.085	5.38
408.212	-8.62
408.34	8.38
408.467	6.38
408.595	8.38
408.722	24.38
408.85	16.38
408.977	11.38
409.105	8.38
409.232	18.38
409.36	14.38
409.487	8.38
409.615	13.38
409.742	30.38
409.87	19.38
409.997	20.38
410.125	33.38
410.252	39.38
410.379	44.38
410.507	31.38
410.634	11.38
410.762	4.38
410.889	-0.62
411.017	5.38
411.144	5.38
411.271	10.38
411.399	0.38
411.526	2.38
411.653	7.38
411.781	24.38
411.908	-0.62
412.036	-12.62
412.163	11.38
412.29	6.38
412.418	5.38
412.545	11.38
412.672	-2.62
412.8	26.38
412.927	21.38
413.054	15.38
413.182	16.38
413.309	10.38
413.436	0.38
413.564	8.38
413.691	-2.62
413.818	20.38
413.945	6.38
414.073	1.38
414.2	8.38
414.327	35.38
414.454	10.38
414.582	6.38
414.709	-14.62
414.836	-3.62
414.963	3.38
415.091	5.38
415.218	3.38
415.345	-1.62
415.472	-9.62
415.6	10.38
415.727	16.38
415.854	28.38
415.981	13.38
416.108	-4.62
416.236	0.38
416.363	17.38
416.49	-19.62
416.617	3.38
416.744	15.38
416.871	18.38
416.998	17.38
417.126	13.38
417.253	-6.62
417.38	-4.62
417.507	-14.62
417.634	10.38
417.761	20.38
417.888	9.38
418.015	23.38
418.143	10.38
418.27	39.38
418.397	9.38
418.524	1.38
418.651	4.38
418.778	9.38
418.905	30.38
419.032	5.38
419.159	-0.62
419.286	26.38
419.413	15.38
419.54	28.38
419.667	2.38
419.794	-5.62
419.921	-0.62
420.048	13.38
420.175	14.38
420.302	-3.62
420.429	5.38
420.556	-3.62
420.683	-1.62
420.81	8.38
420.937	17.38
421.064	19.38
421.191	17.38
421.318	40.38
421.445	36.38
421.572	14.38
421.699	14.38
421.826	12.38
421.953	-3.62
422.08	15.38
422.207	-15.62
422.334	0.38
422.461	25.38
422.588	3.38
422.714	12.38
422.841	4.38
422.968	18.38
423.095	9.38
423.222	-5.62
423.349	23.38
423.476	19.38
423.603	10.38
423.729	-3.62
423.856	1.38
423.983	20.38
424.11	-1.62
424.237	7.38
424.364	23.38
424.491	14.38
424.617	5.38
424.744	-4.62
424.871	10.38
424.998	-5.62
425.125	4.38
425.251	-13.62
425.378	-10.62
425.505	9.38
425.632	19.38
425.758	10.38
425.885	10.38
426.012	15.38
426.139	18.38
426.266	-11.62
426.392	12.38
426.519	12.38
426.646	-0.62
426.772	2.38
426.899	2.38
427.026	16.38
427.153	15.38
427.279	27.38
427.406	2.38
427.533	-3.62
427.659	-18.62
427.786	-4.62
427.913	20.38
428.039	-2.62
428.166	-1.62
428.293	11.38
428.419	21.38
428.546	17.38
428.673	-1.62
428.799	-3.62
428.926	2.38
429.053	12.38
429.179	22.38
429.306	26.38
429.433	25.38
429.559	11.38
429.686	-10.62
429.812	3.38
429.939	4.38
430.066	1.38
430.192	-1.62
430.319	14.38
430.445	-0.62
430.572	9.38
430.699	-15.62
430.825	20.38
430.952	23.38
431.078	3.38
431.205	1.38
431.331	-8.62
431.458	-0.62
431.584	19.38
431.711	11.38
431.837	23.38
431.964	14.38
432.09	6.38
432.217	-9.62
432.343	0.38
432.47	29.38
432.596	5.38
432.723	11.38
432.849	-0.62
432.976	25.38
433.102	4.38
433.229	6.38
433.355	51.38
433.482	68.38
433.608	141.38
433.735	144.38
433.861	138.38
433.987	155.38
434.114	230.38
434.24	207.38
434.367	57.38
434.493	21.38
434.62	16.38
434.746	22.38
434.872	17.38
434.999	17.38
435.125	8.38
435.252	0.38
435.378	4.38
435.504	12.38
435.631	7.38
435.757	-0.62
435.883	8.38
436.01	17.38
436.136	6.38
436.262	-8.62
436.389	-2.62
436.515	15.38
436.641	18.38
436.768	6.38
436.894	24.38
437.02	17.38
437.147	26.38
437.273	26.38
437.399	-0.62
437.526	35.38
437.652	-8.62
437.778	10.38
437.904	-0.62
438.031	18.38
438.157	17.38
438.283	3.38
438.409	-8.62
438.536	-3.62
438.662	10.38
438.788	25.38
438.914	16.38
439.041	7.38
439.167	32.38
439.293	4.38
439.419	-11.62
439.546	6.38
439.672	15.38
439.798	6.38
439.924	0.38
440.05	4.38
440.177	33.38
440.303	-4.62
440.429	-9.62
440.555	0.38
440.681	-1.62
440.807	16.38
440.934	14.38
441.06	22.38
441.186	8.38
441.312	12.38
441.438	17.38
441.564	10.38
441.69	16.38
441.816	0.38
441.943	9.38
442.069	8.38
442.195	6.38
442.321	14.38
442.447	4.38
442.573	-4.62
442.699	3.38
442.825	-5.62
442.951	13.38
443.077	26.38
443.203	15.38
443.33	-1.62
443.456	-4.62
443.582	14.38
443.708	8.38
443.834	8.38
443.96	4.38
444.086	8.38
444.212	22.38
444.338	6.38
444.464	16.38
444.59	26.38
444.716	14.38
444.842	16.38
444.968	1.38
445.094	1.38
445.22	3.38
445.346	12.38
445.472	19.38
445.598	6.38
445.724	-3.62
445.85	-1.62
445.976	18.38
446.102	6.38
446.228	14.38
446.354	15.38
446.48	12.38
446.605	14.38
446.731	3.38
446.857	-4.62
446.983	-6.62
447.109	16.38
447.235	11.38
447.361	-8.62
447.487	23.38
447.613	11.38
447.739	-5.62
447.865	2.38
447.99	-6.62
448.116	20.38
448.242	12.38
448.368	11.38
448.494	1.38
448.62	17.38
448.746	11.38
448.872	-7.62
448.997	-8.62
449.123	12.38
449.249	14.38
449.375	34.38
449.501	0.38
449.627	5.38
449.752	28.38
449.878	6.38
450.004	18.38
450.13	22.38
450.256	6.38
450.381	15.38
450.507	10.38
450.633	16.38
450.759	28.38
450.884	7.38
451.01	22.38
451.136	-1.62
451.262	13.38
451.388	12.38
451.513	-6.62
451.639	11.38
451.765	19.38
451.89	8.38
452.016	15.38
452.142	-13.62
452.268	17.38
452.393	16.38
452.519	6.38
452.645	18.38
452.771	-9.62
452.896	-2.62
453.022	-5.62
453.148	10.38
453.273	18.38
453.399	15.38
453.525	15.38
453.65	10.38
453.776	24.38
453.902	33.38
454.027	11.38
454.153	4.38
454.279	4.38
454.404	2.38
454.53	14.38
454.656	41.38
454.781	21.38
454.907	8.38
455.032	-1.62
455.158	30.38
455.284	21.38
455.409	-1.62
455.535	26.38
455.66	23.38
455.786	30.38
455.912	37.38
456.037	8.38
456.163	19.38
456.288	26.38
456.414	-0.62
456.539	-22.62
456.665	15.38
456.791	9.38
456.916	10.38
457.042	11.38
457.167	4.38
457.293	2.38
457.418	-1.62
457.544	4.38
457.669	4.38
457.795	-4.62
457.92	8.38
458.046	17.38
458.171	3.38
458.297	2.38
458.422	-10.62
458.548	13.38
458.673	26.38
458.799	14.38
458.924	-2.62
459.05	17.38
459.175	5.38
459.301	-1.62
459.426	16.38
459.552	9.38
459.677	3.38
459.803	20.38
459.928	16.38
460.053	0.38
460.179	8.38
460.304	6.38
460.43	-23.62
460.555	5.38
460.681	5.38
460.806	-11.62
460.931	-11.62
461.057	19.38
461.182	14.38
461.308	27.38
461.433	7.38
461.558	-1.62
461.684	12.38
461.809	4.38
461.934	11.38
462.06	23.38
462.185	-1.62
462.311	12.38
462.436	19.38
462.561	1.38
462.687	5.38
462.812	21.38
462.937	1.38
463.063	-5.62
463.188	5.38
463.313	17.38
463.439	0.38
463.564	20.38
463.689	16.38
463.814	24.38
463.94	7.38
464.065	26.38
464.19	18.38
464.316	4.38
464.441	7.38
464.566	1.38
464.692	-24.62
464.817	9.38
464.942	-2.62
465.067	2.38
465.193	-9.62
465.318	5.38
465.443	-1.62
465.568	5.38
465.694	5.38
465.819	26.38
465.944	0.38
466.069	4.38
466.194	20.38
466.32	7.38
466.445	9.38
466.57	-4.62
466.695	17.38
466.82	6.38
466.946	-0.62
467.071	8.38
467.196	-13.62
467.321	15.38
467.446	9.38
467.572	-3.62
467.697	-11.62
467.822	19.38
467.947	28.38
468.072	-2.62
468.197	-14.62
468.323	7.38
468.448	4.38
468.573	-7.62
468.698	12.38
468.823	23.38
468.948	21.38
469.073	10.38
469.198	36.38
469.324	16.38
469.449	-5.62
469.574	25.38
469.699	16.38
469.824	27.38
469.949	5.38
470.074	13.38
470.199	38.38
470.324	15.38
470.449	27.38
470.574	15.38
470.7	9.38
470.825	31.38
470.95	17.38
471.075	23.38
471.2	22.38
471.325	24.38
471.45	8.38
471.575	-7.62
471.7	10.38
471.825	2.38
471.95	0.38
472.075	13.38
472.2	0.38
472.325	19.38
472.45	-6.62
472.575	3.38
472.7	7.38
472.825	21.38
472.95	8.38
473.075	24.38
473.2	-4.62
473.325	-11.62
473.45	-7.62
473.575	7.38
473.7	12.38
473.825	-5.62
473.95	10.38
474.075	11.38
474.2	-8.62
474.325	17.38
474.45	6.38
474.574	25.38
474.699	26.38
474.824	14.38
474.949	17.38
475.074	8.38
475.199	20.38
475.324	28.38
475.449	19.38
475.574	9.38
475.699	13.38
475.824	11.38
475.949	16.38
476.073	-8.62
476.198	8.38
476.323	17.38
476.448	14.38
476.573	3.38
476.698	12.38
476.823	14.38
476.947	21.38
477.072	7.38
477.197	10.38
477.322	-5.62
477.447	7.38
477.572	18.38
477.697	6.38
477.821	19.38
477.946	18.38
478.071	23.38
478.196	24.38
478.321	2.38
478.445	3.38
478.57	-3.62
478.695	-0.62
478.82	15.38
478.945	3.38
479.069	-3.62
479.194	2.38
479.319	34.38
479.444	1.38
479.569	6.38
479.693	9.38
479.818	18.38
479.943	24.38
480.068	12.38
480.192	13.38
480.317	18.38
480.442	2.38
480.567	20.38
480.691	14.38
480.816	6.38
480.941	-5.62
481.066	30.38
481.19	23.38
481.315	26.38
481.44	3.38
481.564	-1.62
481.689	31.38
481.814	34.38
481.938	14.38
482.063	11.38
482.188	20.38
482.313	34.38
482.437	23.38
482.562	27.38
482.687	18.38
482.811	24.38
482.936	46.38
483.061	8.38
483.185	13.38
483.31	12.38
483.435	29.38
483.559	20.38
483.684	22.38
483.808	42.38
483.933	16.38
484.058	8.38
484.182	27.38
484.307	25.38
484.432	28.38
484.556	30.38
484.681	31.38
484.805	34.38
484.93	30.38
485.055	55.38
485.179	77.38
485.304	129.38
485.428	384.38
485.553	1268.38
485.678	1775.38
485.802	1611.38
485.927	1804.38
486.051	2680.38
486.176	1617.38
486.3	433.38
486.425	151.38
486.549	84.38
486.674	67.38
486.799	38.38
486.923	20.38
487.048	19.38
487.172	18.38
487.297	32.38
487.421	27.38
487.546	16.38
487.67	35.38
487.795	9.38
487.919	21.38
488.044	17.38
488.168	28.38
488.293	19.38
488.417	4.38
488.542	12.38
488.666	26.38
488.791	32.38
488.915	2.38
489.04	21.38
489.164	49.38
489.289	27.38
489.413	3.38
489.538	14.38
489.662	34.38
489.786	11.38
489.911	31.38
490.035	17.38
490.16	7.38
490.284	4.38
490.409	-3.62
490.533	-3.62
490.658	43.38
490.782	20.38
490.906	25.38
491.031	21.38
491.155	22.38
491.28	28.38
491.404	2.38
491.528	22.38
491.653	12.38
491.777	20.38
491.902	6.38
492.026	16.38
492.15	30.38
492.275	25.38
492.399	12.38
492.524	11.38
492.648	38.38
492.772	9.38
492.897	17.38
493.021	6.38
493.145	11.38
493.27	46.38
493.394	12.38
493.518	-1.62
493.643	3.38
493.767	22.38
493.891	-0.62
494.016	10.38
494.14	-3.62
494.264	26.38
494.389	32.38
494.513	-0.62
494.637	12.38
494.762	18.38
494.886	18.38
495.01	26.38
495.134	10.38
495.259	20.38
495.383	3.38
495.507	-0.62
495.632	32.38
495.756	37.38
495.88	16.38
496.004	14.38
496.129	20.38
496.253	11.38
496.377	18.38
496.501	35.38
496.626	13.38
496.75	20.38
496.874	15.38
496.998	9.38
497.123	18.38
497.247	3.38
497.371	4.38
497.495	15.38
497.62	11.38
497.744	2.38
497.868	11.38
497.992	14.38
498.116	-0.62
498.241	26.38
498.365	24.38
498.489	4.38
498.613	15.38
498.737	10.38
498.862	6.38
498.986	1.38
499.11	1.38
499.234	-4.62
499.358	-12.62
499.482	4.38
499.607	29.38
499.731	18.38
499.855	21.38
499.979	10.38
500.103	15.38
500.227	10.38
500.351	3.38
500.476	5.38
500.6	-6.62
500.724	22.38
500.848	18.38
500.972	10.38
501.096	19.38
501.22	31.38
501.344	7.38
501.469	15.38
501.593	19.38
501.717	30.38
501.841	15.38
501.965	8.38
502.089	-7.62
502.213	7.38
502.337	13.38
502.461	1.38
502.585	-4.62
502.709	10.38
502.834	11.38
502.958	16.38
503.082	12.38
503.206	11.38
503.33	33.38
503.454	24.38
503.578	30.38
503.702	31.38
503.826	12.38
503.95	23.38
504.074	7.38
504.198	5.38
504.322	5.38
504.446	2.38
504.57	16.38
504.694	1.38
504.818	4.38
504.942	14.38
505.066	11.38
505.19	21.38
505.314	21.38
505.438	-0.62
505.562	6.38
505.686	20.38
505.81	-1.62
505.934	17.38
506.058	-3.62
506.182	14.38
506.306	20.38
506.43	-2.62
506.554	21.38
506.678	-0.62
506.802	5.38
506.926	11.38
507.05	5.38
507.174	19.38
507.298	25.38
507.422	29.38
507.546	21.38
507.67	31.38
507.794	-14.62
507.918	15.38
508.042	11.38
508.165	-2.62
508.289	-3.62
508.413	8.38
508.537	5.38
508.661	24.38
508.785	33.38
508.909	32.38
509.033	22.38
509.157	-0.62
509.281	-8.62
509.405	-4.62
509.528	24.38
509.652	13.38
509.776	-8.62
509.9	17.38
510.024	0.38
510.148	23.38
510.272	11.38
510.396	16.38
510.519	-0.62
510.643	16.38
510.767	24.38
510.891	14.38
511.015	12.38
511.139	25.38
511.263	46.38
511.386	4.38
511.51	13.38
511.634	10.38
511.758	9.38
511.882	1.38
512.006	25.38
512.129	15.38
512.253	34.38
512.377	18.38
512.501	36.38
512.625	13.38
512.748	-1.62
512.872	-9.62
512.996	15.38
513.12	25.38
513.244	9.38
513.367	13.38
513.491	17.38
513.615	20.38
513.739	-5.62
513.862	18.38
513.986	9.38
514.11	4.38
514.234	8.38
514.358	18.38
514.481	22.38
514.605	-0.62
514.729	15.38
514.853	33.38
514.976	7.38
515.1	-5.62
515.224	22.38
515.348	6.38
515.471	15.38
515.595	18.38
515.719	13.38
515.842	31.38
515.966	28.38
516.09	26.38
516.214	22.38
516.337	26.38
516.461	27.38
516.585	16.38
516.708	32.38
516.832	13.38
516.956	1.38
517.08	5.38
517.203	5.38
517.327	20.38
517.451	25.38
517.574	33.38
517.698	6.38
517.822	4.38
517.945	34.38
518.069	21.38
518.193	58.38
518.316	38.38
518.44	30.38
518.564	7.38
518.687	5.38
518.811	12.38
518.935	31.38
519.058	39.38
519.182	27.38
519.306	27.38
519.429	0.38
519.553	70.38
519.676	43.38
519.8	25.38
519.924	8.38
520.047	6.38
520.171	-3.62
520.294	7.38
520.418	14.38
520.542	4.38
520.665	18.38
520.789	9.38
520.913	-22.62
521.036	-15.62
521.16	3.38
521.283	-7.62
521.407	20.38
521.53	9.38
521.654	-0.62
521.778	38.38
521.901	7.38
522.025	10.38
522.148	8.38
522.272	16.38
522.395	12.38
522.519	30.38
522.643	-3.62
522.766	19.38
522.89	30.38
523.013	17.38
523.137	-4.62
523.26	-9.62
523.384	10.38
523.507	2.38
523.631	11.38
523.754	0.38
523.878	21.38
524.002	-0.62
524.125	8.38
524.249	0.38
524.372	16.38
524.496	11.38
524.619	30.38
524.743	17.38
524.866	3.38
524.99	4.38
525.113	6.38
525.237	30.38
525.36	21.38
525.484	26.38
525.607	16.38
525.731	0.38
525.854	6.38
525.978	30.38
526.101	10.38
526.224	5.38
526.348	23.38
526.471	8.38
526.595	3.38
526.718	8.38
526.842	-11.62
526.965	16.38
527.089	2.38
527.212	17.38
527.336	18.38
527.459	35.38
527.582	12.38
527.706	10.38
527.829	4.38
527.953	13.38
528.076	2.38
528.2	-3.62
528.323	-0.62
528.446	26.38
528.57	18.38
528.693	14.38
528.817	-7.62
528.94	10.38
529.064	33.38
529.187	9.38
529.31	1.38
529.434	9.38
529.557	6.38
529.68	3.38
529.804	18.38
529.927	30.38
530.051	2.38
530.174	9.38
530.297	16.38
530.421	21.38
530.544	25.38
530.668	16.38
530.791	11.38
530.914	15.38
531.038	-5.62
531.161	11.38
531.284	16.38
531.408	5.38
531.531	11.38
531.654	11.38
531.778	5.38
531.901	0.38
532.024	42.38
532.148	11.38
532.271	9.38
532.394	6.38
532.518	19.38
532.641	30.38
532.764	35.38
532.888	13.38
533.011	-17.62
533.134	5.38
533.258	24.38
533.381	-9.62
533.504	2.38
533.628	-0.62
533.751	9.38
533.874	9.38
533.997	15.38
534.121	-14.62
534.244	9.38
534.367	4.38
534.491	17.38
534.614	2.38
534.737	-3.62
534.86	10.38
534.984	6.38
535.107	-4.62
535.23	12.38
535.354	4.38
535.477	-5.62
535.6	3.38
535.723	9.38
535.847	11.38
535.97	-14.62
536.093	7.38
536.216	-4.62
536.34	6.38
536.463	-6.62
536.586	16.38
536.709	11.38
536.833	11.38
536.956	-1.62
537.079	0.38
537.202	7.38
537.325	-1.62
537.449	-6.62
537.572	15.38
537.695	6.38
537.818	9.38
537.941	13.38
538.065	0.38
538.188	4.38
538.311	20.38
538.434	15.38
538.558	6.38
538.681	4.38
538.804	17.38
538.927	11.38
539.05	18.38
539.173	13.38
539.297	9.38
539.42	3.38
539.543	5.38
539.666	16.38
539.789	27.38
539.913	6.38
540.036	16.38
540.159	19.38
540.282	0.38
540.405	-11.62
540.528	-0.62
540.651	20.38
540.775	5.38
540.898	16.38
541.021	-4.62
541.144	18.38
541.267	6.38
541.39	10.38
541.513	17.38
541.637	18.38
541.76	10.38
541.883	15.38
542.006	23.38
542.129	34.38
542.252	18.38
542.375	29.38
542.498	18.38
542.622	18.38
542.745	14.38
542.868	11.38
542.991	23.38
543.114	48.38
543.237	29.38
543.36	18.38
543.483	-5.62
543.606	13.38
543.73	35.38
543.853	4.38
543.976	-9.62
544.099	3.38
544.222	4.38
544.345	5.38
544.468	11.38
544.591	0.38
544.714	16.38
544.837	44.38
544.96	7.38
545.083	21.38
545.206	18.38
545.329	34.38
545.453	-16.62
545.576	-4.62
545.699	-11.62
545.822	17.38
545.945	13.38
546.068	24.38
546.191	14.38
546.314	-1.62
546.437	12.38
546.56	3.38
546.683	6.38
546.806	14.38
546.929	16.38
547.052	11.38
547.175	18.38
547.298	14.38
547.421	4.38
547.544	13.38
547.667	10.38
547.79	11.38
547.913	3.38
548.036	-7.62
548.159	7.38
548.282	7.38
548.405	-13.62
548.528	13.38
548.651	4.38
548.774	2.38
548.897	16.38
549.02	24.38
549.143	28.38
549.266	2.38
549.389	20.38
549.512	18.38
549.635	4.38
549.758	21.38
549.881	6.38
550.004	9.38
550.127	6.38
550.25	-1.62
550.373	7.38
550.496	21.38
550.619	28.38
550.742	0.38
550.865	1.38
550.988	14.38
551.111	22.38
551.234	14.38
551.356	-11.62
551.479	-3.62
551.602	20.38
551.725	32.38
551.848	22.38
551.971	17.38
552.094	0.38
552.217	8.38
552.34	-7.62
552.463	5.38
552.586	22.38
552.709	6.38
552.832	15.38
552.955	21.38
553.077	22.38
553.2	16.38
553.323	-13.62
553.446	16.38
553.569	-8.62
553.692	19.38
553.815	-1.62
553.938	16.38
554.061	31.38
554.184	23.38
554.306	24.38
554.429	9.38
554.552	8.38
554.675	12.38
554.798	-0.62
554.921	22.38
555.044	8.38
555.167	12.38
555.29	6.38
555.412	-0.62
555.535	19.38
555.658	-1.62
555.781	12.38
555.904	5.38
556.027	10.38
556.15	9.38
556.272	1.38
556.395	10.38
556.518	4.38
556.641	17.38
556.764	18.38
556.887	11.38
557.01	14.38
557.132	-4.62
557.255	0.38
557.378	-1.62
557.501	-8.62
557.624	14.38
557.747	12.38
557.869	21.38
557.992	31.38
558.115	22.38
558.238	8.38
558.361	19.38
558.483	13.38
558.606	10.38
558.729	-5.62
558.852	18.38
558.975	18.38
559.098	25.38
559.22	10.38
559.343	8.38
559.466	14.38
559.589	8.38
559.712	9.38
559.834	20.38
559.957	4.38
560.08	26.38
560.203	16.38
560.325	14.38
560.448	20.38
560.571	1.38
560.694	-0.62
560.817	8.38
560.939	9.38
561.062	-6.62
561.185	13.38
561.308	15.38
561.43	-1.62
561.553	19.38
561.676	-10.62
561.799	18.38
561.921	17.38
562.044	9.38
562.167	13.38
562.29	35.38
562.413	22.38
562.535	12.38
562.658	-10.62
562.781	-11.62
562.903	-6.62
563.026	7.38
563.149	34.38
563.272	28.38
563.394	11.38
563.517	-1.62
563.64	-6.62
563.763	-8.62
563.885	10.38
564.008	24.38
564.131	24.38
564.254	2.38
564.376	7.38
564.499	-1.62
564.622	-4.62
564.744	4.38
564.867	11.38
564.99	-3.62
565.113	18.38
565.235	6.38
565.358	10.38
565.481	-0.62
565.603	-7.62
565.726	-5.62
565.849	14.38
565.971	12.38
566.094	4.38
566.217	20.38
566.34	6.38
566.462	7.38
566.585	12.38
566.708	33.38
566.83	18.38
566.953	31.38
567.076	-4.62
567.198	0.38
567.321	6.38
567.444	22.38
567.566	-3.62
567.689	6.38
567.812	1.38
567.934	16.38
568.057	4.38
568.18	17.38
568.302	9.38
568.425	-4.62
568.548	-10.62
568.67	3.38
568.793	2.38
568.916	24.38
569.038	9.38
569.161	19.38
569.283	2.38
569.406	7.38
569.529	2.38
569.651	-0.62
569.774	6.38
569.897	3.38
570.019	13.38
570.142	24.38
570.265	16.38
570.387	5.38
570.51	29.38
570.632	5.38
570.755	9.38
570.878	-0.62
571	10.38
571.123	-4.62
571.246	30.38
571.368	15.38
571.491	16.38
571.613	-2.62
571.736	6.38
571.859	8.38
571.981	-10.62
572.104	-13.62
572.226	18.38
572.349	-3.62
572.472	18.38
572.594	8.38
572.717	5.38
572.839	16.38
572.962	34.38
573.085	25.38
573.207	7.38
573.33	20.38
573.452	26.38
573.575	12.38
573.697	9.38
573.82	6.38
573.943	0.38
574.065	9.38
574.188	12.38
574.31	18.38
574.433	16.38
574.555	38.38
574.678	-2.62
574.801	22.38
574.923	-2.62
575.046	11.38
575.168	-6.62
575.291	5.38
575.413	17.38
575.536	-7.62
575.659	10.38
575.781	-15.62
575.904	-5.62
576.026	21.38
576.149	-6.62
576.271	20.38
576.394	19.38
576.516	-11.62
576.639	21.38
576.761	7.38
576.884	2.38
577.007	6.38
577.129	17.38
577.252	8.38
577.374	27.38
577.497	16.38
577.619	11.38
577.742	4.38
577.864	10.38
577.987	22.38
578.109	30.38
578.232	22.38
578.354	19.38
578.477	3.38
578.599	19.38
578.722	13.38
578.844	4.38
578.967	26.38
579.089	13.38
579.212	-1.62
579.334	31.38
579.457	16.38
579.579	8.38
579.702	-16.62
579.824	11.38
579.947	2.38
580.069	13.38
580.192	-3.62
580.314	11.38
580.437	11.38
580.559	30.38
580.682	2.38
580.804	33.38
580.927	20.38
581.049	24.38
581.172	19.38
581.294	19.38
581.417	33.38
581.539	10.38
581.662	26.38
581.784	17.38
581.907	20.38
582.029	16.38
582.152	8.38
582.274	14.38
582.396	18.38
582.519	13.38
582.641	7.38
582.764	4.38
582.886	21.38
583.009	10.38
583.131	-4.62
583.254	16.38
583.376	22.38
583.499	21.38
583.621	21.38
583.743	30.38
583.866	13.38
583.988	0.38
584.111	21.38
584.233	15.38
584.356	17.38
584.478	9.38
584.601	-6.62
584.723	10.38
584.845	38.38
584.968	7.38
585.09	-3.62
585.213	6.38
585.335	7.38
585.458	-6.62
585.58	-7.62
585.702	3.38
585.825	11.38
585.947	-4.62
586.07	4.38
586.192	-2.62
586.315	26.38
586.437	-6.62
586.559	11.38
586.682	8.38
586.804	16.38
586.927	4.38
587.049	9.38
587.171	27.38
587.294	9.38
587.416	10.38
587.539	14.38
587.661	-0.62
587.783	-1.62
587.906	2.38
588.028	9.38
588.151	9.38
588.273	10.38
588.395	17.38
588.518	-4.62
588.64	9.38
588.763	32.38
588.885	17.38
589.007	23.38
589.13	8.38
589.252	3.38
589.375	13.38
589.497	19.38
589.619	24.38
589.742	6.38
589.864	25.38
589.986	14.38
590.109	-4.62
590.231	11.38
590.354	21.38
590.476	-1.62
590.598	2.38
590.721	5.38
590.843	8.38
590.965	18.38
591.088	16.38
591.21	20.38
591.332	26.38
591.455	2.38
591.577	0.38
591.7	18.38
591.822	34.38
591.944	18.38
592.067	-6.62
592.189	2.38
592.311	10.38
592.434	5.38
592.556	14.38
592.678	8.38
592.801	18.38
592.923	14.38
593.045	-4.62
593.168	23.38
593.29	-1.62
593.412	1.38
593.535	1.38
593.657	7.38
593.779	18.38
593.902	18.38
594.024	17.38
594.146	11.38
594.269	4.38
594.391	-11.62
594.513	30.38
594.636	22.38
594.758	3.38
594.88	22.38
595.003	14.38
595.125	11.38
595.247	-6.62
595.37	17.38
595.492	0.38
595.614	26.38
595.737	10.38
595.859	19.38
595.981	11.38
596.104	-7.62
596.226	12.38
596.348	17.38
596.471	10.38
596.593	-0.62
596.715	-7.62
596.838	11.38
596.96	2.38
597.082	8.38
597.204	15.38
597.327	13.38
597.449	-0.62
597.571	27.38
597.694	19.38
597.816	8.38
597.938	4.38
598.061	-0.62
598.183	-1.62
598.305	25.38
598.427	2.38
598.55	12.38
598.672	35.38
598.794	28.38
598.917	-2.62
599.039	14.38
599.161	12.38
599.283	15.38
599.406	21.38
599.528	0.38
599.65	38.38
599.773	14.38
599.895	27.38
600.017	29.38
600.139	24.38
600.262	-2.62
600.384	4.38
600.506	21.38
600.628	20.38
600.751	19.38
600.873	25.38
600.995	11.38
601.118	9.38
601.24	9.38
601.362	36.38
601.484	14.38
601.607	10.38
601.729	14.38
601.851	2.38
601.973	13.38
602.096	1.38
602.218	16.38
602.34	16.38
602.462	11.38
602.585	6.38
602.707	7.38
602.829	22.38
602.951	7.38
603.074	12.38
603.196	15.38
603.318	6.38
603.44	8.38
603.563	3.38
603.685	-3.62
603.807	25.38
603.929	10.38
604.052	22.38
604.174	15.38
604.296	17.38
604.418	22.38
604.541	26.38
604.663	4.38
604.785	22.38
604.907	21.38
605.03	8.38
605.152	20.38
605.274	6.38
605.396	16.38
605.519	13.38
605.641	8.38
605.763	14.38
605.885	0.38
606.008	6.38
606.13	5.38
606.252	22.38
606.374	-16.62
606.496	6.38
606.619	28.38
606.741	-2.62
606.863	17.38
606.985	39.38
607.108	16.38
607.23	9.38
607.352	4.38
607.474	-1.62
607.596	24.38
607.719	3.38
607.841	7.38
607.963	18.38
608.085	10.38
608.207	31.38
608.33	-0.62
608.452	-1.62
608.574	19.38
608.696	15.38
608.819	-4.62
608.941	15.38
609.063	9.38
609.185	10.38
609.307	8.38
609.43	23.38
609.552	10.38
609.674	0.38
609.796	17.38
609.918	24.38
610.041	2.38
610.163	9.38
610.285	-1.62
610.407	-0.62
610.529	2.38
610.652	7.38
610.774	10.38
610.896	-1.62
611.018	8.38
611.14	21.38
611.263	0.38
611.385	8.38
611.507	15.38
611.629	-7.62
611.751	10.38
611.873	36.38
611.996	31.38
612.118	28.38
612.24	3.38
612.362	28.38
612.484	25.38
612.607	22.38
612.729	42.38
612.851	36.38
612.973	7.38
613.095	-2.62
613.218	12.38
613.34	20.38
613.462	2.38
613.584	15.38
613.706	16.38
613.828	45.38
613.951	27.38
614.073	22.38
614.195	5.38
614.317	32.38
614.439	24.38
614.561	14.38
614.684	2.38
614.806	12.38
614.928	12.38
615.05	22.38
615.172	12.38
615.294	14.38
615.417	8.38
615.539	5.38
615.661	0.38
615.783	21.38
615.905	46.38
616.027	76.38
616.15	107.38
616.272	76.38
616.394	60.38
616.516	23.38
616.638	31.38
616.76	8.38
616.883	9.38
617.005	0.38
617.127	18.38
617.249	15.38
617.371	31.38
617.493	0.38
617.615	16.38
617.738	24.38
617.86	10.38
617.982	19.38
618.104	9.38
618.226	9.38
618.348	1.38
618.471	12.38
618.593	8.38
618.715	-12.62
618.837	3.38
618.959	19.38
619.081	37.38
619.203	-4.62
619.326	13.38
619.448	8.38
619.57	16.38
619.692	8.38
619.814	14.38
619.936	14.38
620.058	8.38
620.181	3.38
620.303	8.38
620.425	20.38
620.547	8.38
620.669	16.38
620.791	8.38
620.913	10.38
621.036	-7.62
621.158	10.38
621.28	22.38
621.402	4.38
621.524	-3.62
621.646	18.38
621.768	-10.62
621.891	6.38
622.013	16.38
622.135	3.38
622.257	0.38
622.379	-3.62
622.501	17.38
622.623	6.38
622.745	15.38
622.868	-1.62
622.99	8.38
623.112	-6.62
623.234	13.38
623.356	3.38
623.478	1.38
623.6	16.38
623.722	20.38
623.845	15.38
623.967	-1.62
624.089	20.38
624.211	-1.62
624.333	11.38
624.455	6.38
624.577	1.38
624.699	-1.62
624.822	11.38
624.944	-4.62
625.066	-7.62
625.188	15.38
625.31	12.38
625.432	29.38
625.554	1.38
625.676	26.38
625.799	1.38
625.921	14.38
626.043	2.38
626.165	4.38
626.287	1.38
626.409	13.38
626.531	-3.62
626.653	-9.62
626.775	-0.62
626.898	11.38
627.02	13.38
627.142	27.38
627.264	2.38
627.386	13.38
627.508	22.38
627.63	22.38
627.752	6.38
627.874	15.38
627.997	24.38
628.119	29.38
628.241	34.38
628.363	15.38
628.485	18.38
628.607	14.38
628.729	3.38
628.851	14.38
628.973	13.38
629.096	0.38
629.218	-6.62
629.34	14.38
629.462	4.38
629.584	-1.62
629.706	15.38
629.828	17.38
629.95	0.38
630.072	-12.62
630.195	7.38
630.317	10.38
630.439	10.38
630.561	10.38
630.683	3.38
630.805	31.38
630.927	4.38
631.049	8.38
631.171	-0.62
631.293	9.38
631.416	26.38
631.538	17.38
631.66	8.38
631.782	31.38
631.904	16.38
632.026	3.38
632.148	17.38
632.27	15.38
632.392	6.38
632.514	2.38
632.637	26.38
632.759	26.38
632.881	-2.62
633.003	-7.62
633.125	7.38
633.247	11.38
633.369	4.38
633.491	25.38
633.613	21.38
633.735	-0.62
633.858	12.38
633.98	17.38
634.102	-0.62
634.224	-11.62
634.346	-2.62
634.468	11.38
634.59	14.38
634.712	11.38
634.834	17.38
634.956	25.38
635.078	2.38
635.201	-10.62
635.323	-9.62
635.445	-0.62
635.567	-0.62
635.689	18.38
635.811	14.38
635.933	10.38
636.055	17.38
636.177	12.38
636.299	6.38
636.421	-9.62
636.544	-13.62
636.666	11.38
636.788	12.38
636.91	-0.62
637.032	8.38
637.154	21.38
637.276	24.38
637.398	18.38
637.52	23.38
637.642	2.38
637.764	-0.62
637.887	11.38
638.009	2.38
638.131	-0.62
638.253	-21.62
638.375	20.38
638.497	7.38
638.619	-14.62
638.741	16.38
638.863	-10.62
638.985	1.38
639.107	-1.62
639.23	6.38
639.352	36.38
639.474	19.38
639.596	28.38
639.718	17.38
639.84	26.38
639.962	-6.62
640.084	22.38
640.206	37.38
640.328	-1.62
640.45	21.38
640.573	-4.62
640.695	-3.62
640.817	11.38
640.939	2.38
641.061	-4.62
641.183	16.38
641.305	22.38
641.427	-4.62
641.549	4.38
641.671	29.38
641.793	1.38
641.915	19.38
642.038	18.38
642.16	-0.62
642.282	-4.62
642.404	6.38
642.526	13.38
642.648	-1.62
642.77	1.38
642.892	-1.62
643.014	25.38
643.136	7.38
643.258	-4.62
643.381	17.38
643.503	18.38
643.625	13.38
643.747	-3.62
643.869	-1.62
643.991	12.38
644.113	14.38
644.235	1.38
644.357	11.38
644.479	24.38
644.601	-8.62
644.723	-4.62
644.846	0.38
644.968	5.38
645.09	19.38
645.212	4.38
645.334	18.38
645.456	22.38
645.578	4.38
645.7	24.38
645.822	27.38
645.944	-4.62
646.066	20.38
646.188	15.38
646.311	30.38
646.433	11.38
646.555	30.38
646.677	57.38
646.799	29.38
646.921	14.38
647.043	28.38
647.165	14.38
647.287	12.38
647.409	2.38
647.531	14.38
647.654	-5.62
647.776	26.38
647.898	6.38
648.02	8.38
648.142	-2.62
648.264	-3.62
648.386	5.38
648.508	14.38
648.63	1.38
648.752	8.38
648.874	5.38
648.997	14.38
649.119	10.38
649.241	3.38
649.363	25.38
649.485	6.38
649.607	8.38
649.729	10.38
649.851	1.38
649.973	8.38
650.095	11.38
650.217	-6.62
650.34	4.38
650.462	18.38
650.584	10.38
650.706	8.38
650.828	18.38
650.95	-19.62
651.072	8.38
651.194	-1.62
651.316	4.38
651.438	7.38
651.56	-11.62
651.683	2.38
651.805	17.38
651.927	-1.62
652.049	-1.62
652.171	10.38
652.293	8.38
652.415	6.38
652.537	-0.62
652.659	-1.62
652.781	22.38
652.903	31.38
653.026	25.38
653.148	13.38
653.27	8.38
653.392	13.38
653.514	9.38
653.636	10.38
653.758	3.38
653.88	-7.62
654.002	-0.62
654.124	12.38
654.247	12.38
654.369	34.38
654.491	3.38
654.613	6.38
654.735	20.38
654.857	30.38
654.979	24.38
655.101	35.38
655.223	40.38
655.345	17.38
655.468	25.38
655.59	20.38
655.712	26.38
655.834	31.38
655.956	46.38
656.078	24.38
656.2	42.38
656.322	43.38
656.444	40.38
656.566	41.38
656.689	49.38
656.811	55.38
656.933	91.38
657.055	103.38
657.177	163.38
657.299	248.38
657.421	515.38
657.543	1910.38
657.665	12604.38
657.787	15171.38
657.91	15282.38
658.032	15661.38
658.154	4702.38
658.276	3796.38
658.398	1203.38
658.52	1031.38
658.642	479.38
658.764	595.38
658.886	265.38
659.009	414.38
659.131	219.38
659.253	308.38
659.375	150.38
659.497	239.38
659.619	126.38
659.741	196.38
659.863	96.38
659.985	158.38
660.108	81.38
660.23	131.38
660.352	86.38
660.474	141.38
660.596	79.38
660.718	138.38
660.84	62.38
660.962	131.38
661.084	51.38
661.207	90.38
661.329	64.38
661.451	94.38
661.573	43.38
661.695	103.38
661.817	59.38
661.939	98.38
662.061	63.38
662.184	74.38
662.306	38.38
662.428	75.38
662.55	43.38
662.672	77.38
662.794	46.38
662.916	59.38
663.038	33.38
663.161	82.38
663.283	47.38
663.405	70.38
663.527	32.38
663.649	67.38
663.771	23.38
663.893	58.38
664.015	38.38
664.138	57.38
664.26	32.38
664.382	51.38
664.504	12.38
664.626	30.38
664.748	16.38
664.87	32.38
664.992	50.38
665.115	62.38
665.237	27.38
665.359	35.38
665.481	18.38
665.603	32.38
665.725	9.38
665.847	30.38
665.97	28.38
666.092	59.38
666.214	28.38
666.336	36.38
666.458	23.38
666.58	46.38
666.702	20.38
666.825	26.38
666.947	20.38
667.069	29.38
667.191	19.38
667.313	51.38
667.435	14.38
667.557	17.38
667.68	4.38
667.802	11.38
667.924	12.38
668.046	52.38
668.168	22.38
668.29	54.38
668.412	15.38
668.535	21.38
668.657	7.38
668.779	23.38
668.901	24.38
669.023	26.38
669.145	7.38
669.267	37.38
669.39	16.38
669.512	15.38
669.634	13.38
669.756	17.38
669.878	39.38
670	17.38
670.123	12.38
670.245	40.38
670.367	10.38
670.489	9.38
670.611	11.38
670.733	27.38
670.856	3.38
670.978	25.38
671.1	14.38
671.222	26.38
671.344	11.38
671.466	24.38
671.589	-1.62
671.711	27.38
671.833	-3.62
671.955	19.38
672.077	-3.62
672.199	46.38
672.322	34.38
672.444	23.38
672.566	2.38
672.688	16.38
672.81	30.38
672.932	52.38
673.055	7.38
673.177	-1.62
673.299	17.38
673.421	2.38
673.543	2.38
673.665	27.38
673.788	17.38
673.91	9.38
674.032	-2.62
674.154	24.38
674.276	27.38
674.399	22.38
674.521	20.38
674.643	22.38
674.765	7.38
674.887	17.38
675.009	8.38
675.132	21.38
675.254	8.38
675.376	5.38
675.498	11.38
675.62	31.38
675.743	18.38
675.865	25.38
675.987	3.38
676.109	25.38
676.231	25.38
676.354	40.38
676.476	3.38
676.598	20.38
676.72	22.38
676.842	19.38
676.965	1.38
677.087	12.38
677.209	27.38
677.331	12.38
677.453	19.38
677.576	21.38
677.698	17.38
677.82	-1.62
677.942	2.38
678.064	16.38
678.187	13.38
678.309	11.38
678.431	-0.62
678.553	14.38
678.675	36.38
678.798	31.38
678.92	2.38
679.042	18.38
679.164	18.38
679.286	10.38
679.409	3.38
679.531	9.38
679.653	-2.62
679.775	-10.62
679.898	-3.62
680.02	0.38
680.142	-10.62
680.264	8.38
680.386	-0.62
680.509	10.38
680.631	18.38
680.753	0.38
680.875	-0.62
680.998	14.38
681.12	11.38
681.242	6.38
681.364	1.38
681.486	15.38
681.609	2.38
681.731	4.38
681.853	0.38
681.975	13.38
682.098	14.38
682.22	17.38
682.342	-16.62
682.464	28.38
682.587	-4.62
682.709	17.38
682.831	-5.62
682.953	-4.62
683.076	8.38
683.198	5.38
683.32	14.38
683.442	7.38
683.565	13.38
683.687	-9.62
683.809	1.38
683.931	-6.62
684.054	10.38
684.176	4.38
684.298	1.38
684.42	2.38
684.543	-11.62
684.665	0.38
684.787	13.38
684.909	4.38
685.032	18.38
685.154	2.38
685.276	9.38
685.398	14.38
685.521	8.38
685.643	13.38
685.765	3.38
685.887	18.38
686.01	11.38
686.132	2.38
686.254	-11.62
686.377	10.38
686.499	5.38
686.621	19.38
686.743	4.38
686.866	1.38
686.988	26.38
687.11	28.38
687.232	6.38
687.355	-1.62
687.477	15.38
687.599	8.38
687.722	9.38
687.844	2.38
687.966	0.38
688.088	26.38
688.211	30.38
688.333	15.38
688.455	9.38
688.578	28.38
688.7	23.38
688.822	7.38
688.944	-8.62
689.067	44.38
689.189	4.38
689.311	-0.62
689.434	4.38
689.556	18.38
689.678	21.38
689.801	-16.62
689.923	20.38
690.045	26.38
690.167	36.38
690.29	38.38
690.412	20.38
690.534	22.38
690.657	6.38
690.779	26.38
690.901	24.38
691.024	36.38
691.146	5.38
691.268	0.38
691.391	-5.62
691.513	17.38
691.635	29.38
691.758	29.38
691.88	15.38
692.002	3.38
692.125	-6.62
692.247	8.38
692.369	-6.62
692.492	5.38
692.614	-8.62
692.736	13.38
692.859	4.38
692.981	2.38
693.103	1.38
693.226	32.38
693.348	25.38
693.47	10.38
693.593	15.38
693.715	-23.62
693.837	-3.62
693.96	-12.62
694.082	0.38
694.204	12.38
694.327	-0.62
694.449	17.38
694.571	-0.62
694.694	11.38
694.816	8.38
694.938	12.38
695.061	-1.62
695.183	-0.62
695.305	2.38
695.428	10.38
695.55	-7.62
695.672	6.38
695.795	28.38
695.917	25.38
696.04	-1.62
696.162	-4.62
696.284	10.38
696.407	9.38
696.529	10.38
696.651	27.38
696.774	20.38
696.896	22.38
697.019	10.38
697.141	8.38
697.263	3.38
697.386	6.38
697.508	13.38
697.63	3.38
697.753	21.38
697.875	26.38
697.998	17.38
698.12	17.38
698.242	4.38
698.365	10.38
698.487	3.38
698.61	4.38
698.732	13.38
698.854	14.38
698.977	16.38
699.099	12.38
699.221	2.38
699.344	-0.62
699.466	1.38
699.589	0.38
699.711	0.38
699.834	15.38
699.956	18.38
700.078	-0.62
700.201	-0.62
700.323	41.38
700.446	26.38
700.568	7.38
700.69	11.38
700.813	12.38
700.935	5.38
701.058	12.38
701.18	14.38
701.302	10.38
701.425	4.38
701.547	6.38
701.67	-3.62
701.792	6.38
701.915	-11.62
702.037	4.38
702.159	18.38
702.282	9.38
702.404	-2.62
702.527	4.38
702.649	12.38
702.772	23.38
702.894	14.38
703.017	27.38
703.139	19.38
703.261	39.38
703.384	13.38
703.506	-9.62
703.629	-10.62
703.751	-1.62
703.874	17.38
703.996	-15.62
704.119	-10.62
704.241	4.38
704.364	-21.62
704.486	16.38
704.608	14.38
704.731	5.38
704.853	19.38
704.976	-1.62
705.098	2.38
705.221	8.38
705.343	-3.62
705.466	-5.62
705.588	14.38
705.711	8.38
705.833	12.38
705.956	2.38
706.078	13.38
706.201	7.38
706.323	5.38
706.446	0.38
