Data from LowRes_H2_15_26_11_07_2024_HR4C61881__4__15-28-14-037.txt Node

Date: Thu Nov 07 15:28:14 EST 2024
User: crc00042
Spectrometer: HR4C6188
Trigger mode: 4
Integration Time (sec): 1.000000E-1
Scans to average: 1
Electric dark correction enabled: true
Nonlinearity correction enabled: false
Boxcar width: 0
XAxis mode: Wavelengths
Number of Pixels in Spectrum: 3648
>>>>>Begin Spectral Data<<<<<
245.66	-101.31
245.797	-101.31
245.934	-101.31
246.071	-66.31
246.208	3.69
246.344	9.69
246.481	-13.31
246.618	8.69
246.755	18.69
246.892	-7.31
247.029	-9.31
247.165	-18.31
247.302	5.69
247.439	-7.31
247.576	6.69
247.713	-12.31
247.849	36.69
247.986	-18.31
248.123	-0.31
248.26	16.69
248.396	15.69
248.533	16.69
248.67	-8.31
248.806	3.69
248.943	-16.31
249.08	1.69
249.216	12.69
249.353	-18.31
249.49	-6.31
249.626	0.69
249.763	-4.31
249.9	-15.31
250.036	12.69
250.173	10.69
250.309	17.69
250.446	1.69
250.582	-15.31
250.719	-12.31
250.856	-6.31
250.992	6.69
251.129	-14.31
251.265	-12.31
251.402	10.69
251.538	-1.31
251.675	1.69
251.811	31.69
251.948	17.69
252.084	12.69
252.221	6.69
252.357	-5.31
252.493	12.69
252.63	-15.31
252.766	-3.31
252.903	-6.31
253.039	7.69
253.175	-1.31
253.312	1.69
253.448	-13.31
253.585	-18.31
253.721	12.69
253.857	3.69
253.994	2.69
254.13	8.69
254.266	0.69
254.403	12.69
254.539	6.69
254.675	22.69
254.811	3.69
254.948	-8.31
255.084	-5.31
255.22	-14.31
255.356	6.69
255.493	40.69
255.629	28.69
255.765	0.69
255.901	-5.31
256.037	9.69
256.174	-0.31
256.31	-20.31
256.446	-11.31
256.582	-5.31
256.718	6.69
256.854	17.69
256.991	13.69
257.127	15.69
257.263	-5.31
257.399	4.69
257.535	0.69
257.671	-16.31
257.807	-9.31
257.943	-23.31
258.079	-21.31
258.215	-5.31
258.351	15.69
258.487	8.69
258.623	20.69
258.759	3.69
258.895	7.69
259.031	28.69
259.167	-2.31
259.303	30.69
259.439	6.69
259.575	4.69
259.711	-2.31
259.847	1.69
259.983	9.69
260.119	-9.31
260.255	3.69
260.391	13.69
260.527	15.69
260.663	15.69
260.799	10.69
260.934	3.69
261.07	-0.31
261.206	-7.31
261.342	-15.31
261.478	22.69
261.614	8.69
261.749	-19.31
261.885	2.69
262.021	19.69
262.157	21.69
262.293	-5.31
262.428	-23.31
262.564	-5.31
262.7	13.69
262.836	9.69
262.971	21.69
263.107	8.69
263.243	24.69
263.378	0.69
263.514	-10.31
263.65	-1.31
263.785	-12.31
263.921	-6.31
264.057	9.69
264.192	27.69
264.328	30.69
264.464	8.69
264.599	16.69
264.735	24.69
264.871	-13.31
265.006	11.69
265.142	7.69
265.277	1.69
265.413	-1.31
265.548	12.69
265.684	29.69
265.819	-8.31
265.955	-18.31
266.091	-15.31
266.226	0.69
266.362	7.69
266.497	8.69
266.633	6.69
266.768	-0.31
266.903	27.69
267.039	5.69
267.174	22.69
267.31	8.69
267.445	13.69
267.581	-11.31
267.716	2.69
267.851	14.69
267.987	13.69
268.122	19.69
268.258	5.69
268.393	-3.31
268.528	19.69
268.664	-8.31
268.799	-3.31
268.934	18.69
269.07	-5.31
269.205	3.69
269.34	9.69
269.476	-6.31
269.611	-32.31
269.746	19.69
269.881	17.69
270.017	3.69
270.152	-14.31
270.287	6.69
270.422	25.69
270.558	17.69
270.693	17.69
270.828	6.69
270.963	-9.31
271.098	-9.31
271.234	-10.31
271.369	-0.31
271.504	-14.31
271.639	-8.31
271.774	-21.31
271.909	2.69
272.045	-21.31
272.18	-7.31
272.315	-8.31
272.45	16.69
272.585	0.69
272.72	-0.31
272.855	-9.31
272.99	13.69
273.125	9.69
273.26	-10.31
273.395	-9.31
273.53	11.69
273.665	33.69
273.8	-10.31
273.935	-0.31
274.07	7.69
274.205	28.69
274.34	22.69
274.475	-2.31
274.61	22.69
274.745	-10.31
274.88	29.69
275.015	-13.31
275.15	7.69
275.285	4.69
275.42	14.69
275.555	5.69
275.69	21.69
275.825	0.69
275.959	33.69
276.094	6.69
276.229	-3.31
276.364	5.69
276.499	9.69
276.634	7.69
276.768	-3.31
276.903	-3.31
277.038	9.69
277.173	16.69
277.308	-5.31
277.442	2.69
277.577	6.69
277.712	-23.31
277.847	2.69
277.981	15.69
278.116	4.69
278.251	22.69
278.386	7.69
278.52	11.69
278.655	-9.31
278.79	24.69
278.924	1.69
279.059	10.69
279.194	-1.31
279.328	37.69
279.463	1.69
279.598	33.69
279.732	14.69
279.867	11.69
280.001	21.69
280.136	-16.31
280.271	7.69
280.405	2.69
280.54	-6.31
280.674	15.69
280.809	22.69
280.943	2.69
281.078	3.69
281.213	29.69
281.347	10.69
281.482	18.69
281.616	8.69
281.751	1.69
281.885	2.69
282.02	14.69
282.154	10.69
282.288	-4.31
282.423	-13.31
282.557	-10.31
282.692	3.69
282.826	11.69
282.961	4.69
283.095	-5.31
283.229	-4.31
283.364	-24.31
283.498	0.69
283.633	5.69
283.767	5.69
283.901	-7.31
284.036	-12.31
284.17	-14.31
284.304	1.69
284.439	8.69
284.573	13.69
284.707	31.69
284.842	12.69
284.976	14.69
285.11	-6.31
285.244	18.69
285.379	47.69
285.513	-5.31
285.647	-8.31
285.781	-8.31
285.916	13.69
286.05	8.69
286.184	27.69
286.318	18.69
286.453	9.69
286.587	-23.31
286.721	-8.31
286.855	-12.31
286.989	18.69
287.123	6.69
287.258	6.69
287.392	-9.31
287.526	7.69
287.66	19.69
287.794	0.69
287.928	-18.31
288.062	14.69
288.196	-9.31
288.33	-0.31
288.464	31.69
288.598	16.69
288.733	-5.31
288.867	23.69
289.001	1.69
289.135	11.69
289.269	-5.31
289.403	-2.31
289.537	21.69
289.671	7.69
289.805	-19.31
289.939	-5.31
290.073	29.69
290.207	10.69
290.34	4.69
290.474	31.69
290.608	15.69
290.742	9.69
290.876	-10.31
291.01	6.69
291.144	33.69
291.278	10.69
291.412	4.69
291.546	-12.31
291.679	-30.31
291.813	15.69
291.947	16.69
292.081	0.69
292.215	6.69
292.349	14.69
292.482	8.69
292.616	-13.31
292.75	-2.31
292.884	11.69
293.018	6.69
293.151	-5.31
293.285	1.69
293.419	2.69
293.553	6.69
293.686	-5.31
293.82	4.69
293.954	21.69
294.088	23.69
294.221	-5.31
294.355	-8.31
294.489	7.69
294.622	13.69
294.756	-1.31
294.89	14.69
295.023	1.69
295.157	15.69
295.291	1.69
295.424	29.69
295.558	5.69
295.691	-9.31
295.825	-16.31
295.959	10.69
296.092	-1.31
296.226	6.69
296.359	9.69
296.493	14.69
296.627	4.69
296.76	13.69
296.894	-16.31
297.027	-0.31
297.161	3.69
297.294	-22.31
297.428	-3.31
297.561	15.69
297.695	0.69
297.828	-5.31
297.962	-4.31
298.095	-5.31
298.229	-2.31
298.362	1.69
298.495	-1.31
298.629	-2.31
298.762	8.69
298.896	9.69
299.029	-10.31
299.162	3.69
299.296	7.69
299.429	13.69
299.563	5.69
299.696	5.69
299.829	21.69
299.963	28.69
300.096	23.69
300.229	17.69
300.363	-0.31
300.496	3.69
300.629	-12.31
300.763	7.69
300.896	6.69
301.029	6.69
301.162	3.69
301.296	-26.31
301.429	2.69
301.562	-6.31
301.695	21.69
301.829	20.69
301.962	17.69
302.095	9.69
302.228	-12.31
302.362	2.69
302.495	-2.31
302.628	0.69
302.761	11.69
302.894	14.69
303.027	21.69
303.161	-4.31
303.294	-1.31
303.427	14.69
303.56	16.69
303.693	-0.31
303.826	-11.31
303.959	-3.31
304.092	-15.31
304.225	-28.31
304.359	14.69
304.492	15.69
304.625	-3.31
304.758	6.69
304.891	2.69
305.024	22.69
305.157	13.69
305.29	-10.31
305.423	-1.31
305.556	9.69
305.689	19.69
305.822	-12.31
305.955	3.69
306.088	13.69
306.221	-5.31
306.354	1.69
306.487	-2.31
306.62	-7.31
306.752	8.69
306.885	7.69
307.018	1.69
307.151	12.69
307.284	3.69
307.417	-11.31
307.55	22.69
307.683	16.69
307.816	31.69
307.948	23.69
308.081	7.69
308.214	9.69
308.347	23.69
308.48	-6.31
308.613	-21.31
308.745	20.69
308.878	-1.31
309.011	12.69
309.144	22.69
309.277	-3.31
309.409	19.69
309.542	-0.31
309.675	32.69
309.808	13.69
309.94	24.69
310.073	-18.31
310.206	-11.31
310.339	15.69
310.471	-14.31
310.604	26.69
310.737	22.69
310.869	9.69
311.002	4.69
311.135	-11.31
311.267	-3.31
311.4	2.69
311.533	24.69
311.665	-6.31
311.798	2.69
311.93	5.69
312.063	4.69
312.196	-1.31
312.328	-16.31
312.461	3.69
312.593	-2.31
312.726	-0.31
312.859	3.69
312.991	26.69
313.124	-10.31
313.256	-2.31
313.389	4.69
313.521	-2.31
313.654	-5.31
313.786	-12.31
313.919	5.69
314.051	8.69
314.184	25.69
314.316	2.69
314.449	-5.31
314.581	12.69
314.714	7.69
314.846	8.69
314.978	-2.31
315.111	-2.31
315.243	4.69
315.376	14.69
315.508	8.69
315.641	11.69
315.773	28.69
315.905	2.69
316.038	11.69
316.17	1.69
316.302	14.69
316.435	20.69
316.567	8.69
316.699	34.69
316.832	-0.31
316.964	-10.31
317.096	-17.31
317.229	-7.31
317.361	-7.31
317.493	3.69
317.625	-12.31
317.758	6.69
317.89	17.69
318.022	0.69
318.155	-8.31
318.287	4.69
318.419	18.69
318.551	3.69
318.683	-4.31
318.816	2.69
318.948	-5.31
319.08	-15.31
319.212	10.69
319.344	-4.31
319.477	2.69
319.609	6.69
319.741	6.69
319.873	-1.31
320.005	6.69
320.137	11.69
320.269	-7.31
320.401	-0.31
320.534	-9.31
320.666	-14.31
320.798	-1.31
320.93	8.69
321.062	-12.31
321.194	-6.31
321.326	-4.31
321.458	15.69
321.59	11.69
321.722	2.69
321.854	10.69
321.986	21.69
322.118	16.69
322.25	5.69
322.382	17.69
322.514	1.69
322.646	-7.31
322.778	25.69
322.91	6.69
323.042	4.69
323.174	7.69
323.306	-8.31
323.438	-6.31
323.57	-4.31
323.702	12.69
323.834	-5.31
323.966	-12.31
324.097	13.69
324.229	27.69
324.361	5.69
324.493	15.69
324.625	-5.31
324.757	12.69
324.889	8.69
325.021	15.69
325.152	25.69
325.284	28.69
325.416	-8.31
325.548	24.69
325.68	12.69
325.811	20.69
325.943	6.69
326.075	-22.31
326.207	7.69
326.339	15.69
326.47	-2.31
326.602	2.69
326.734	6.69
326.866	1.69
326.997	-20.31
327.129	-20.31
327.261	-21.31
327.392	2.69
327.524	12.69
327.656	-8.31
327.787	2.69
327.919	11.69
328.051	5.69
328.182	14.69
328.314	39.69
328.446	-4.31
328.577	15.69
328.709	8.69
328.841	-12.31
328.972	-9.31
329.104	3.69
329.235	-1.31
329.367	1.69
329.499	-4.31
329.63	15.69
329.762	13.69
329.893	10.69
330.025	7.69
330.156	-36.31
330.288	0.69
330.419	16.69
330.551	-2.31
330.683	7.69
330.814	-1.31
330.946	31.69
331.077	10.69
331.208	5.69
331.34	-4.31
331.471	-2.31
331.603	-0.31
331.734	-16.31
331.866	13.69
331.997	-0.31
332.129	9.69
332.26	-10.31
332.392	16.69
332.523	4.69
332.654	-24.31
332.786	18.69
332.917	12.69
333.048	5.69
333.18	24.69
333.311	-11.31
333.443	4.69
333.574	10.69
333.705	23.69
333.837	6.69
333.968	0.69
334.099	19.69
334.231	29.69
334.362	-4.31
334.493	20.69
334.624	14.69
334.756	9.69
334.887	9.69
335.018	7.69
335.15	20.69
335.281	-12.31
335.412	20.69
335.543	12.69
335.675	9.69
335.806	10.69
335.937	2.69
336.068	13.69
336.199	23.69
336.331	7.69
336.462	-19.31
336.593	19.69
336.724	-1.31
336.855	18.69
336.986	23.69
337.118	16.69
337.249	13.69
337.38	27.69
337.511	12.69
337.642	-3.31
337.773	6.69
337.904	3.69
338.035	-8.31
338.166	-6.31
338.298	9.69
338.429	-12.31
338.56	18.69
338.691	11.69
338.822	10.69
338.953	12.69
339.084	16.69
339.215	24.69
339.346	11.69
339.477	-13.31
339.608	-0.31
339.739	9.69
339.87	-8.31
340.001	13.69
340.132	10.69
340.263	14.69
340.394	-1.31
340.525	-0.31
340.656	-3.31
340.787	-13.31
340.918	9.69
341.049	9.69
341.179	10.69
341.31	-1.31
341.441	25.69
341.572	19.69
341.703	12.69
341.834	5.69
341.965	14.69
342.096	4.69
342.227	4.69
342.357	1.69
342.488	15.69
342.619	2.69
342.75	4.69
342.881	10.69
343.012	28.69
343.142	23.69
343.273	-9.31
343.404	13.69
343.535	33.69
343.666	27.69
343.796	17.69
343.927	11.69
344.058	6.69
344.189	13.69
344.319	19.69
344.45	9.69
344.581	7.69
344.712	-15.31
344.842	1.69
344.973	21.69
345.104	24.69
345.234	5.69
345.365	-20.31
345.496	7.69
345.626	8.69
345.757	15.69
345.888	1.69
346.018	8.69
346.149	-4.31
346.28	14.69
346.41	-16.31
346.541	5.69
346.672	-6.31
346.802	22.69
346.933	7.69
347.063	11.69
347.194	2.69
347.325	-4.31
347.455	23.69
347.586	-0.31
347.716	5.69
347.847	16.69
347.977	13.69
348.108	9.69
348.238	-1.31
348.369	-16.31
348.499	11.69
348.63	-6.31
348.76	1.69
348.891	14.69
349.021	13.69
349.152	5.69
349.282	2.69
349.413	-0.31
349.543	5.69
349.674	-21.31
349.804	19.69
349.935	-0.31
350.065	2.69
350.196	-12.31
350.326	-0.31
350.456	3.69
350.587	9.69
350.717	10.69
350.848	6.69
350.978	11.69
351.108	-9.31
351.239	21.69
351.369	3.69
351.499	-9.31
351.63	12.69
351.76	3.69
351.89	18.69
352.021	2.69
352.151	7.69
352.281	21.69
352.412	11.69
352.542	19.69
352.672	3.69
352.803	2.69
352.933	3.69
353.063	-3.31
353.193	-2.31
353.324	-0.31
353.454	15.69
353.584	23.69
353.714	13.69
353.845	10.69
353.975	-11.31
354.105	7.69
354.235	5.69
354.365	14.69
354.496	1.69
354.626	18.69
354.756	40.69
354.886	4.69
355.016	19.69
355.146	-5.31
355.277	4.69
355.407	-0.31
355.537	-8.31
355.667	5.69
355.797	3.69
355.927	-0.31
356.057	13.69
356.187	-9.31
356.318	2.69
356.448	18.69
356.578	11.69
356.708	15.69
356.838	10.69
356.968	7.69
357.098	10.69
357.228	15.69
357.358	-0.31
357.488	10.69
357.618	20.69
357.748	28.69
357.878	-0.31
358.008	16.69
358.138	8.69
358.268	-5.31
358.398	3.69
358.528	2.69
358.658	14.69
358.788	-2.31
358.918	21.69
359.048	21.69
359.178	11.69
359.308	10.69
359.438	8.69
359.568	17.69
359.698	2.69
359.827	-2.31
359.957	0.69
360.087	9.69
360.217	-4.31
360.347	13.69
360.477	24.69
360.607	-2.31
360.737	17.69
360.866	8.69
360.996	-4.31
361.126	-3.31
361.256	32.69
361.386	27.69
361.516	23.69
361.645	11.69
361.775	7.69
361.905	-2.31
362.035	5.69
362.165	14.69
362.294	25.69
362.424	17.69
362.554	23.69
362.684	0.69
362.813	6.69
362.943	22.69
363.073	-4.31
363.203	7.69
363.332	-2.31
363.462	-2.31
363.592	-2.31
363.721	-1.31
363.851	-1.31
363.981	5.69
364.111	4.69
364.24	-4.31
364.37	7.69
364.5	25.69
364.629	10.69
364.759	-1.31
364.888	-8.31
365.018	-2.31
365.148	2.69
365.277	8.69
365.407	-1.31
365.537	6.69
365.666	29.69
365.796	10.69
365.925	8.69
366.055	-3.31
366.184	-4.31
366.314	2.69
366.444	18.69
366.573	-13.31
366.703	25.69
366.832	14.69
366.962	29.69
367.091	13.69
367.221	12.69
367.35	9.69
367.48	55.69
367.609	9.69
367.739	26.69
367.868	-3.31
367.998	12.69
368.127	26.69
368.257	40.69
368.386	23.69
368.516	18.69
368.645	11.69
368.775	9.69
368.904	13.69
369.033	-2.31
369.163	-0.31
369.292	15.69
369.422	24.69
369.551	24.69
369.68	21.69
369.81	4.69
369.939	-8.31
370.069	13.69
370.198	10.69
370.327	8.69
370.457	-10.31
370.586	10.69
370.715	-5.31
370.845	6.69
370.974	7.69
371.103	20.69
371.233	22.69
371.362	22.69
371.491	-8.31
371.621	15.69
371.75	13.69
371.879	9.69
372.008	-5.31
372.138	9.69
372.267	17.69
372.396	18.69
372.525	13.69
372.655	10.69
372.784	10.69
372.913	-5.31
373.042	-1.31
373.172	37.69
373.301	-14.31
373.43	-13.31
373.559	-6.31
373.688	-6.31
373.818	10.69
373.947	17.69
374.076	21.69
374.205	11.69
374.334	-5.31
374.463	-9.31
374.593	8.69
374.722	-0.31
374.851	19.69
374.98	-1.31
375.109	14.69
375.238	12.69
375.367	26.69
375.496	0.69
375.625	-18.31
375.755	28.69
375.884	6.69
376.013	13.69
376.142	9.69
376.271	9.69
376.4	2.69
376.529	11.69
376.658	16.69
376.787	10.69
376.916	1.69
377.045	14.69
377.174	0.69
377.303	-8.31
377.432	21.69
377.561	26.69
377.69	17.69
377.819	22.69
377.948	19.69
378.077	-4.31
378.206	-2.31
378.335	-14.31
378.464	22.69
378.593	28.69
378.722	19.69
378.851	12.69
378.98	15.69
379.108	-5.31
379.237	4.69
379.366	22.69
379.495	11.69
379.624	5.69
379.753	16.69
379.882	20.69
380.011	-7.31
380.14	1.69
380.268	20.69
380.397	-6.31
380.526	14.69
380.655	-6.31
380.784	-2.31
380.913	15.69
381.041	-2.31
381.17	-25.31
381.299	-9.31
381.428	5.69
381.557	-5.31
381.685	-7.31
381.814	10.69
381.943	10.69
382.072	-4.31
382.2	-5.31
382.329	6.69
382.458	11.69
382.587	33.69
382.715	19.69
382.844	18.69
382.973	15.69
383.102	-1.31
383.23	15.69
383.359	-8.31
383.488	27.69
383.616	13.69
383.745	1.69
383.874	9.69
384.003	9.69
384.131	-13.31
384.26	6.69
384.389	22.69
384.517	-6.31
384.646	2.69
384.774	-4.31
384.903	10.69
385.032	11.69
385.16	9.69
385.289	-9.31
385.418	4.69
385.546	-3.31
385.675	27.69
385.803	24.69
385.932	37.69
386.06	21.69
386.189	19.69
386.318	6.69
386.446	-1.31
386.575	14.69
386.703	13.69
386.832	0.69
386.96	4.69
387.089	16.69
387.217	2.69
387.346	-9.31
387.474	17.69
387.603	-4.31
387.731	7.69
387.86	-3.31
387.988	-4.31
388.117	-0.31
388.245	8.69
388.374	15.69
388.502	11.69
388.631	-9.31
388.759	9.69
388.888	-6.31
389.016	7.69
389.144	-7.31
389.273	19.69
389.401	-3.31
389.53	-7.31
389.658	5.69
389.786	-15.31
389.915	-1.31
390.043	-2.31
390.172	9.69
390.3	33.69
390.428	16.69
390.557	18.69
390.685	20.69
390.813	8.69
390.942	13.69
391.07	5.69
391.198	-2.31
391.327	3.69
391.455	5.69
391.583	23.69
391.712	18.69
391.84	28.69
391.968	5.69
392.096	23.69
392.225	11.69
392.353	2.69
392.481	4.69
392.609	29.69
392.738	6.69
392.866	17.69
392.994	-4.31
393.122	36.69
393.251	4.69
393.379	2.69
393.507	-13.31
393.635	1.69
393.764	19.69
393.892	11.69
394.02	-5.31
394.148	-3.31
394.276	7.69
394.404	15.69
394.533	-2.31
394.661	-1.31
394.789	29.69
394.917	31.69
395.045	3.69
395.173	5.69
395.302	5.69
395.43	-3.31
395.558	13.69
395.686	17.69
395.814	8.69
395.942	-8.31
396.07	14.69
396.198	8.69
396.326	-0.31
396.454	28.69
396.582	2.69
396.711	3.69
396.839	19.69
396.967	2.69
397.095	13.69
397.223	12.69
397.351	1.69
397.479	3.69
397.607	5.69
397.735	22.69
397.863	18.69
397.991	29.69
398.119	5.69
398.247	11.69
398.375	-14.31
398.503	4.69
398.631	14.69
398.759	8.69
398.887	15.69
399.015	10.69
399.143	27.69
399.271	21.69
399.399	19.69
399.526	23.69
399.654	31.69
399.782	-6.31
399.91	31.69
400.038	19.69
400.166	3.69
400.294	17.69
400.422	12.69
400.55	9.69
400.678	13.69
400.805	14.69
400.933	3.69
401.061	34.69
401.189	1.69
401.317	36.69
401.445	43.69
401.573	34.69
401.7	8.69
401.828	14.69
401.956	5.69
402.084	18.69
402.212	0.69
402.34	12.69
402.467	-7.31
402.595	17.69
402.723	18.69
402.851	32.69
402.978	21.69
403.106	16.69
403.234	10.69
403.362	28.69
403.489	12.69
403.617	15.69
403.745	8.69
403.873	3.69
404	14.69
404.128	6.69
404.256	6.69
404.384	16.69
404.511	15.69
404.639	-0.31
404.767	-12.31
404.894	6.69
405.022	20.69
405.15	13.69
405.277	35.69
405.405	16.69
405.533	11.69
405.66	6.69
405.788	-0.31
405.916	-10.31
406.043	-5.31
406.171	-5.31
406.299	8.69
406.426	9.69
406.554	9.69
406.681	12.69
406.809	14.69
406.937	21.69
407.064	20.69
407.192	26.69
407.319	22.69
407.447	1.69
407.574	29.69
407.702	18.69
407.83	-13.31
407.957	-21.31
408.085	10.69
408.212	0.69
408.34	7.69
408.467	4.69
408.595	18.69
408.722	16.69
408.85	4.69
408.977	5.69
409.105	7.69
409.232	16.69
409.36	7.69
409.487	14.69
409.615	14.69
409.742	29.69
409.87	27.69
409.997	28.69
410.125	41.69
410.252	52.69
410.379	35.69
410.507	32.69
410.634	15.69
410.762	6.69
410.889	6.69
411.017	0.69
411.144	-4.31
411.271	0.69
411.399	6.69
411.526	-8.31
411.653	-2.31
411.781	3.69
411.908	8.69
412.036	3.69
412.163	31.69
412.29	23.69
412.418	13.69
412.545	11.69
412.672	1.69
412.8	29.69
412.927	25.69
413.054	10.69
413.182	15.69
413.309	-12.31
413.436	-15.31
413.564	1.69
413.691	10.69
413.818	18.69
413.945	1.69
414.073	-6.31
414.2	10.69
414.327	27.69
414.454	15.69
414.582	18.69
414.709	-8.31
414.836	7.69
414.963	0.69
415.091	8.69
415.218	4.69
415.345	-9.31
415.472	-11.31
415.6	-0.31
415.727	19.69
415.854	6.69
415.981	-6.31
416.108	9.69
416.236	-8.31
416.363	27.69
416.49	8.69
416.617	18.69
416.744	30.69
416.871	7.69
416.998	-6.31
417.126	1.69
417.253	-0.31
417.38	21.69
417.507	5.69
417.634	1.69
417.761	27.69
417.888	-7.31
418.015	19.69
418.143	0.69
418.27	41.69
418.397	12.69
418.524	13.69
418.651	-5.31
418.778	11.69
418.905	29.69
419.032	15.69
419.159	-2.31
419.286	25.69
419.413	11.69
419.54	18.69
419.667	-4.31
419.794	-1.31
419.921	15.69
420.048	11.69
420.175	28.69
420.302	-13.31
420.429	-10.31
420.556	-13.31
420.683	9.69
420.81	-1.31
420.937	7.69
421.064	29.69
421.191	11.69
421.318	12.69
421.445	30.69
421.572	-6.31
421.699	12.69
421.826	6.69
421.953	24.69
422.08	0.69
422.207	-6.31
422.334	-2.31
422.461	12.69
422.588	-16.31
422.714	11.69
422.841	38.69
422.968	15.69
423.095	-3.31
423.222	-9.31
423.349	15.69
423.476	26.69
423.603	1.69
423.729	1.69
423.856	15.69
423.983	12.69
424.11	-8.31
424.237	17.69
424.364	2.69
424.491	-3.31
424.617	-3.31
424.744	3.69
424.871	15.69
424.998	5.69
425.125	-1.31
425.251	20.69
425.378	-2.31
425.505	-11.31
425.632	4.69
425.758	-9.31
425.885	9.69
426.012	17.69
426.139	25.69
426.266	4.69
426.392	26.69
426.519	19.69
426.646	-1.31
426.772	13.69
426.899	19.69
427.026	22.69
427.153	32.69
427.279	22.69
427.406	9.69
427.533	2.69
427.659	-1.31
427.786	5.69
427.913	46.69
428.039	11.69
428.166	2.69
428.293	6.69
428.419	15.69
428.546	6.69
428.673	-5.31
428.799	6.69
428.926	3.69
429.053	28.69
429.179	1.69
429.306	20.69
429.433	18.69
429.559	16.69
429.686	-14.31
429.812	-1.31
429.939	14.69
430.066	4.69
430.192	8.69
430.319	21.69
430.445	-10.31
430.572	12.69
430.699	-14.31
430.825	-6.31
430.952	20.69
431.078	11.69
431.205	9.69
431.331	1.69
431.458	3.69
431.584	5.69
431.711	6.69
431.837	16.69
431.964	19.69
432.09	34.69
432.217	-5.31
432.343	22.69
432.47	41.69
432.596	17.69
432.723	-0.31
432.849	-6.31
432.976	21.69
433.102	36.69
433.229	15.69
433.355	20.69
433.482	76.69
433.608	145.69
433.735	157.69
433.861	117.69
433.987	170.69
434.114	202.69
434.24	200.69
434.367	63.69
434.493	-8.31
434.62	20.69
434.746	24.69
434.872	22.69
434.999	30.69
435.125	2.69
435.252	0.69
435.378	18.69
435.504	3.69
435.631	16.69
435.757	1.69
435.883	15.69
436.01	6.69
436.136	6.69
436.262	13.69
436.389	8.69
436.515	21.69
436.641	24.69
436.768	22.69
436.894	28.69
437.02	12.69
437.147	28.69
437.273	28.69
437.399	11.69
437.526	28.69
437.652	-0.31
437.778	23.69
437.904	2.69
438.031	-2.31
438.157	4.69
438.283	3.69
438.409	-2.31
438.536	-7.31
438.662	11.69
438.788	4.69
438.914	25.69
439.041	31.69
439.167	41.69
439.293	12.69
439.419	-3.31
439.546	28.69
439.672	8.69
439.798	21.69
439.924	28.69
440.05	26.69
440.177	2.69
440.303	16.69
440.429	10.69
440.555	14.69
440.681	6.69
440.807	21.69
440.934	-1.31
441.06	9.69
441.186	2.69
441.312	10.69
441.438	19.69
441.564	27.69
441.69	14.69
441.816	11.69
441.943	11.69
442.069	21.69
442.195	3.69
442.321	19.69
442.447	-3.31
442.573	-1.31
442.699	-16.31
442.825	-15.31
442.951	17.69
443.077	8.69
443.203	3.69
443.33	-10.31
443.456	-2.31
443.582	12.69
443.708	-19.31
443.834	18.69
443.96	31.69
444.086	16.69
444.212	35.69
444.338	35.69
444.464	22.69
444.59	15.69
444.716	14.69
444.842	29.69
444.968	-1.31
445.094	2.69
445.22	-12.31
445.346	-2.31
445.472	14.69
445.598	6.69
445.724	11.69
445.85	13.69
445.976	-6.31
446.102	7.69
446.228	7.69
446.354	2.69
446.48	3.69
446.605	22.69
446.731	19.69
446.857	6.69
446.983	16.69
447.109	12.69
447.235	17.69
447.361	-0.31
447.487	8.69
447.613	19.69
447.739	2.69
447.865	17.69
447.99	7.69
448.116	3.69
448.242	1.69
448.368	7.69
448.494	14.69
448.62	20.69
448.746	17.69
448.872	-1.31
448.997	-3.31
449.123	17.69
449.249	28.69
449.375	26.69
449.501	11.69
449.627	-8.31
449.752	25.69
449.878	-13.31
450.004	9.69
450.13	9.69
450.256	9.69
450.381	-15.31
450.507	0.69
450.633	0.69
450.759	31.69
450.884	-0.31
451.01	30.69
451.136	11.69
451.262	26.69
451.388	7.69
451.513	4.69
451.639	11.69
451.765	7.69
451.89	-5.31
452.016	0.69
452.142	9.69
452.268	0.69
452.393	24.69
452.519	3.69
452.645	31.69
452.771	13.69
452.896	-13.31
453.022	-4.31
453.148	26.69
453.273	11.69
453.399	7.69
453.525	0.69
453.65	-2.31
453.776	12.69
453.902	16.69
454.027	7.69
454.153	26.69
454.279	17.69
454.404	9.69
454.53	26.69
454.656	38.69
454.781	7.69
454.907	9.69
455.032	2.69
455.158	-0.31
455.284	3.69
455.409	14.69
455.535	6.69
455.66	8.69
455.786	6.69
455.912	5.69
456.037	-7.31
456.163	33.69
456.288	21.69
456.414	-0.31
456.539	4.69
456.665	16.69
456.791	12.69
456.916	8.69
457.042	18.69
457.167	-3.31
457.293	2.69
457.418	11.69
457.544	8.69
457.669	16.69
457.795	10.69
457.92	18.69
458.046	13.69
458.171	11.69
458.297	8.69
458.422	-9.31
458.548	1.69
458.673	11.69
458.799	29.69
458.924	-9.31
459.05	15.69
459.175	15.69
459.301	15.69
459.426	5.69
459.552	26.69
459.677	12.69
459.803	0.69
459.928	4.69
460.053	1.69
460.179	12.69
460.304	14.69
460.43	-7.31
460.555	17.69
460.681	9.69
460.806	-0.31
460.931	21.69
461.057	7.69
461.182	5.69
461.308	22.69
461.433	18.69
461.558	-8.31
461.684	22.69
461.809	17.69
461.934	14.69
462.06	30.69
462.185	11.69
462.311	1.69
462.436	17.69
462.561	9.69
462.687	8.69
462.812	11.69
462.937	4.69
463.063	5.69
463.188	-5.31
463.313	11.69
463.439	15.69
463.564	7.69
463.689	14.69
463.814	35.69
463.94	5.69
464.065	26.69
464.19	18.69
464.316	-1.31
464.441	10.69
464.566	15.69
464.692	9.69
464.817	5.69
464.942	10.69
465.067	11.69
465.193	-23.31
465.318	6.69
465.443	11.69
465.568	3.69
465.694	-1.31
465.819	25.69
465.944	21.69
466.069	18.69
466.194	12.69
466.32	1.69
466.445	8.69
466.57	19.69
466.695	15.69
466.82	25.69
466.946	28.69
467.071	15.69
467.196	-2.31
467.321	12.69
467.446	5.69
467.572	15.69
467.697	-2.31
467.822	5.69
467.947	19.69
468.072	-3.31
468.197	4.69
468.323	0.69
468.448	9.69
468.573	6.69
468.698	8.69
468.823	7.69
468.948	27.69
469.073	26.69
469.198	43.69
469.324	23.69
469.449	6.69
469.574	9.69
469.699	28.69
469.824	28.69
469.949	20.69
470.074	9.69
470.199	45.69
470.324	26.69
470.449	34.69
470.574	21.69
470.7	6.69
470.825	35.69
470.95	30.69
471.075	15.69
471.2	12.69
471.325	24.69
471.45	14.69
471.575	-4.31
471.7	12.69
471.825	1.69
471.95	11.69
472.075	3.69
472.2	18.69
472.325	19.69
472.45	-4.31
472.575	-0.31
472.7	1.69
472.825	37.69
472.95	6.69
473.075	21.69
473.2	7.69
473.325	9.69
473.45	14.69
473.575	5.69
473.7	2.69
473.825	11.69
473.95	10.69
474.075	33.69
474.2	6.69
474.325	-1.31
474.45	33.69
474.574	17.69
474.699	21.69
474.824	34.69
474.949	5.69
475.074	-11.31
475.199	17.69
475.324	21.69
475.449	11.69
475.574	32.69
475.699	21.69
475.824	12.69
475.949	17.69
476.073	-4.31
476.198	16.69
476.323	9.69
476.448	9.69
476.573	4.69
476.698	28.69
476.823	15.69
476.947	16.69
477.072	16.69
477.197	29.69
477.322	9.69
477.447	23.69
477.572	29.69
477.697	19.69
477.821	16.69
477.946	29.69
478.071	23.69
478.196	22.69
478.321	23.69
478.445	15.69
478.57	23.69
478.695	17.69
478.82	35.69
478.945	18.69
479.069	3.69
479.194	-0.31
479.319	28.69
479.444	22.69
479.569	-0.31
479.693	16.69
479.818	19.69
479.943	27.69
480.068	21.69
480.192	16.69
480.317	14.69
480.442	-2.31
480.567	3.69
480.691	13.69
480.816	10.69
480.941	3.69
481.066	18.69
481.19	26.69
481.315	20.69
481.44	14.69
481.564	-3.31
481.689	27.69
481.814	23.69
481.938	18.69
482.063	16.69
482.188	31.69
482.313	46.69
482.437	23.69
482.562	21.69
482.687	22.69
482.811	34.69
482.936	42.69
483.061	14.69
483.185	31.69
483.31	31.69
483.435	17.69
483.559	13.69
483.684	15.69
483.808	28.69
483.933	11.69
484.058	38.69
484.182	18.69
484.307	20.69
484.432	25.69
484.556	18.69
484.681	24.69
484.805	18.69
484.93	31.69
485.055	39.69
485.179	74.69
485.304	111.69
485.428	367.69
485.553	1247.69
485.678	1755.69
485.802	1647.69
485.927	1809.69
486.051	2671.69
486.176	1638.69
486.3	462.69
486.425	156.69
486.549	88.69
486.674	53.69
486.799	35.69
486.923	21.69
487.048	8.69
487.172	15.69
487.297	17.69
487.421	28.69
487.546	23.69
487.67	16.69
487.795	14.69
487.919	26.69
488.044	21.69
488.168	29.69
488.293	21.69
488.417	8.69
488.542	29.69
488.666	31.69
488.791	21.69
488.915	29.69
489.04	18.69
489.164	30.69
489.289	27.69
489.413	16.69
489.538	11.69
489.662	26.69
489.786	8.69
489.911	19.69
490.035	9.69
490.16	9.69
490.284	16.69
490.409	-2.31
490.533	17.69
490.658	30.69
490.782	15.69
490.906	22.69
491.031	30.69
491.155	25.69
491.28	16.69
491.404	9.69
491.528	31.69
491.653	11.69
491.777	45.69
491.902	-1.31
492.026	5.69
492.15	25.69
492.275	37.69
492.399	30.69
492.524	-0.31
492.648	21.69
492.772	22.69
492.897	26.69
493.021	-0.31
493.145	25.69
493.27	22.69
493.394	13.69
493.518	7.69
493.643	9.69
493.767	34.69
493.891	-6.31
494.016	25.69
494.14	-6.31
494.264	20.69
494.389	17.69
494.513	-0.31
494.637	9.69
494.762	24.69
494.886	24.69
495.01	17.69
495.134	10.69
495.259	40.69
495.383	11.69
495.507	5.69
495.632	35.69
495.756	52.69
495.88	28.69
496.004	13.69
496.129	14.69
496.253	42.69
496.377	2.69
496.501	22.69
496.626	1.69
496.75	38.69
496.874	23.69
496.998	23.69
497.123	38.69
497.247	18.69
497.371	-3.31
497.495	1.69
497.62	10.69
497.744	20.69
497.868	2.69
497.992	11.69
498.116	3.69
498.241	18.69
498.365	2.69
498.489	9.69
498.613	22.69
498.737	-5.31
498.862	8.69
498.986	7.69
499.11	16.69
499.234	8.69
499.358	8.69
499.482	7.69
499.607	19.69
499.731	11.69
499.855	36.69
499.979	6.69
500.103	30.69
500.227	-5.31
500.351	18.69
500.476	18.69
500.6	14.69
500.724	18.69
500.848	16.69
500.972	22.69
501.096	2.69
501.22	26.69
501.344	17.69
501.469	1.69
501.593	18.69
501.717	23.69
501.841	8.69
501.965	23.69
502.089	19.69
502.213	22.69
502.337	14.69
502.461	9.69
502.585	15.69
502.709	21.69
502.834	18.69
502.958	17.69
503.082	27.69
503.206	13.69
503.33	10.69
503.454	21.69
503.578	34.69
503.702	34.69
503.826	19.69
503.95	35.69
504.074	9.69
504.198	10.69
504.322	-4.31
504.446	9.69
504.57	30.69
504.694	15.69
504.818	13.69
504.942	35.69
505.066	7.69
505.19	33.69
505.314	22.69
505.438	15.69
505.562	21.69
505.686	11.69
505.81	9.69
505.934	17.69
506.058	11.69
506.182	13.69
506.306	25.69
506.43	6.69
506.554	12.69
506.678	5.69
506.802	3.69
506.926	6.69
507.05	17.69
507.174	31.69
507.298	19.69
507.422	1.69
507.546	17.69
507.67	22.69
507.794	-0.31
507.918	7.69
508.042	30.69
508.165	11.69
508.289	18.69
508.413	15.69
508.537	-13.31
508.661	16.69
508.785	8.69
508.909	19.69
509.033	11.69
509.157	11.69
509.281	18.69
509.405	19.69
509.528	34.69
509.652	16.69
509.776	12.69
509.9	27.69
510.024	7.69
510.148	9.69
510.272	18.69
510.396	26.69
510.519	6.69
510.643	20.69
510.767	3.69
510.891	7.69
511.015	3.69
511.139	22.69
511.263	29.69
511.386	25.69
511.51	22.69
511.634	-19.31
511.758	8.69
511.882	-5.31
512.006	24.69
512.129	10.69
512.253	43.69
512.377	20.69
512.501	3.69
512.625	12.69
512.748	-14.31
512.872	13.69
512.996	25.69
513.12	17.69
513.244	2.69
513.367	19.69
513.491	20.69
513.615	9.69
513.739	14.69
513.862	9.69
513.986	29.69
514.11	19.69
514.234	15.69
514.358	22.69
514.481	33.69
514.605	11.69
514.729	20.69
514.853	20.69
514.976	20.69
515.1	8.69
515.224	26.69
515.348	10.69
515.471	6.69
515.595	12.69
515.719	7.69
515.842	35.69
515.966	24.69
516.09	19.69
516.214	20.69
516.337	40.69
516.461	30.69
516.585	16.69
516.708	32.69
516.832	38.69
516.956	29.69
517.08	16.69
517.203	3.69
517.327	3.69
517.451	29.69
517.574	34.69
517.698	4.69
517.822	10.69
517.945	34.69
518.069	44.69
518.193	45.69
518.316	25.69
518.44	23.69
518.564	9.69
518.687	25.69
518.811	34.69
518.935	55.69
519.058	50.69
519.182	46.69
519.306	44.69
519.429	37.69
519.553	53.69
519.676	27.69
519.8	24.69
519.924	5.69
520.047	16.69
520.171	7.69
520.294	18.69
520.418	16.69
520.542	2.69
520.665	23.69
520.789	5.69
520.913	5.69
521.036	-5.31
521.16	9.69
521.283	-2.31
521.407	-3.31
521.53	-2.31
521.654	-8.31
521.778	28.69
521.901	14.69
522.025	21.69
522.148	6.69
522.272	11.69
522.395	6.69
522.519	26.69
522.643	2.69
522.766	5.69
522.89	-0.31
523.013	25.69
523.137	5.69
523.26	19.69
523.384	16.69
523.507	12.69
523.631	14.69
523.754	12.69
523.878	24.69
524.002	27.69
524.125	14.69
524.249	2.69
524.372	28.69
524.496	9.69
524.619	14.69
524.743	19.69
524.866	10.69
524.99	10.69
525.113	-20.31
525.237	19.69
525.36	11.69
525.484	14.69
525.607	-16.31
525.731	-10.31
525.854	6.69
525.978	33.69
526.101	6.69
526.224	6.69
526.348	6.69
526.471	20.69
526.595	4.69
526.718	15.69
526.842	-0.31
526.965	23.69
527.089	-4.31
527.212	19.69
527.336	-10.31
527.459	17.69
527.582	18.69
527.706	27.69
527.829	27.69
527.953	21.69
528.076	-0.31
528.2	-5.31
528.323	12.69
528.446	29.69
528.57	11.69
528.693	14.69
528.817	-5.31
528.94	20.69
529.064	36.69
529.187	13.69
529.31	11.69
529.434	11.69
529.557	22.69
529.68	2.69
529.804	5.69
529.927	13.69
530.051	-0.31
530.174	-3.31
530.297	17.69
530.421	9.69
530.544	18.69
530.668	19.69
530.791	6.69
530.914	17.69
531.038	25.69
531.161	23.69
531.284	11.69
531.408	3.69
531.531	1.69
531.654	-0.31
531.778	10.69
531.901	7.69
532.024	13.69
532.148	5.69
532.271	8.69
532.394	14.69
532.518	18.69
532.641	18.69
532.764	49.69
532.888	30.69
533.011	-6.31
533.134	8.69
533.258	32.69
533.381	8.69
533.504	-6.31
533.628	2.69
533.751	21.69
533.874	18.69
533.997	15.69
534.121	5.69
534.244	-0.31
534.367	-0.31
534.491	10.69
534.614	3.69
534.737	19.69
534.86	2.69
534.984	-2.31
535.107	-3.31
535.23	21.69
535.354	15.69
535.477	13.69
535.6	6.69
535.723	8.69
535.847	8.69
535.97	8.69
536.093	10.69
536.216	-2.31
536.34	-4.31
536.463	-3.31
536.586	15.69
536.709	3.69
536.833	15.69
536.956	9.69
537.079	9.69
537.202	26.69
537.325	3.69
537.449	-1.31
537.572	22.69
537.695	7.69
537.818	10.69
537.941	4.69
538.065	10.69
538.188	-4.31
538.311	36.69
538.434	15.69
538.558	21.69
538.681	29.69
538.804	18.69
538.927	-1.31
539.05	17.69
539.173	4.69
539.297	14.69
539.42	15.69
539.543	14.69
539.666	45.69
539.789	21.69
539.913	12.69
540.036	5.69
540.159	20.69
540.282	8.69
540.405	-4.31
540.528	7.69
540.651	28.69
540.775	19.69
540.898	32.69
541.021	9.69
541.144	8.69
541.267	16.69
541.39	-2.31
541.513	11.69
541.637	3.69
541.76	-6.31
541.883	1.69
542.006	18.69
542.129	26.69
542.252	12.69
542.375	5.69
542.498	-0.31
542.622	4.69
542.745	22.69
542.868	18.69
542.991	10.69
543.114	11.69
543.237	6.69
543.36	27.69
543.483	13.69
543.606	18.69
543.73	15.69
543.853	10.69
543.976	-7.31
544.099	5.69
544.222	7.69
544.345	11.69
544.468	2.69
544.591	28.69
544.714	20.69
544.837	10.69
544.96	12.69
545.083	11.69
545.206	0.69
545.329	20.69
545.453	15.69
545.576	8.69
545.699	-1.31
545.822	18.69
545.945	44.69
546.068	21.69
546.191	15.69
546.314	4.69
546.437	34.69
546.56	19.69
546.683	17.69
546.806	29.69
546.929	12.69
547.052	-10.31
547.175	-4.31
547.298	2.69
547.421	-8.31
547.544	0.69
547.667	7.69
547.79	10.69
547.913	17.69
548.036	-0.31
548.159	12.69
548.282	5.69
548.405	-1.31
548.528	9.69
548.651	6.69
548.774	-8.31
548.897	12.69
549.02	21.69
549.143	24.69
549.266	23.69
549.389	26.69
549.512	5.69
549.635	32.69
549.758	23.69
549.881	1.69
550.004	9.69
550.127	8.69
550.25	20.69
550.373	4.69
550.496	-0.31
550.619	-2.31
550.742	-10.31
550.865	-11.31
550.988	12.69
551.111	11.69
551.234	15.69
551.356	13.69
551.479	23.69
551.602	12.69
551.725	13.69
551.848	26.69
551.971	34.69
552.094	21.69
552.217	4.69
552.34	24.69
552.463	10.69
552.586	-1.31
552.709	-10.31
552.832	17.69
552.955	14.69
553.077	10.69
553.2	15.69
553.323	-5.31
553.446	8.69
553.569	-1.31
553.692	16.69
553.815	10.69
553.938	17.69
554.061	18.69
554.184	-2.31
554.306	24.69
554.429	23.69
554.552	14.69
554.675	19.69
554.798	7.69
554.921	7.69
555.044	20.69
555.167	0.69
555.29	-3.31
555.412	15.69
555.535	-2.31
555.658	8.69
555.781	20.69
555.904	11.69
556.027	12.69
556.15	12.69
556.272	14.69
556.395	23.69
556.518	-10.31
556.641	6.69
556.764	19.69
556.887	27.69
557.01	1.69
557.132	-12.31
557.255	27.69
557.378	24.69
557.501	18.69
557.624	8.69
557.747	22.69
557.869	29.69
557.992	26.69
558.115	27.69
558.238	10.69
558.361	12.69
558.483	7.69
558.606	24.69
558.729	1.69
558.852	47.69
558.975	9.69
559.098	20.69
559.22	11.69
559.343	11.69
559.466	12.69
559.589	9.69
559.712	10.69
559.834	9.69
559.957	25.69
560.08	16.69
560.203	14.69
560.325	33.69
560.448	28.69
560.571	14.69
560.694	21.69
560.817	29.69
560.939	-4.31
561.062	6.69
561.185	12.69
561.308	1.69
561.43	4.69
561.553	25.69
561.676	9.69
561.799	12.69
561.921	-7.31
562.044	12.69
562.167	7.69
562.29	37.69
562.413	9.69
562.535	30.69
562.658	10.69
562.781	13.69
562.903	15.69
563.026	-5.31
563.149	28.69
563.272	17.69
563.394	1.69
563.517	-3.31
563.64	2.69
563.763	4.69
563.885	22.69
564.008	43.69
564.131	13.69
564.254	5.69
564.376	10.69
564.499	-5.31
564.622	7.69
564.744	10.69
564.867	9.69
564.99	-6.31
565.113	19.69
565.235	11.69
565.358	11.69
565.481	-10.31
565.603	3.69
565.726	9.69
565.849	16.69
565.971	13.69
566.094	-0.31
566.217	1.69
566.34	-9.31
566.462	21.69
566.585	19.69
566.708	31.69
566.83	28.69
566.953	13.69
567.076	21.69
567.198	24.69
567.321	14.69
567.444	5.69
567.566	2.69
567.689	6.69
567.812	1.69
567.934	12.69
568.057	1.69
568.18	20.69
568.302	7.69
568.425	-12.31
568.548	6.69
568.67	18.69
568.793	17.69
568.916	9.69
569.038	4.69
569.161	-1.31
569.283	19.69
569.406	9.69
569.529	11.69
569.651	7.69
569.774	21.69
569.897	3.69
570.019	33.69
570.142	18.69
570.265	9.69
570.387	6.69
570.51	22.69
570.632	31.69
570.755	7.69
570.878	8.69
571	29.69
571.123	27.69
571.246	38.69
571.368	23.69
571.491	8.69
571.613	-0.31
571.736	-10.31
571.859	-2.31
571.981	-0.31
572.104	6.69
572.226	45.69
572.349	8.69
572.472	20.69
572.594	22.69
572.717	18.69
572.839	7.69
572.962	3.69
573.085	7.69
573.207	6.69
573.33	8.69
573.452	22.69
573.575	11.69
573.697	17.69
573.82	5.69
573.943	-4.31
574.065	6.69
574.188	-5.31
574.31	28.69
574.433	20.69
574.555	22.69
574.678	3.69
574.801	18.69
574.923	7.69
575.046	6.69
575.168	10.69
575.291	13.69
575.413	7.69
575.536	7.69
575.659	22.69
575.781	15.69
575.904	17.69
576.026	16.69
576.149	3.69
576.271	18.69
576.394	19.69
576.516	19.69
576.639	18.69
576.761	3.69
576.884	7.69
577.007	6.69
577.129	5.69
577.252	-4.31
577.374	37.69
577.497	10.69
577.619	15.69
577.742	6.69
577.864	23.69
577.987	15.69
578.109	24.69
578.232	10.69
578.354	33.69
578.477	-14.31
578.599	0.69
578.722	-2.31
578.844	6.69
578.967	12.69
579.089	8.69
579.212	7.69
579.334	40.69
579.457	21.69
579.579	17.69
579.702	-2.31
579.824	6.69
579.947	2.69
580.069	-12.31
580.192	6.69
580.314	25.69
580.437	17.69
580.559	37.69
580.682	15.69
580.804	11.69
580.927	4.69
581.049	36.69
581.172	30.69
581.294	17.69
581.417	23.69
581.539	-9.31
581.662	33.69
581.784	21.69
581.907	21.69
582.029	15.69
582.152	-13.31
582.274	29.69
582.396	24.69
582.519	7.69
582.641	6.69
582.764	10.69
582.886	32.69
583.009	9.69
583.131	24.69
583.254	14.69
583.376	28.69
583.499	12.69
583.621	7.69
583.743	29.69
583.866	15.69
583.988	2.69
584.111	21.69
584.233	9.69
584.356	18.69
584.478	21.69
584.601	-4.31
584.723	5.69
584.845	26.69
584.968	11.69
585.09	-2.31
585.213	24.69
585.335	2.69
585.458	-6.31
585.58	-6.31
585.702	10.69
585.825	21.69
585.947	10.69
586.07	-11.31
586.192	-10.31
586.315	10.69
586.437	-14.31
586.559	-2.31
586.682	2.69
586.804	25.69
586.927	3.69
587.049	4.69
587.171	22.69
587.294	26.69
587.416	37.69
587.539	10.69
587.661	6.69
587.783	-5.31
587.906	-5.31
588.028	15.69
588.151	6.69
588.273	28.69
588.395	12.69
588.518	10.69
588.64	9.69
588.763	17.69
588.885	22.69
589.007	27.69
589.13	-13.31
589.252	-11.31
589.375	4.69
589.497	7.69
589.619	3.69
589.742	18.69
589.864	18.69
589.986	10.69
590.109	-0.31
590.231	11.69
590.354	13.69
590.476	-10.31
590.598	3.69
590.721	-2.31
590.843	20.69
590.965	5.69
591.088	12.69
591.21	7.69
591.332	6.69
591.455	1.69
591.577	11.69
591.7	-2.31
591.822	7.69
591.944	-0.31
592.067	6.69
592.189	12.69
592.311	7.69
592.434	18.69
592.556	11.69
592.678	6.69
592.801	2.69
592.923	1.69
593.045	8.69
593.168	12.69
593.29	12.69
593.412	20.69
593.535	5.69
593.657	4.69
593.779	1.69
593.902	21.69
594.024	10.69
594.146	16.69
594.269	23.69
594.391	1.69
594.513	21.69
594.636	10.69
594.758	4.69
594.88	8.69
595.003	30.69
595.125	14.69
595.247	9.69
595.37	27.69
595.492	-9.31
595.614	28.69
595.737	3.69
595.859	15.69
595.981	17.69
596.104	20.69
596.226	3.69
596.348	12.69
596.471	10.69
596.593	25.69
596.715	35.69
596.838	15.69
596.96	3.69
597.082	22.69
597.204	24.69
597.327	22.69
597.449	-5.31
597.571	7.69
597.694	17.69
597.816	17.69
597.938	-9.31
598.061	14.69
598.183	-1.31
598.305	22.69
598.427	19.69
598.55	4.69
598.672	34.69
598.794	4.69
598.917	13.69
599.039	9.69
599.161	22.69
599.283	-0.31
599.406	9.69
599.528	20.69
599.65	35.69
599.773	13.69
599.895	28.69
600.017	24.69
600.139	10.69
600.262	9.69
600.384	-3.31
600.506	9.69
600.628	19.69
600.751	36.69
600.873	18.69
600.995	9.69
601.118	14.69
601.24	-1.31
601.362	20.69
601.484	12.69
601.607	14.69
601.729	16.69
601.851	11.69
601.973	21.69
602.096	16.69
602.218	7.69
602.34	14.69
602.462	19.69
602.585	15.69
602.707	-3.31
602.829	25.69
602.951	39.69
603.074	15.69
603.196	16.69
603.318	-12.31
603.44	21.69
603.563	9.69
603.685	-3.31
603.807	21.69
603.929	21.69
604.052	9.69
604.174	29.69
604.296	30.69
604.418	18.69
604.541	21.69
604.663	1.69
604.785	18.69
604.907	7.69
605.03	-2.31
605.152	45.69
605.274	4.69
605.396	7.69
605.519	16.69
605.641	19.69
605.763	10.69
605.885	8.69
606.008	24.69
606.13	17.69
606.252	15.69
606.374	-5.31
606.496	-2.31
606.619	20.69
606.741	-2.31
606.863	37.69
606.985	16.69
607.108	33.69
607.23	9.69
607.352	16.69
607.474	16.69
607.596	20.69
607.719	22.69
607.841	37.69
607.963	5.69
608.085	5.69
608.207	42.69
608.33	11.69
608.452	12.69
608.574	17.69
608.696	11.69
608.819	20.69
608.941	-1.31
609.063	13.69
609.185	18.69
609.307	19.69
609.43	16.69
609.552	13.69
609.674	-2.31
609.796	13.69
609.918	7.69
610.041	12.69
610.163	4.69
610.285	21.69
610.407	16.69
610.529	-10.31
610.652	-0.31
610.774	12.69
610.896	2.69
611.018	18.69
611.14	10.69
611.263	-2.31
611.385	3.69
611.507	24.69
611.629	3.69
611.751	21.69
611.873	43.69
611.996	25.69
612.118	20.69
612.24	18.69
612.362	24.69
612.484	35.69
612.607	9.69
612.729	23.69
612.851	7.69
612.973	5.69
613.095	7.69
613.218	19.69
613.34	24.69
613.462	-4.31
613.584	5.69
613.706	2.69
613.828	47.69
613.951	13.69
614.073	11.69
614.195	-5.31
614.317	22.69
614.439	35.69
614.561	9.69
614.684	22.69
614.806	30.69
614.928	14.69
615.05	12.69
615.172	11.69
615.294	23.69
615.417	10.69
615.539	-0.31
615.661	19.69
615.783	33.69
615.905	45.69
616.027	70.69
616.15	108.69
616.272	76.69
616.394	61.69
616.516	35.69
616.638	27.69
616.76	1.69
616.883	19.69
617.005	22.69
617.127	8.69
617.249	28.69
617.371	25.69
617.493	-10.31
617.615	22.69
617.738	5.69
617.86	22.69
617.982	2.69
618.104	26.69
618.226	10.69
618.348	4.69
618.471	21.69
618.593	15.69
618.715	-2.31
618.837	19.69
618.959	27.69
619.081	37.69
619.203	15.69
619.326	7.69
619.448	20.69
619.57	25.69
619.692	18.69
619.814	25.69
619.936	11.69
620.058	26.69
620.181	25.69
620.303	20.69
620.425	4.69
620.547	3.69
620.669	1.69
620.791	-2.31
620.913	5.69
621.036	3.69
621.158	18.69
621.28	12.69
621.402	-8.31
621.524	-10.31
621.646	10.69
621.768	7.69
621.891	2.69
622.013	16.69
622.135	1.69
622.257	0.69
622.379	12.69
622.501	9.69
622.623	1.69
622.745	17.69
622.868	17.69
622.99	12.69
623.112	7.69
623.234	16.69
623.356	21.69
623.478	5.69
623.6	10.69
623.722	18.69
623.845	23.69
623.967	0.69
624.089	-9.31
624.211	14.69
624.333	28.69
624.455	21.69
624.577	15.69
624.699	20.69
624.822	8.69
624.944	10.69
625.066	18.69
625.188	-2.31
625.31	13.69
625.432	26.69
625.554	11.69
625.676	34.69
625.799	-6.31
625.921	12.69
626.043	22.69
626.165	23.69
626.287	-2.31
626.409	8.69
626.531	10.69
626.653	5.69
626.775	16.69
626.898	12.69
627.02	10.69
627.142	14.69
627.264	16.69
627.386	9.69
627.508	10.69
627.63	11.69
627.752	12.69
627.874	11.69
627.997	13.69
628.119	8.69
628.241	32.69
628.363	20.69
628.485	12.69
628.607	7.69
628.729	-9.31
628.851	7.69
628.973	11.69
629.096	2.69
629.218	10.69
629.34	6.69
629.462	-1.31
629.584	4.69
629.706	22.69
629.828	31.69
629.95	1.69
630.072	11.69
630.195	10.69
630.317	13.69
630.439	-8.31
630.561	22.69
630.683	-8.31
630.805	-1.31
630.927	18.69
631.049	-1.31
631.171	9.69
631.293	18.69
631.416	13.69
631.538	12.69
631.66	25.69
631.782	24.69
631.904	21.69
632.026	8.69
632.148	7.69
632.27	2.69
632.392	16.69
632.514	15.69
632.637	16.69
632.759	3.69
632.881	0.69
633.003	7.69
633.125	-1.31
633.247	-1.31
633.369	2.69
633.491	7.69
633.613	6.69
633.735	13.69
633.858	8.69
633.98	-0.31
634.102	13.69
634.224	15.69
634.346	16.69
634.468	1.69
634.59	2.69
634.712	13.69
634.834	11.69
634.956	7.69
635.078	8.69
635.201	15.69
635.323	21.69
635.445	7.69
635.567	-0.31
635.689	22.69
635.811	5.69
635.933	20.69
636.055	2.69
636.177	15.69
636.299	19.69
636.421	10.69
636.544	1.69
636.666	6.69
636.788	-2.31
636.91	7.69
637.032	9.69
637.154	9.69
637.276	33.69
637.398	2.69
637.52	9.69
637.642	11.69
637.764	8.69
637.887	9.69
638.009	21.69
638.131	-2.31
638.253	9.69
638.375	23.69
638.497	15.69
638.619	14.69
638.741	23.69
638.863	-3.31
638.985	-10.31
639.107	1.69
639.23	17.69
639.352	20.69
639.474	-6.31
639.596	13.69
639.718	4.69
639.84	18.69
639.962	25.69
640.084	38.69
640.206	9.69
640.328	-7.31
640.45	19.69
640.573	28.69
640.695	11.69
640.817	22.69
640.939	24.69
641.061	10.69
641.183	9.69
641.305	12.69
641.427	15.69
641.549	9.69
641.671	-3.31
641.793	8.69
641.915	21.69
642.038	2.69
642.16	-3.31
642.282	2.69
642.404	3.69
642.526	10.69
642.648	17.69
642.77	18.69
642.892	4.69
643.014	27.69
643.136	9.69
643.258	11.69
643.381	30.69
643.503	29.69
643.625	8.69
643.747	-6.31
643.869	-1.31
643.991	17.69
644.113	-2.31
644.235	13.69
644.357	23.69
644.479	24.69
644.601	6.69
644.723	-0.31
644.846	14.69
644.968	19.69
645.09	20.69
645.212	6.69
645.334	28.69
645.456	11.69
645.578	8.69
645.7	22.69
645.822	28.69
645.944	28.69
646.066	3.69
646.188	8.69
646.311	36.69
646.433	-2.31
646.555	37.69
646.677	55.69
646.799	39.69
646.921	40.69
647.043	24.69
647.165	-2.31
647.287	6.69
647.409	6.69
647.531	25.69
647.654	-7.31
647.776	17.69
647.898	19.69
648.02	15.69
648.142	-1.31
648.264	10.69
648.386	18.69
648.508	1.69
648.63	-1.31
648.752	16.69
648.874	0.69
648.997	-3.31
649.119	6.69
649.241	21.69
649.363	31.69
649.485	1.69
649.607	12.69
649.729	-5.31
649.851	6.69
649.973	3.69
650.095	18.69
650.217	-9.31
650.34	0.69
650.462	12.69
650.584	-17.31
650.706	19.69
650.828	6.69
650.95	-5.31
651.072	19.69
651.194	8.69
651.316	-2.31
651.438	18.69
651.56	20.69
651.683	6.69
651.805	27.69
651.927	10.69
652.049	-3.31
652.171	20.69
652.293	13.69
652.415	-7.31
652.537	-12.31
652.659	3.69
652.781	37.69
652.903	28.69
653.026	44.69
653.148	19.69
653.27	10.69
653.392	12.69
653.514	13.69
653.636	13.69
653.758	10.69
653.88	19.69
654.002	-6.31
654.124	10.69
654.247	-4.31
654.369	36.69
654.491	11.69
654.613	24.69
654.735	-3.31
654.857	19.69
654.979	10.69
655.101	31.69
655.223	38.69
655.345	25.69
655.468	18.69
655.59	18.69
655.712	34.69
655.834	17.69
655.956	41.69
656.078	21.69
656.2	47.69
656.322	23.69
656.444	10.69
656.566	52.69
656.689	51.69
656.811	67.69
656.933	102.69
657.055	88.69
657.177	151.69
657.299	250.69
657.421	506.69
657.543	1900.69
657.665	12440.69
657.787	15158.69
657.91	15217.69
658.032	15664.69
658.154	4604.69
658.276	3239.69
658.398	1125.69
658.52	989.69
658.642	465.69
658.764	573.69
658.886	256.69
659.009	407.69
659.131	210.69
659.253	299.69
659.375	150.69
659.497	235.69
659.619	140.69
659.741	197.69
659.863	97.69
659.985	149.69
660.108	100.69
660.23	147.69
660.352	85.69
660.474	176.69
660.596	73.69
660.718	127.69
660.84	58.69
660.962	105.69
661.084	44.69
661.207	85.69
661.329	59.69
661.451	93.69
661.573	54.69
661.695	105.69
661.817	51.69
661.939	88.69
662.061	58.69
662.184	74.69
662.306	42.69
662.428	51.69
662.55	52.69
662.672	57.69
662.794	47.69
662.916	62.69
663.038	41.69
663.161	87.69
663.283	45.69
663.405	72.69
663.527	33.69
663.649	68.69
663.771	27.69
663.893	59.69
664.015	51.69
664.138	58.69
664.26	15.69
664.382	69.69
664.504	25.69
664.626	27.69
664.748	7.69
664.87	30.69
664.992	33.69
665.115	57.69
665.237	40.69
665.359	50.69
665.481	18.69
665.603	54.69
665.725	29.69
665.847	47.69
665.97	33.69
666.092	50.69
666.214	30.69
666.336	50.69
666.458	27.69
666.58	34.69
666.702	-1.31
666.825	21.69
666.947	14.69
667.069	28.69
667.191	40.69
667.313	54.69
667.435	9.69
667.557	11.69
667.68	1.69
667.802	22.69
667.924	10.69
668.046	42.69
668.168	36.69
668.29	52.69
668.412	29.69
668.535	48.69
668.657	29.69
668.779	6.69
668.901	22.69
669.023	37.69
669.145	35.69
669.267	36.69
669.39	14.69
669.512	25.69
669.634	28.69
669.756	26.69
669.878	44.69
670	26.69
670.123	6.69
670.245	21.69
670.367	23.69
670.489	31.69
670.611	1.69
670.733	13.69
670.856	18.69
670.978	21.69
671.1	12.69
671.222	29.69
671.344	18.69
671.466	4.69
671.589	-8.31
671.711	18.69
671.833	12.69
671.955	18.69
672.077	10.69
672.199	29.69
672.322	34.69
672.444	25.69
672.566	18.69
672.688	37.69
672.81	38.69
672.932	26.69
673.055	5.69
673.177	14.69
673.299	6.69
673.421	13.69
673.543	17.69
673.665	34.69
673.788	14.69
673.91	8.69
674.032	1.69
674.154	29.69
674.276	14.69
674.399	31.69
674.521	8.69
674.643	18.69
674.765	14.69
674.887	22.69
675.009	4.69
675.132	11.69
675.254	2.69
675.376	13.69
675.498	25.69
675.62	35.69
675.743	13.69
675.865	11.69
675.987	9.69
676.109	22.69
676.231	26.69
676.354	49.69
676.476	15.69
676.598	29.69
676.72	13.69
676.842	34.69
676.965	-0.31
677.087	11.69
677.209	11.69
677.331	19.69
677.453	9.69
677.576	7.69
677.698	14.69
677.82	18.69
677.942	-1.31
678.064	16.69
678.187	18.69
678.309	4.69
678.431	6.69
678.553	17.69
678.675	28.69
678.798	31.69
678.92	-2.31
679.042	15.69
679.164	-2.31
679.286	15.69
679.409	16.69
679.531	-1.31
679.653	5.69
679.775	10.69
679.898	-13.31
680.02	30.69
680.142	3.69
680.264	28.69
680.386	3.69
680.509	16.69
680.631	21.69
680.753	1.69
680.875	-6.31
680.998	7.69
681.12	2.69
681.242	17.69
681.364	-12.31
681.486	10.69
681.609	-14.31
681.731	-10.31
681.853	-6.31
681.975	22.69
682.098	22.69
682.22	31.69
682.342	30.69
682.464	30.69
682.587	-2.31
682.709	2.69
682.831	-13.31
682.953	8.69
683.076	6.69
683.198	14.69
683.32	7.69
683.442	14.69
683.565	16.69
683.687	18.69
683.809	7.69
683.931	-3.31
684.054	18.69
684.176	16.69
684.298	17.69
684.42	-0.31
684.543	7.69
684.665	2.69
684.787	9.69
684.909	7.69
685.032	1.69
685.154	-12.31
685.276	19.69
685.398	-6.31
685.521	-3.31
685.643	-8.31
685.765	10.69
685.887	20.69
686.01	13.69
686.132	4.69
686.254	15.69
686.377	18.69
686.499	1.69
686.621	17.69
686.743	32.69
686.866	33.69
686.988	41.69
687.11	14.69
687.232	2.69
687.355	-3.31
687.477	7.69
687.599	23.69
687.722	-0.31
687.844	1.69
687.966	-1.31
688.088	19.69
688.211	25.69
688.333	25.69
688.455	34.69
688.578	24.69
688.7	12.69
688.822	18.69
688.944	-1.31
689.067	45.69
689.189	3.69
689.311	2.69
689.434	17.69
689.556	22.69
689.678	9.69
689.801	8.69
689.923	22.69
690.045	24.69
690.167	14.69
690.29	9.69
690.412	5.69
690.534	15.69
690.657	-11.31
690.779	3.69
690.901	31.69
691.024	3.69
691.146	18.69
691.268	4.69
691.391	17.69
691.513	28.69
691.635	-1.31
691.758	16.69
691.88	22.69
692.002	6.69
692.125	14.69
692.247	11.69
692.369	-6.31
692.492	2.69
692.614	4.69
692.736	10.69
692.859	13.69
692.981	4.69
693.103	13.69
693.226	22.69
693.348	33.69
693.47	14.69
693.593	6.69
693.715	-11.31
693.837	8.69
693.96	9.69
694.082	0.69
694.204	5.69
694.327	3.69
694.449	-5.31
694.571	16.69
694.694	29.69
694.816	8.69
694.938	1.69
695.061	17.69
695.183	5.69
695.305	6.69
695.428	8.69
695.55	-3.31
695.672	2.69
695.795	2.69
695.917	41.69
696.04	31.69
696.162	9.69
696.284	8.69
696.407	13.69
696.529	17.69
696.651	26.69
696.774	11.69
696.896	16.69
697.019	16.69
697.141	21.69
697.263	7.69
697.386	1.69
697.508	15.69
697.63	14.69
697.753	8.69
697.875	-3.31
697.998	8.69
698.12	14.69
698.242	-0.31
698.365	-12.31
698.487	1.69
698.61	4.69
698.732	18.69
698.854	21.69
698.977	-1.31
699.099	11.69
699.221	9.69
699.344	12.69
699.466	1.69
699.589	11.69
699.711	1.69
699.834	4.69
699.956	18.69
700.078	-4.31
700.201	-19.31
700.323	25.69
700.446	26.69
700.568	27.69
700.69	9.69
700.813	10.69
700.935	-0.31
701.058	5.69
701.18	9.69
701.302	7.69
701.425	5.69
701.547	22.69
701.67	-16.31
701.792	8.69
701.915	2.69
702.037	-9.31
702.159	9.69
702.282	13.69
702.404	2.69
702.527	8.69
702.649	36.69
702.772	14.69
702.894	-4.31
703.017	24.69
703.139	27.69
703.261	37.69
703.384	23.69
703.506	3.69
703.629	-7.31
703.751	16.69
703.874	18.69
703.996	-6.31
704.119	16.69
704.241	20.69
704.364	1.69
704.486	34.69
704.608	23.69
704.731	-3.31
704.853	18.69
704.976	-5.31
705.098	14.69
705.221	5.69
705.343	-0.31
705.466	14.69
705.588	27.69
705.711	15.69
705.833	24.69
705.956	10.69
706.078	28.69
706.201	2.69
706.323	15.69
706.446	-0.31
