Data from LowRes_H2_15_26_11_07_2024_HR4C61881__94__15-28-23-036.txt Node

Date: Thu Nov 07 15:28:23 EST 2024
User: crc00042
Spectrometer: HR4C6188
Trigger mode: 4
Integration Time (sec): 1.000000E-1
Scans to average: 1
Electric dark correction enabled: true
Nonlinearity correction enabled: false
Boxcar width: 0
XAxis mode: Wavelengths
Number of Pixels in Spectrum: 3648
>>>>>Begin Spectral Data<<<<<
245.66	-79.92
245.797	-79.92
245.934	-79.92
246.071	-79.92
246.208	12.08
246.344	10.08
246.481	-8.92
246.618	-21.92
246.755	10.08
246.892	-3.92
247.029	-11.92
247.165	-17.92
247.302	16.08
247.439	6.08
247.576	7.08
247.713	1.08
247.849	23.08
247.986	-8.92
248.123	-0.92
248.26	0.08
248.396	20.08
248.533	7.08
248.67	-4.92
248.806	13.08
248.943	-12.92
249.08	-2.92
249.216	2.08
249.353	-1.92
249.49	-7.92
249.626	0.08
249.763	-6.92
249.9	-12.92
250.036	-13.92
250.173	15.08
250.309	10.08
250.446	11.08
250.582	-5.92
250.719	1.08
250.856	-2.92
250.992	-16.92
251.129	0.08
251.265	-5.92
251.402	0.08
251.538	-3.92
251.675	2.08
251.811	16.08
251.948	8.08
252.084	-12.92
252.221	0.08
252.357	-15.92
252.493	24.08
252.63	-8.92
252.766	11.08
252.903	8.08
253.039	-13.92
253.175	-13.92
253.312	6.08
253.448	-7.92
253.585	-20.92
253.721	6.08
253.857	-4.92
253.994	-4.92
254.13	0.08
254.266	11.08
254.403	2.08
254.539	-0.92
254.675	14.08
254.811	-1.92
254.948	15.08
255.084	-3.92
255.22	-18.92
255.356	-8.92
255.493	6.08
255.629	-10.92
255.765	9.08
255.901	8.08
256.037	9.08
256.174	-5.92
256.31	-7.92
256.446	-11.92
256.582	-2.92
256.718	10.08
256.854	21.08
256.991	9.08
257.127	-5.92
257.263	-20.92
257.399	11.08
257.535	-11.92
257.671	3.08
257.807	-16.92
257.943	-4.92
258.079	-22.92
258.215	-6.92
258.351	9.08
258.487	3.08
258.623	6.08
258.759	-7.92
258.895	-29.92
259.031	-0.92
259.167	-17.92
259.303	8.08
259.439	2.08
259.575	11.08
259.711	-0.92
259.847	-7.92
259.983	-3.92
260.119	-17.92
260.255	-20.92
260.391	13.08
260.527	12.08
260.663	19.08
260.799	8.08
260.934	7.08
261.07	13.08
261.206	-13.92
261.342	-12.92
261.478	33.08
261.614	5.08
261.749	-4.92
261.885	-7.92
262.021	15.08
262.157	39.08
262.293	-22.92
262.428	3.08
262.564	14.08
262.7	-0.92
262.836	-4.92
262.971	15.08
263.107	5.08
263.243	4.08
263.378	-12.92
263.514	-21.92
263.65	7.08
263.785	-21.92
263.921	-3.92
264.057	4.08
264.192	9.08
264.328	13.08
264.464	0.08
264.599	11.08
264.735	14.08
264.871	-6.92
265.006	8.08
265.142	-5.92
265.277	13.08
265.413	19.08
265.548	15.08
265.684	14.08
265.819	-14.92
265.955	-20.92
266.091	-8.92
266.226	-7.92
266.362	9.08
266.497	6.08
266.633	5.08
266.768	-3.92
266.903	3.08
267.039	7.08
267.174	20.08
267.31	3.08
267.445	3.08
267.581	-2.92
267.716	10.08
267.851	0.08
267.987	12.08
268.122	19.08
268.258	-0.92
268.393	-11.92
268.528	24.08
268.664	-15.92
268.799	-12.92
268.934	18.08
269.07	5.08
269.205	8.08
269.34	20.08
269.476	-8.92
269.611	-5.92
269.746	20.08
269.881	2.08
270.017	9.08
270.152	13.08
270.287	7.08
270.422	9.08
270.558	-5.92
270.693	0.08
270.828	-24.92
270.963	-7.92
271.098	0.08
271.234	-9.92
271.369	25.08
271.504	10.08
271.639	-19.92
271.774	-17.92
271.909	4.08
272.045	-22.92
272.18	-1.92
272.315	-3.92
272.45	19.08
272.585	-7.92
272.72	-14.92
272.855	15.08
272.99	25.08
273.125	-3.92
273.26	-11.92
273.395	-0.92
273.53	9.08
273.665	-7.92
273.8	6.08
273.935	13.08
274.07	-9.92
274.205	7.08
274.34	-0.92
274.475	-2.92
274.61	13.08
274.745	-5.92
274.88	2.08
275.015	-18.92
275.15	-10.92
275.285	19.08
275.42	-2.92
275.555	23.08
275.69	4.08
275.825	-3.92
275.959	9.08
276.094	-5.92
276.229	-1.92
276.364	-15.92
276.499	1.08
276.634	15.08
276.768	11.08
276.903	7.08
277.038	19.08
277.173	4.08
277.308	-0.92
277.442	0.08
277.577	-12.92
277.712	2.08
277.847	9.08
277.981	2.08
278.116	-21.92
278.251	6.08
278.386	13.08
278.52	15.08
278.655	-1.92
278.79	8.08
278.924	4.08
279.059	2.08
279.194	-6.92
279.328	14.08
279.463	16.08
279.598	28.08
279.732	6.08
279.867	3.08
280.001	12.08
280.136	-4.92
280.271	17.08
280.405	2.08
280.54	2.08
280.674	-15.92
280.809	44.08
280.943	7.08
281.078	0.08
281.213	17.08
281.347	-0.92
281.482	-14.92
281.616	-6.92
281.751	-14.92
281.885	-23.92
282.02	-3.92
282.154	1.08
282.288	-12.92
282.423	-5.92
282.557	-23.92
282.692	11.08
282.826	11.08
282.961	32.08
283.095	17.08
283.229	-7.92
283.364	-16.92
283.498	-8.92
283.633	6.08
283.767	8.08
283.901	5.08
284.036	-7.92
284.17	-7.92
284.304	-0.92
284.439	17.08
284.573	1.08
284.707	35.08
284.842	9.08
284.976	-16.92
285.11	-2.92
285.244	1.08
285.379	50.08
285.513	-7.92
285.647	-4.92
285.781	11.08
285.916	12.08
286.05	-13.92
286.184	10.08
286.318	11.08
286.453	-3.92
286.587	-7.92
286.721	-4.92
286.855	6.08
286.989	17.08
287.123	-1.92
287.258	-23.92
287.392	3.08
287.526	5.08
287.66	15.08
287.794	-14.92
287.928	-20.92
288.062	-6.92
288.196	1.08
288.33	10.08
288.464	17.08
288.598	24.08
288.733	2.08
288.867	9.08
289.001	7.08
289.135	11.08
289.269	-10.92
289.403	-6.92
289.537	-17.92
289.671	6.08
289.805	-10.92
289.939	-17.92
290.073	-19.92
290.207	18.08
290.34	-5.92
290.474	12.08
290.608	16.08
290.742	-3.92
290.876	3.08
291.01	1.08
291.144	22.08
291.278	17.08
291.412	2.08
291.546	-11.92
291.679	-11.92
291.813	1.08
291.947	12.08
292.081	4.08
292.215	0.08
292.349	-7.92
292.482	-3.92
292.616	-29.92
292.75	12.08
292.884	15.08
293.018	7.08
293.151	-26.92
293.285	-0.92
293.419	-12.92
293.553	-7.92
293.686	-17.92
293.82	-3.92
293.954	15.08
294.088	25.08
294.221	-12.92
294.355	-20.92
294.489	3.08
294.622	3.08
294.756	4.08
294.89	3.08
295.023	-1.92
295.157	12.08
295.291	13.08
295.424	13.08
295.558	16.08
295.691	-5.92
295.825	4.08
295.959	8.08
296.092	4.08
296.226	-5.92
296.359	-7.92
296.493	12.08
296.627	-4.92
296.76	19.08
296.894	16.08
297.027	7.08
297.161	8.08
297.294	-16.92
297.428	-16.92
297.561	32.08
297.695	0.08
297.828	-3.92
297.962	12.08
298.095	-2.92
298.229	-1.92
298.362	-9.92
298.495	-2.92
298.629	-9.92
298.762	12.08
298.896	-1.92
299.029	-27.92
299.162	-6.92
299.296	7.08
299.429	-6.92
299.563	3.08
299.696	-7.92
299.829	-2.92
299.963	22.08
300.096	-4.92
300.229	2.08
300.363	12.08
300.496	10.08
300.629	-15.92
300.763	3.08
300.896	-13.92
301.029	-3.92
301.162	16.08
301.296	1.08
301.429	12.08
301.562	-22.92
301.695	0.08
301.829	-0.92
301.962	24.08
302.095	-2.92
302.228	-12.92
302.362	4.08
302.495	-6.92
302.628	2.08
302.761	8.08
302.894	3.08
303.027	5.08
303.161	-1.92
303.294	-5.92
303.427	9.08
303.56	-0.92
303.693	9.08
303.826	6.08
303.959	16.08
304.092	-3.92
304.225	-5.92
304.359	0.08
304.492	14.08
304.625	-1.92
304.758	26.08
304.891	-4.92
305.024	-6.92
305.157	-0.92
305.29	3.08
305.423	10.08
305.556	15.08
305.689	16.08
305.822	10.08
305.955	13.08
306.088	-8.92
306.221	-20.92
306.354	-21.92
306.487	-3.92
306.62	-24.92
306.752	-13.92
306.885	6.08
307.018	-2.92
307.151	-0.92
307.284	8.08
307.417	-20.92
307.55	8.08
307.683	-14.92
307.816	-19.92
307.948	9.08
308.081	9.08
308.214	10.08
308.347	14.08
308.48	-9.92
308.613	-3.92
308.745	19.08
308.878	-2.92
309.011	-0.92
309.144	27.08
309.277	5.08
309.409	6.08
309.542	11.08
309.675	3.08
309.808	1.08
309.94	24.08
310.073	-13.92
310.206	-8.92
310.339	13.08
310.471	-3.92
310.604	9.08
310.737	-4.92
310.869	-6.92
311.002	20.08
311.135	-3.92
311.267	-13.92
311.4	-15.92
311.533	14.08
311.665	-12.92
311.798	-16.92
311.93	-4.92
312.063	12.08
312.196	-3.92
312.328	-10.92
312.461	10.08
312.593	1.08
312.726	2.08
312.859	3.08
312.991	20.08
313.124	-17.92
313.256	18.08
313.389	10.08
313.521	8.08
313.654	-0.92
313.786	-25.92
313.919	-10.92
314.051	3.08
314.184	-16.92
314.316	-12.92
314.449	-20.92
314.581	8.08
314.714	3.08
314.846	17.08
314.978	-19.92
315.111	-21.92
315.243	2.08
315.376	-4.92
315.508	12.08
315.641	-9.92
315.773	26.08
315.905	8.08
316.038	-6.92
316.17	-15.92
316.302	-8.92
316.435	-15.92
316.567	-4.92
316.699	22.08
316.832	-14.92
316.964	-4.92
317.096	10.08
317.229	-3.92
317.361	-17.92
317.493	-1.92
317.625	-23.92
317.758	-11.92
317.89	1.08
318.022	-0.92
318.155	-19.92
318.287	-3.92
318.419	5.08
318.551	-2.92
318.683	-3.92
318.816	-14.92
318.948	-9.92
319.08	-12.92
319.212	33.08
319.344	16.08
319.477	-5.92
319.609	13.08
319.741	3.08
319.873	21.08
320.005	-9.92
320.137	1.08
320.269	1.08
320.401	2.08
320.534	-12.92
320.666	-15.92
320.798	-5.92
320.93	-12.92
321.062	1.08
321.194	-9.92
321.326	-2.92
321.458	-5.92
321.59	-3.92
321.722	-7.92
321.854	-9.92
321.986	-9.92
322.118	-5.92
322.25	3.08
322.382	-4.92
322.514	-3.92
322.646	-19.92
322.778	8.08
322.91	-11.92
323.042	-18.92
323.174	-3.92
323.306	-4.92
323.438	-16.92
323.57	-11.92
323.702	-9.92
323.834	2.08
323.966	-8.92
324.097	0.08
324.229	10.08
324.361	-8.92
324.493	-1.92
324.625	8.08
324.757	12.08
324.889	4.08
325.021	20.08
325.152	20.08
325.284	6.08
325.416	-2.92
325.548	0.08
325.68	-18.92
325.811	9.08
325.943	13.08
326.075	-8.92
326.207	0.08
326.339	5.08
326.47	13.08
326.602	-1.92
326.734	21.08
326.866	13.08
326.997	-15.92
327.129	-23.92
327.261	-27.92
327.392	-1.92
327.524	-4.92
327.656	-3.92
327.787	13.08
327.919	-3.92
328.051	-7.92
328.182	8.08
328.314	23.08
328.446	5.08
328.577	10.08
328.709	-0.92
328.841	-8.92
328.972	-1.92
329.104	-5.92
329.235	0.08
329.367	6.08
329.499	4.08
329.63	3.08
329.762	26.08
329.893	10.08
330.025	16.08
330.156	-4.92
330.288	20.08
330.419	6.08
330.551	11.08
330.683	-5.92
330.814	-10.92
330.946	9.08
331.077	-11.92
331.208	5.08
331.34	-0.92
331.471	-17.92
331.603	-10.92
331.734	-27.92
331.866	-12.92
331.997	-0.92
332.129	-8.92
332.26	-4.92
332.392	16.08
332.523	7.08
332.654	-4.92
332.786	-4.92
332.917	-9.92
333.048	9.08
333.18	16.08
333.311	-10.92
333.443	-10.92
333.574	-9.92
333.705	19.08
333.837	9.08
333.968	8.08
334.099	22.08
334.231	-5.92
334.362	-3.92
334.493	1.08
334.624	11.08
334.756	6.08
334.887	8.08
335.018	0.08
335.15	2.08
335.281	-2.92
335.412	20.08
335.543	23.08
335.675	-8.92
335.806	6.08
335.937	2.08
336.068	0.08
336.199	14.08
336.331	-10.92
336.462	-9.92
336.593	21.08
336.724	-7.92
336.855	2.08
336.986	1.08
337.118	-7.92
337.249	6.08
337.38	4.08
337.511	-4.92
337.642	15.08
337.773	-6.92
337.904	1.08
338.035	-0.92
338.166	12.08
338.298	12.08
338.429	-6.92
338.56	-2.92
338.691	-5.92
338.822	-5.92
338.953	11.08
339.084	8.08
339.215	4.08
339.346	-4.92
339.477	4.08
339.608	2.08
339.739	-11.92
339.87	16.08
340.001	-13.92
340.132	4.08
340.263	17.08
340.394	7.08
340.525	20.08
340.656	-9.92
340.787	-21.92
340.918	20.08
341.049	12.08
341.179	4.08
341.31	0.08
341.441	15.08
341.572	-0.92
341.703	11.08
341.834	-3.92
341.965	16.08
342.096	13.08
342.227	7.08
342.357	-7.92
342.488	7.08
342.619	9.08
342.75	-15.92
342.881	-16.92
343.012	9.08
343.142	10.08
343.273	-21.92
343.404	-1.92
343.535	36.08
343.666	27.08
343.796	12.08
343.927	28.08
344.058	30.08
344.189	8.08
344.319	15.08
344.45	9.08
344.581	4.08
344.712	-16.92
344.842	-20.92
344.973	-4.92
345.104	14.08
345.234	7.08
345.365	-25.92
345.496	1.08
345.626	24.08
345.757	18.08
345.888	-10.92
346.018	4.08
346.149	4.08
346.28	6.08
346.41	-5.92
346.541	23.08
346.672	8.08
346.802	24.08
346.933	8.08
347.063	-0.92
347.194	9.08
347.325	-5.92
347.455	12.08
347.586	-14.92
347.716	-13.92
347.847	-0.92
347.977	8.08
348.108	3.08
348.238	7.08
348.369	-12.92
348.499	16.08
348.63	1.08
348.76	11.08
348.891	9.08
349.021	0.08
349.152	3.08
349.282	-11.92
349.413	-2.92
349.543	11.08
349.674	9.08
349.804	22.08
349.935	10.08
350.065	8.08
350.196	-15.92
350.326	10.08
350.456	0.08
350.587	16.08
350.717	0.08
350.848	14.08
350.978	10.08
351.108	-29.92
351.239	9.08
351.369	0.08
351.499	4.08
351.63	21.08
351.76	9.08
351.89	15.08
352.021	9.08
352.151	-6.92
352.281	8.08
352.412	4.08
352.542	5.08
352.672	10.08
352.803	-6.92
352.933	-12.92
353.063	4.08
353.193	8.08
353.324	6.08
353.454	3.08
353.584	11.08
353.714	-7.92
353.845	3.08
353.975	-10.92
354.105	2.08
354.235	8.08
354.365	9.08
354.496	-5.92
354.626	-5.92
354.756	-5.92
354.886	1.08
355.016	11.08
355.146	3.08
355.277	25.08
355.407	-1.92
355.537	-8.92
355.667	8.08
355.797	-15.92
355.927	-10.92
356.057	3.08
356.187	-11.92
356.318	-8.92
356.448	-20.92
356.578	6.08
356.708	6.08
356.838	-0.92
356.968	-1.92
357.098	4.08
357.228	2.08
357.358	-14.92
357.488	-11.92
357.618	25.08
357.748	22.08
357.878	11.08
358.008	7.08
358.138	-5.92
358.268	-4.92
358.398	8.08
358.528	-1.92
358.658	14.08
358.788	10.08
358.918	6.08
359.048	27.08
359.178	21.08
359.308	2.08
359.438	14.08
359.568	-1.92
359.698	10.08
359.827	-9.92
359.957	-7.92
360.087	14.08
360.217	-5.92
360.347	22.08
360.477	3.08
360.607	-11.92
360.737	8.08
360.866	-5.92
360.996	-14.92
361.126	-0.92
361.256	20.08
361.386	22.08
361.516	21.08
361.645	-6.92
361.775	4.08
361.905	-7.92
362.035	12.08
362.165	5.08
362.294	10.08
362.424	21.08
362.554	3.08
362.684	-0.92
362.813	11.08
362.943	13.08
363.073	-0.92
363.203	-11.92
363.332	-0.92
363.462	-7.92
363.592	-0.92
363.721	-15.92
363.851	5.08
363.981	3.08
364.111	2.08
364.24	-2.92
364.37	11.08
364.5	19.08
364.629	13.08
364.759	-12.92
364.888	-16.92
365.018	-5.92
365.148	-3.92
365.277	2.08
365.407	-5.92
365.537	19.08
365.666	1.08
365.796	7.08
365.925	6.08
366.055	16.08
366.184	1.08
366.314	4.08
366.444	14.08
366.573	0.08
366.703	6.08
366.832	-5.92
366.962	8.08
367.091	35.08
367.221	7.08
367.35	1.08
367.48	46.08
367.609	13.08
367.739	16.08
367.868	-13.92
367.998	22.08
368.127	13.08
368.257	19.08
368.386	23.08
368.516	24.08
368.645	-1.92
368.775	2.08
368.904	-2.92
369.033	-3.92
369.163	12.08
369.292	24.08
369.422	12.08
369.551	25.08
369.68	20.08
369.81	14.08
369.939	-1.92
370.069	11.08
370.198	13.08
370.327	-9.92
370.457	10.08
370.586	21.08
370.715	-6.92
370.845	0.08
370.974	18.08
371.103	5.08
371.233	8.08
371.362	2.08
371.491	-13.92
371.621	6.08
371.75	-12.92
371.879	-17.92
372.008	3.08
372.138	12.08
372.267	3.08
372.396	-6.92
372.525	-10.92
372.655	9.08
372.784	7.08
372.913	0.08
373.042	-2.92
373.172	17.08
373.301	-4.92
373.43	-0.92
373.559	5.08
373.688	16.08
373.818	34.08
373.947	21.08
374.076	4.08
374.205	3.08
374.334	-4.92
374.463	-13.92
374.593	1.08
374.722	13.08
374.851	22.08
374.98	-10.92
375.109	10.08
375.238	30.08
375.367	35.08
375.496	0.08
375.625	-2.92
375.755	24.08
375.884	41.08
376.013	19.08
376.142	-10.92
376.271	5.08
376.4	24.08
376.529	8.08
376.658	17.08
376.787	22.08
376.916	1.08
377.045	-1.92
377.174	-5.92
377.303	-6.92
377.432	28.08
377.561	-1.92
377.69	-3.92
377.819	10.08
377.948	5.08
378.077	2.08
378.206	-16.92
378.335	-8.92
378.464	9.08
378.593	27.08
378.722	-13.92
378.851	-9.92
378.98	16.08
379.108	-18.92
379.237	2.08
379.366	-9.92
379.495	8.08
379.624	19.08
379.753	12.08
379.882	7.08
380.011	-9.92
380.14	11.08
380.268	9.08
380.397	7.08
380.526	32.08
380.655	-11.92
380.784	-10.92
380.913	-1.92
381.041	7.08
381.17	-19.92
381.299	8.08
381.428	18.08
381.557	12.08
381.685	9.08
381.814	26.08
381.943	-7.92
382.072	3.08
382.2	9.08
382.329	5.08
382.458	-10.92
382.587	-8.92
382.715	22.08
382.844	7.08
382.973	11.08
383.102	8.08
383.23	-5.92
383.359	-1.92
383.488	13.08
383.616	5.08
383.745	5.08
383.874	4.08
384.003	-27.92
384.131	-14.92
384.26	-0.92
384.389	4.08
384.517	-35.92
384.646	10.08
384.774	17.08
384.903	9.08
385.032	23.08
385.16	8.08
385.289	-11.92
385.418	-9.92
385.546	-5.92
385.675	24.08
385.803	7.08
385.932	6.08
386.06	-9.92
386.189	-0.92
386.318	15.08
386.446	8.08
386.575	9.08
386.703	12.08
386.832	4.08
386.96	-9.92
387.089	41.08
387.217	11.08
387.346	6.08
387.474	6.08
387.603	4.08
387.731	8.08
387.86	11.08
387.988	11.08
388.117	18.08
388.245	19.08
388.374	-4.92
388.502	10.08
388.631	-5.92
388.759	-1.92
388.888	8.08
389.016	-4.92
389.144	7.08
389.273	5.08
389.401	-13.92
389.53	4.08
389.658	1.08
389.786	-1.92
389.915	-8.92
390.043	3.08
390.172	12.08
390.3	28.08
390.428	19.08
390.557	11.08
390.685	5.08
390.813	9.08
390.942	5.08
391.07	2.08
391.198	-8.92
391.327	10.08
391.455	1.08
391.583	33.08
391.712	17.08
391.84	16.08
391.968	-0.92
392.096	-1.92
392.225	-6.92
392.353	16.08
392.481	12.08
392.609	0.08
392.738	6.08
392.866	19.08
392.994	-8.92
393.122	9.08
393.251	3.08
393.379	3.08
393.507	-6.92
393.635	-4.92
393.764	6.08
393.892	13.08
394.02	8.08
394.148	-3.92
394.276	-7.92
394.404	21.08
394.533	9.08
394.661	-9.92
394.789	20.08
394.917	15.08
395.045	-14.92
395.173	-9.92
395.302	-10.92
395.43	5.08
395.558	25.08
395.686	9.08
395.814	5.08
395.942	-3.92
396.07	-9.92
396.198	9.08
396.326	7.08
396.454	23.08
396.582	8.08
396.711	-2.92
396.839	10.08
396.967	11.08
397.095	15.08
397.223	19.08
397.351	19.08
397.479	12.08
397.607	14.08
397.735	-8.92
397.863	12.08
397.991	27.08
398.119	-14.92
398.247	14.08
398.375	-4.92
398.503	-0.92
398.631	11.08
398.759	4.08
398.887	-6.92
399.015	8.08
399.143	2.08
399.271	6.08
399.399	10.08
399.526	1.08
399.654	13.08
399.782	-5.92
399.91	20.08
400.038	32.08
400.166	4.08
400.294	5.08
400.422	-4.92
400.55	21.08
400.678	7.08
400.805	0.08
400.933	0.08
401.061	12.08
401.189	9.08
401.317	3.08
401.445	31.08
401.573	16.08
401.7	-11.92
401.828	-0.92
401.956	8.08
402.084	10.08
402.212	18.08
402.34	-1.92
402.467	9.08
402.595	3.08
402.723	-3.92
402.851	27.08
402.978	-0.92
403.106	3.08
403.234	2.08
403.362	15.08
403.489	22.08
403.617	14.08
403.745	8.08
403.873	-0.92
404	7.08
404.128	3.08
404.256	-0.92
404.384	18.08
404.511	27.08
404.639	-3.92
404.767	-16.92
404.894	6.08
405.022	5.08
405.15	20.08
405.277	-8.92
405.405	12.08
405.533	7.08
405.66	20.08
405.788	-8.92
405.916	-14.92
406.043	-26.92
406.171	-12.92
406.299	-9.92
406.426	10.08
406.554	22.08
406.681	9.08
406.809	0.08
406.937	12.08
407.064	-4.92
407.192	9.08
407.319	14.08
407.447	7.08
407.574	17.08
407.702	1.08
407.83	-4.92
407.957	-2.92
408.085	10.08
408.212	-21.92
408.34	5.08
408.467	-5.92
408.595	12.08
408.722	6.08
408.85	42.08
408.977	20.08
409.105	4.08
409.232	-5.92
409.36	24.08
409.487	9.08
409.615	6.08
409.742	30.08
409.87	34.08
409.997	42.08
410.125	33.08
410.252	43.08
410.379	59.08
410.507	35.08
410.634	10.08
410.762	9.08
410.889	11.08
411.017	-3.92
411.144	5.08
411.271	-0.92
411.399	1.08
411.526	-8.92
411.653	5.08
411.781	27.08
411.908	22.08
412.036	-7.92
412.163	11.08
412.29	17.08
412.418	8.08
412.545	13.08
412.672	-5.92
412.8	47.08
412.927	22.08
413.054	23.08
413.182	3.08
413.309	0.08
413.436	-5.92
413.564	-11.92
413.691	8.08
413.818	17.08
413.945	-13.92
414.073	2.08
414.2	9.08
414.327	12.08
414.454	13.08
414.582	22.08
414.709	3.08
414.836	-0.92
414.963	-10.92
415.091	-2.92
415.218	8.08
415.345	-4.92
415.472	-3.92
415.6	-19.92
415.727	9.08
415.854	7.08
415.981	-3.92
416.108	1.08
416.236	13.08
416.363	10.08
416.49	6.08
416.617	7.08
416.744	23.08
416.871	22.08
416.998	8.08
417.126	-0.92
417.253	-16.92
417.38	-0.92
417.507	16.08
417.634	8.08
417.761	29.08
417.888	-2.92
418.015	3.08
418.143	-12.92
418.27	20.08
418.397	-13.92
418.524	1.08
418.651	16.08
418.778	8.08
418.905	42.08
419.032	24.08
419.159	6.08
419.286	29.08
419.413	8.08
419.54	17.08
419.667	5.08
419.794	0.08
419.921	0.08
420.048	7.08
420.175	24.08
420.302	23.08
420.429	11.08
420.556	-1.92
420.683	-7.92
420.81	19.08
420.937	20.08
421.064	16.08
421.191	-0.92
421.318	25.08
421.445	33.08
421.572	2.08
421.699	11.08
421.826	27.08
421.953	11.08
422.08	8.08
422.207	-5.92
422.334	-12.92
422.461	23.08
422.588	4.08
422.714	8.08
422.841	23.08
422.968	22.08
423.095	5.08
423.222	-9.92
423.349	4.08
423.476	5.08
423.603	13.08
423.729	3.08
423.856	-16.92
423.983	13.08
424.11	-0.92
424.237	15.08
424.364	10.08
424.491	11.08
424.617	-0.92
424.744	1.08
424.871	18.08
424.998	-8.92
425.125	-2.92
425.251	-7.92
425.378	-12.92
425.505	-7.92
425.632	11.08
425.758	-4.92
425.885	11.08
426.012	-3.92
426.139	29.08
426.266	15.08
426.392	25.08
426.519	9.08
426.646	3.08
426.772	12.08
426.899	-13.92
427.026	6.08
427.153	12.08
427.279	27.08
427.406	13.08
427.533	-6.92
427.659	7.08
427.786	6.08
427.913	20.08
428.039	0.08
428.166	-17.92
428.293	-4.92
428.419	22.08
428.546	11.08
428.673	-0.92
428.799	-11.92
428.926	-2.92
429.053	32.08
429.179	18.08
429.306	21.08
429.433	31.08
429.559	20.08
429.686	-20.92
429.812	-7.92
429.939	-5.92
430.066	-4.92
430.192	-0.92
430.319	7.08
430.445	-6.92
430.572	5.08
430.699	-15.92
430.825	-17.92
430.952	0.08
431.078	4.08
431.205	14.08
431.331	-0.92
431.458	-6.92
431.584	10.08
431.711	2.08
431.837	7.08
431.964	11.08
432.09	2.08
432.217	-19.92
432.343	-6.92
432.47	28.08
432.596	0.08
432.723	-12.92
432.849	-0.92
432.976	20.08
433.102	2.08
433.229	2.08
433.355	28.08
433.482	58.08
433.608	151.08
433.735	138.08
433.861	117.08
433.987	182.08
434.114	228.08
434.24	204.08
434.367	82.08
434.493	18.08
434.62	33.08
434.746	25.08
434.872	22.08
434.999	20.08
435.125	17.08
435.252	2.08
435.378	12.08
435.504	5.08
435.631	18.08
435.757	18.08
435.883	22.08
436.01	9.08
436.136	9.08
436.262	1.08
436.389	19.08
436.515	19.08
436.641	26.08
436.768	13.08
436.894	26.08
437.02	15.08
437.147	34.08
437.273	22.08
437.399	18.08
437.526	5.08
437.652	-9.92
437.778	8.08
437.904	-2.92
438.031	14.08
438.157	20.08
438.283	16.08
438.409	-3.92
438.536	-13.92
438.662	20.08
438.788	19.08
438.914	19.08
439.041	25.08
439.167	23.08
439.293	10.08
439.419	-12.92
439.546	21.08
439.672	4.08
439.798	12.08
439.924	8.08
440.05	6.08
440.177	15.08
440.303	4.08
440.429	-16.92
440.555	21.08
440.681	1.08
440.807	12.08
440.934	11.08
441.06	5.08
441.186	0.08
441.312	11.08
441.438	5.08
441.564	4.08
441.69	21.08
441.816	12.08
441.943	7.08
442.069	8.08
442.195	13.08
442.321	33.08
442.447	-20.92
442.573	-7.92
442.699	-5.92
442.825	-7.92
442.951	4.08
443.077	22.08
443.203	29.08
443.33	10.08
443.456	2.08
443.582	20.08
443.708	-5.92
443.834	2.08
443.96	17.08
444.086	11.08
444.212	13.08
444.338	32.08
444.464	11.08
444.59	26.08
444.716	2.08
444.842	-0.92
444.968	-9.92
445.094	15.08
445.22	4.08
445.346	4.08
445.472	2.08
445.598	-2.92
445.724	-7.92
445.85	2.08
445.976	12.08
446.102	15.08
446.228	8.08
446.354	26.08
446.48	7.08
446.605	13.08
446.731	4.08
446.857	-2.92
446.983	11.08
447.109	13.08
447.235	12.08
447.361	-25.92
447.487	7.08
447.613	12.08
447.739	-13.92
447.865	2.08
447.99	15.08
448.116	12.08
448.242	2.08
448.368	12.08
448.494	10.08
448.62	18.08
448.746	5.08
448.872	0.08
448.997	-8.92
449.123	3.08
449.249	29.08
449.375	22.08
449.501	-1.92
449.627	10.08
449.752	13.08
449.878	0.08
450.004	-17.92
450.13	14.08
450.256	14.08
450.381	0.08
450.507	2.08
450.633	16.08
450.759	8.08
450.884	-4.92
451.01	12.08
451.136	6.08
451.262	1.08
451.388	11.08
451.513	-2.92
451.639	20.08
451.765	11.08
451.89	18.08
452.016	7.08
452.142	6.08
452.268	14.08
452.393	9.08
452.519	-1.92
452.645	5.08
452.771	20.08
452.896	-0.92
453.022	-1.92
453.148	44.08
453.273	10.08
453.399	3.08
453.525	-8.92
453.65	3.08
453.776	12.08
453.902	22.08
454.027	11.08
454.153	-3.92
454.279	0.08
454.404	-3.92
454.53	13.08
454.656	26.08
454.781	11.08
454.907	2.08
455.032	-5.92
455.158	37.08
455.284	22.08
455.409	6.08
455.535	10.08
455.66	31.08
455.786	8.08
455.912	17.08
456.037	-7.92
456.163	5.08
456.288	26.08
456.414	1.08
456.539	0.08
456.665	17.08
456.791	9.08
456.916	3.08
457.042	10.08
457.167	-5.92
457.293	9.08
457.418	16.08
457.544	3.08
457.669	9.08
457.795	20.08
457.92	6.08
458.046	-1.92
458.171	13.08
458.297	3.08
458.422	2.08
458.548	-0.92
458.673	12.08
458.799	6.08
458.924	2.08
459.05	18.08
459.175	6.08
459.301	3.08
459.426	25.08
459.552	3.08
459.677	13.08
459.803	17.08
459.928	22.08
460.053	17.08
460.179	28.08
460.304	19.08
460.43	-11.92
460.555	4.08
460.681	-1.92
460.806	-7.92
460.931	20.08
461.057	26.08
461.182	-7.92
461.308	9.08
461.433	12.08
461.558	3.08
461.684	12.08
461.809	24.08
461.934	10.08
462.06	15.08
462.185	14.08
462.311	7.08
462.436	12.08
462.561	10.08
462.687	11.08
462.812	26.08
462.937	10.08
463.063	-10.92
463.188	-2.92
463.313	19.08
463.439	5.08
463.564	0.08
463.689	2.08
463.814	25.08
463.94	15.08
464.065	26.08
464.19	17.08
464.316	5.08
464.441	1.08
464.566	-3.92
464.692	7.08
464.817	5.08
464.942	10.08
465.067	9.08
465.193	-7.92
465.318	8.08
465.443	5.08
465.568	13.08
465.694	11.08
465.819	12.08
465.944	9.08
466.069	2.08
466.194	17.08
466.32	24.08
466.445	32.08
466.57	16.08
466.695	6.08
466.82	7.08
466.946	10.08
467.071	1.08
467.196	-5.92
467.321	9.08
467.446	7.08
467.572	7.08
467.697	-4.92
467.822	18.08
467.947	13.08
468.072	10.08
468.197	18.08
468.323	-6.92
468.448	12.08
468.573	6.08
468.698	3.08
468.823	-2.92
468.948	17.08
469.073	8.08
469.198	31.08
469.324	18.08
469.449	1.08
469.574	17.08
469.699	19.08
469.824	27.08
469.949	22.08
470.074	13.08
470.199	27.08
470.324	24.08
470.449	28.08
470.574	29.08
470.7	7.08
470.825	25.08
470.95	33.08
471.075	10.08
471.2	13.08
471.325	18.08
471.45	-3.92
471.575	-13.92
471.7	15.08
471.825	6.08
471.95	27.08
472.075	23.08
472.2	2.08
472.325	11.08
472.45	8.08
472.575	8.08
472.7	15.08
472.825	23.08
472.95	18.08
473.075	7.08
473.2	5.08
473.325	12.08
473.45	5.08
473.575	-10.92
473.7	22.08
473.825	4.08
473.95	20.08
474.075	24.08
474.2	16.08
474.325	-7.92
474.45	26.08
474.574	18.08
474.699	36.08
474.824	30.08
474.949	19.08
475.074	2.08
475.199	26.08
475.324	39.08
475.449	17.08
475.574	26.08
475.699	30.08
475.824	5.08
475.949	-3.92
476.073	2.08
476.198	6.08
476.323	4.08
476.448	-0.92
476.573	-8.92
476.698	38.08
476.823	18.08
476.947	14.08
477.072	3.08
477.197	25.08
477.322	5.08
477.447	11.08
477.572	6.08
477.697	13.08
477.821	1.08
477.946	33.08
478.071	17.08
478.196	24.08
478.321	11.08
478.445	-3.92
478.57	-8.92
478.695	19.08
478.82	1.08
478.945	11.08
479.069	7.08
479.194	3.08
479.319	12.08
479.444	35.08
479.569	6.08
479.693	20.08
479.818	4.08
479.943	41.08
480.068	19.08
480.192	22.08
480.317	20.08
480.442	5.08
480.567	12.08
480.691	16.08
480.816	-1.92
480.941	-3.92
481.066	25.08
481.19	24.08
481.315	10.08
481.44	9.08
481.564	-0.92
481.689	38.08
481.814	14.08
481.938	35.08
482.063	11.08
482.188	19.08
482.313	29.08
482.437	12.08
482.562	27.08
482.687	11.08
482.811	22.08
482.936	27.08
483.061	39.08
483.185	22.08
483.31	3.08
483.435	21.08
483.559	10.08
483.684	-1.92
483.808	24.08
483.933	15.08
484.058	4.08
484.182	14.08
484.307	2.08
484.432	15.08
484.556	2.08
484.681	19.08
484.805	14.08
484.93	33.08
485.055	29.08
485.179	89.08
485.304	125.08
485.428	359.08
485.553	1295.08
485.678	1782.08
485.802	1678.08
485.927	1864.08
486.051	2771.08
486.176	1670.08
486.3	443.08
486.425	152.08
486.549	89.08
486.674	62.08
486.799	27.08
486.923	35.08
487.048	7.08
487.172	16.08
487.297	30.08
487.421	33.08
487.546	35.08
487.67	29.08
487.795	18.08
487.919	19.08
488.044	29.08
488.168	35.08
488.293	24.08
488.417	27.08
488.542	22.08
488.666	29.08
488.791	17.08
488.915	16.08
489.04	10.08
489.164	33.08
489.289	29.08
489.413	4.08
489.538	27.08
489.662	22.08
489.786	19.08
489.911	28.08
490.035	18.08
490.16	4.08
490.284	-1.92
490.409	-4.92
490.533	2.08
490.658	28.08
490.782	20.08
490.906	24.08
491.031	21.08
491.155	11.08
491.28	18.08
491.404	17.08
491.528	24.08
491.653	13.08
491.777	16.08
491.902	8.08
492.026	35.08
492.15	40.08
492.275	65.08
492.399	27.08
492.524	22.08
492.648	22.08
492.772	20.08
492.897	24.08
493.021	12.08
493.145	12.08
493.27	16.08
493.394	10.08
493.518	7.08
493.643	34.08
493.767	17.08
493.891	2.08
494.016	3.08
494.14	2.08
494.264	8.08
494.389	23.08
494.513	16.08
494.637	11.08
494.762	22.08
494.886	11.08
495.01	18.08
495.134	24.08
495.259	22.08
495.383	6.08
495.507	10.08
495.632	39.08
495.756	30.08
495.88	18.08
496.004	18.08
496.129	30.08
496.253	16.08
496.377	17.08
496.501	35.08
496.626	14.08
496.75	14.08
496.874	33.08
496.998	18.08
497.123	19.08
497.247	7.08
497.371	4.08
497.495	2.08
497.62	10.08
497.744	1.08
497.868	19.08
497.992	11.08
498.116	0.08
498.241	23.08
498.365	17.08
498.489	6.08
498.613	39.08
498.737	1.08
498.862	13.08
498.986	4.08
499.11	15.08
499.234	-3.92
499.358	-3.92
499.482	2.08
499.607	17.08
499.731	18.08
499.855	35.08
499.979	15.08
500.103	23.08
500.227	16.08
500.351	-0.92
500.476	22.08
500.6	22.08
500.724	14.08
500.848	14.08
500.972	24.08
501.096	17.08
501.22	13.08
501.344	14.08
501.469	6.08
501.593	7.08
501.717	15.08
501.841	8.08
501.965	15.08
502.089	13.08
502.213	11.08
502.337	6.08
502.461	5.08
502.585	11.08
502.709	20.08
502.834	-0.92
502.958	19.08
503.082	6.08
503.206	19.08
503.33	43.08
503.454	31.08
503.578	21.08
503.702	30.08
503.826	8.08
503.95	25.08
504.074	10.08
504.198	18.08
504.322	9.08
504.446	15.08
504.57	24.08
504.694	33.08
504.818	29.08
504.942	38.08
505.066	19.08
505.19	15.08
505.314	13.08
505.438	11.08
505.562	14.08
505.686	33.08
505.81	11.08
505.934	22.08
506.058	25.08
506.182	15.08
506.306	19.08
506.43	-1.92
506.554	9.08
506.678	4.08
506.802	17.08
506.926	29.08
507.05	32.08
507.174	19.08
507.298	24.08
507.422	10.08
507.546	18.08
507.67	16.08
507.794	-13.92
507.918	10.08
508.042	18.08
508.165	-7.92
508.289	5.08
508.413	16.08
508.537	11.08
508.661	-0.92
508.785	13.08
508.909	-3.92
509.033	1.08
509.157	-3.92
509.281	6.08
509.405	7.08
509.528	13.08
509.652	32.08
509.776	10.08
509.9	20.08
510.024	9.08
510.148	31.08
510.272	12.08
510.396	12.08
510.519	-5.92
510.643	22.08
510.767	15.08
510.891	20.08
511.015	24.08
511.139	17.08
511.263	32.08
511.386	13.08
511.51	7.08
511.634	-3.92
511.758	29.08
511.882	3.08
512.006	5.08
512.129	17.08
512.253	41.08
512.377	5.08
512.501	16.08
512.625	9.08
512.748	11.08
512.872	4.08
512.996	19.08
513.12	9.08
513.244	5.08
513.367	19.08
513.491	24.08
513.615	20.08
513.739	18.08
513.862	15.08
513.986	18.08
514.11	25.08
514.234	12.08
514.358	11.08
514.481	29.08
514.605	9.08
514.729	18.08
514.853	32.08
514.976	-4.92
515.1	11.08
515.224	43.08
515.348	14.08
515.471	-10.92
515.595	15.08
515.719	-1.92
515.842	40.08
515.966	25.08
516.09	37.08
516.214	18.08
516.337	42.08
516.461	23.08
516.585	28.08
516.708	28.08
516.832	22.08
516.956	11.08
517.08	16.08
517.203	3.08
517.327	27.08
517.451	39.08
517.574	48.08
517.698	15.08
517.822	30.08
517.945	13.08
518.069	24.08
518.193	41.08
518.316	35.08
518.44	21.08
518.564	8.08
518.687	14.08
518.811	31.08
518.935	66.08
519.058	33.08
519.182	29.08
519.306	38.08
519.429	31.08
519.553	75.08
519.676	38.08
519.8	14.08
519.924	20.08
520.047	7.08
520.171	14.08
520.294	8.08
520.418	38.08
520.542	6.08
520.665	24.08
520.789	-0.92
520.913	2.08
521.036	-10.92
521.16	6.08
521.283	4.08
521.407	5.08
521.53	5.08
521.654	-2.92
521.778	19.08
521.901	9.08
522.025	4.08
522.148	17.08
522.272	24.08
522.395	16.08
522.519	15.08
522.643	2.08
522.766	8.08
522.89	14.08
523.013	17.08
523.137	-15.92
523.26	3.08
523.384	42.08
523.507	23.08
523.631	3.08
523.754	2.08
523.878	15.08
524.002	12.08
524.125	14.08
524.249	-8.92
524.372	25.08
524.496	-0.92
524.619	19.08
524.743	19.08
524.866	11.08
524.99	5.08
525.113	-7.92
525.237	27.08
525.36	14.08
525.484	-0.92
525.607	-2.92
525.731	-4.92
525.854	-7.92
525.978	23.08
526.101	4.08
526.224	3.08
526.348	10.08
526.471	-5.92
526.595	14.08
526.718	3.08
526.842	-16.92
526.965	3.08
527.089	12.08
527.212	5.08
527.336	-0.92
527.459	2.08
527.582	-4.92
527.706	10.08
527.829	17.08
527.953	7.08
528.076	3.08
528.2	15.08
528.323	8.08
528.446	9.08
528.57	16.08
528.693	16.08
528.817	12.08
528.94	20.08
529.064	16.08
529.187	-0.92
529.31	0.08
529.434	-11.92
529.557	-0.92
529.68	-10.92
529.804	13.08
529.927	3.08
530.051	-3.92
530.174	-5.92
530.297	13.08
530.421	28.08
530.544	17.08
530.668	10.08
530.791	0.08
530.914	26.08
531.038	4.08
531.161	-5.92
531.284	-10.92
531.408	11.08
531.531	-0.92
531.654	16.08
531.778	5.08
531.901	7.08
532.024	17.08
532.148	3.08
532.271	13.08
532.394	13.08
532.518	36.08
532.641	33.08
532.764	22.08
532.888	25.08
533.011	0.08
533.134	0.08
533.258	30.08
533.381	4.08
533.504	-4.92
533.628	0.08
533.751	18.08
533.874	23.08
533.997	17.08
534.121	0.08
534.244	8.08
534.367	-2.92
534.491	18.08
534.614	11.08
534.737	8.08
534.86	28.08
534.984	18.08
535.107	19.08
535.23	0.08
535.354	6.08
535.477	0.08
535.6	12.08
535.723	22.08
535.847	10.08
535.97	-5.92
536.093	2.08
536.216	14.08
536.34	18.08
536.463	15.08
536.586	19.08
536.709	14.08
536.833	17.08
536.956	16.08
537.079	0.08
537.202	20.08
537.325	-7.92
537.449	-8.92
537.572	6.08
537.695	-3.92
537.818	-8.92
537.941	6.08
538.065	-5.92
538.188	-7.92
538.311	33.08
538.434	24.08
538.558	11.08
538.681	21.08
538.804	12.08
538.927	-0.92
539.05	7.08
539.173	1.08
539.297	-1.92
539.42	19.08
539.543	0.08
539.666	30.08
539.789	8.08
539.913	-0.92
540.036	11.08
540.159	11.08
540.282	-6.92
540.405	10.08
540.528	17.08
540.651	11.08
540.775	-3.92
540.898	7.08
541.021	-5.92
541.144	6.08
541.267	6.08
541.39	-4.92
541.513	29.08
541.637	7.08
541.76	11.08
541.883	10.08
542.006	4.08
542.129	19.08
542.252	13.08
542.375	6.08
542.498	0.08
542.622	26.08
542.745	-0.92
542.868	10.08
542.991	19.08
543.114	8.08
543.237	8.08
543.36	29.08
543.483	8.08
543.606	30.08
543.73	39.08
543.853	19.08
543.976	1.08
544.099	15.08
544.222	13.08
544.345	1.08
544.468	4.08
544.591	2.08
544.714	-2.92
544.837	16.08
544.96	18.08
545.083	11.08
545.206	-1.92
545.329	24.08
545.453	-0.92
545.576	3.08
545.699	3.08
545.822	1.08
545.945	30.08
546.068	13.08
546.191	4.08
546.314	17.08
546.437	24.08
546.56	16.08
546.683	10.08
546.806	29.08
546.929	10.08
547.052	-1.92
547.175	-4.92
547.298	18.08
547.421	0.08
547.544	0.08
547.667	0.08
547.79	9.08
547.913	3.08
548.036	5.08
548.159	22.08
548.282	-8.92
548.405	-8.92
548.528	-0.92
548.651	5.08
548.774	11.08
548.897	14.08
549.02	20.08
549.143	22.08
549.266	17.08
549.389	16.08
549.512	0.08
549.635	8.08
549.758	13.08
549.881	1.08
550.004	5.08
550.127	12.08
550.25	-4.92
550.373	9.08
550.496	13.08
550.619	4.08
550.742	-9.92
550.865	-8.92
550.988	16.08
551.111	18.08
551.234	19.08
551.356	0.08
551.479	-1.92
551.602	-2.92
551.725	11.08
551.848	7.08
551.971	33.08
552.094	15.08
552.217	11.08
552.34	0.08
552.463	3.08
552.586	5.08
552.709	2.08
552.832	6.08
552.955	13.08
553.077	0.08
553.2	12.08
553.323	-12.92
553.446	17.08
553.569	-0.92
553.692	16.08
553.815	-19.92
553.938	8.08
554.061	24.08
554.184	14.08
554.306	14.08
554.429	12.08
554.552	-0.92
554.675	-3.92
554.798	-3.92
554.921	21.08
555.044	7.08
555.167	-6.92
555.29	-1.92
555.412	5.08
555.535	7.08
555.658	-4.92
555.781	5.08
555.904	6.08
556.027	17.08
556.15	20.08
556.272	4.08
556.395	9.08
556.518	-5.92
556.641	18.08
556.764	44.08
556.887	35.08
557.01	-3.92
557.132	-20.92
557.255	0.08
557.378	16.08
557.501	12.08
557.624	3.08
557.747	16.08
557.869	20.08
557.992	27.08
558.115	14.08
558.238	3.08
558.361	1.08
558.483	43.08
558.606	22.08
558.729	-3.92
558.852	23.08
558.975	20.08
559.098	18.08
559.22	9.08
559.343	-3.92
559.466	-3.92
559.589	9.08
559.712	3.08
559.834	11.08
559.957	6.08
560.08	-9.92
560.203	15.08
560.325	37.08
560.448	33.08
560.571	25.08
560.694	4.08
560.817	20.08
560.939	10.08
561.062	-5.92
561.185	13.08
561.308	11.08
561.43	-4.92
561.553	17.08
561.676	9.08
561.799	17.08
561.921	-11.92
562.044	2.08
562.167	-9.92
562.29	46.08
562.413	21.08
562.535	8.08
562.658	-16.92
562.781	-3.92
562.903	12.08
563.026	4.08
563.149	18.08
563.272	18.08
563.394	7.08
563.517	10.08
563.64	-11.92
563.763	-12.92
563.885	20.08
564.008	36.08
564.131	16.08
564.254	0.08
564.376	6.08
564.499	-19.92
564.622	-8.92
564.744	4.08
564.867	3.08
564.99	8.08
565.113	7.08
565.235	8.08
565.358	-4.92
565.481	-1.92
565.603	7.08
565.726	9.08
565.849	31.08
565.971	10.08
566.094	-2.92
566.217	8.08
566.34	14.08
566.462	11.08
566.585	12.08
566.708	21.08
566.83	12.08
566.953	27.08
567.076	10.08
567.198	2.08
567.321	-0.92
567.444	17.08
567.566	-7.92
567.689	-3.92
567.812	-9.92
567.934	14.08
568.057	5.08
568.18	24.08
568.302	14.08
568.425	-1.92
568.548	10.08
568.67	11.08
568.793	17.08
568.916	18.08
569.038	15.08
569.161	20.08
569.283	22.08
569.406	9.08
569.529	4.08
569.651	-7.92
569.774	-20.92
569.897	-17.92
570.019	15.08
570.142	24.08
570.265	16.08
570.387	14.08
570.51	22.08
570.632	20.08
570.755	-1.92
570.878	8.08
571	2.08
571.123	2.08
571.246	18.08
571.368	8.08
571.491	12.08
571.613	-0.92
571.736	2.08
571.859	-8.92
571.981	-16.92
572.104	-10.92
572.226	-5.92
572.349	-0.92
572.472	2.08
572.594	26.08
572.717	2.08
572.839	1.08
572.962	4.08
573.085	19.08
573.207	20.08
573.33	13.08
573.452	22.08
573.575	27.08
573.697	4.08
573.82	20.08
573.943	0.08
574.065	1.08
574.188	-4.92
574.31	35.08
574.433	19.08
574.555	25.08
574.678	4.08
574.801	11.08
574.923	10.08
575.046	22.08
575.168	30.08
575.291	24.08
575.413	3.08
575.536	7.08
575.659	6.08
575.781	-2.92
575.904	-5.92
576.026	2.08
576.149	3.08
576.271	14.08
576.394	16.08
576.516	6.08
576.639	10.08
576.761	-3.92
576.884	-9.92
577.007	7.08
577.129	30.08
577.252	10.08
577.374	44.08
577.497	4.08
577.619	-5.92
577.742	-1.92
577.864	26.08
577.987	6.08
578.109	16.08
578.232	28.08
578.354	23.08
578.477	15.08
578.599	2.08
578.722	-0.92
578.844	1.08
578.967	11.08
579.089	10.08
579.212	-6.92
579.334	34.08
579.457	6.08
579.579	7.08
579.702	6.08
579.824	13.08
579.947	7.08
580.069	-5.92
580.192	5.08
580.314	11.08
580.437	-0.92
580.559	28.08
580.682	19.08
580.804	22.08
580.927	15.08
581.049	46.08
581.172	31.08
581.294	16.08
581.417	18.08
581.539	4.08
581.662	13.08
581.784	22.08
581.907	35.08
582.029	28.08
582.152	-4.92
582.274	3.08
582.396	22.08
582.519	11.08
582.641	-13.92
582.764	1.08
582.886	16.08
583.009	-6.92
583.131	-12.92
583.254	16.08
583.376	35.08
583.499	21.08
583.621	8.08
583.743	22.08
583.866	21.08
583.988	12.08
584.111	16.08
584.233	10.08
584.356	24.08
584.478	7.08
584.601	-12.92
584.723	11.08
584.845	44.08
584.968	-5.92
585.09	0.08
585.213	17.08
585.335	-5.92
585.458	6.08
585.58	-1.92
585.702	21.08
585.825	27.08
585.947	16.08
586.07	-22.92
586.192	-3.92
586.315	7.08
586.437	11.08
586.559	10.08
586.682	-3.92
586.804	21.08
586.927	-14.92
587.049	3.08
587.171	7.08
587.294	31.08
587.416	29.08
587.539	7.08
587.661	7.08
587.783	10.08
587.906	5.08
588.028	15.08
588.151	21.08
588.273	20.08
588.395	9.08
588.518	2.08
588.64	10.08
588.763	30.08
588.885	26.08
589.007	15.08
589.13	-4.92
589.252	-7.92
589.375	26.08
589.497	22.08
589.619	13.08
589.742	10.08
589.864	11.08
589.986	-0.92
590.109	-21.92
590.231	7.08
590.354	27.08
590.476	3.08
590.598	6.08
590.721	7.08
590.843	10.08
590.965	-4.92
591.088	24.08
591.21	-0.92
591.332	26.08
591.455	11.08
591.577	-0.92
591.7	-1.92
591.822	2.08
591.944	6.08
592.067	2.08
592.189	13.08
592.311	26.08
592.434	16.08
592.556	30.08
592.678	19.08
592.801	18.08
592.923	19.08
593.045	21.08
593.168	14.08
593.29	2.08
593.412	22.08
593.535	24.08
593.657	10.08
593.779	21.08
593.902	32.08
594.024	13.08
594.146	21.08
594.269	17.08
594.391	-12.92
594.513	19.08
594.636	-0.92
594.758	-6.92
594.88	2.08
595.003	29.08
595.125	19.08
595.247	8.08
595.37	3.08
595.492	9.08
595.614	36.08
595.737	17.08
595.859	6.08
595.981	13.08
596.104	19.08
596.226	-3.92
596.348	5.08
596.471	13.08
596.593	14.08
596.715	-1.92
596.838	-3.92
596.96	-13.92
597.082	12.08
597.204	4.08
597.327	17.08
597.449	-1.92
597.571	18.08
597.694	-1.92
597.816	-3.92
597.938	4.08
598.061	-4.92
598.183	10.08
598.305	22.08
598.427	11.08
598.55	1.08
598.672	29.08
598.794	27.08
598.917	8.08
599.039	15.08
599.161	9.08
599.283	3.08
599.406	16.08
599.528	20.08
599.65	19.08
599.773	16.08
599.895	36.08
600.017	32.08
600.139	-3.92
600.262	-1.92
600.384	11.08
600.506	19.08
600.628	18.08
600.751	23.08
600.873	-3.92
600.995	8.08
601.118	7.08
601.24	2.08
601.362	18.08
601.484	3.08
601.607	1.08
601.729	12.08
601.851	15.08
601.973	9.08
602.096	15.08
602.218	26.08
602.34	22.08
602.462	11.08
602.585	10.08
602.707	-16.92
602.829	23.08
602.951	7.08
603.074	0.08
603.196	31.08
603.318	14.08
603.44	24.08
603.563	14.08
603.685	-6.92
603.807	26.08
603.929	7.08
604.052	16.08
604.174	18.08
604.296	25.08
604.418	34.08
604.541	30.08
604.663	-8.92
604.785	0.08
604.907	5.08
605.03	5.08
605.152	24.08
605.274	-0.92
605.396	6.08
605.519	8.08
605.641	8.08
605.763	10.08
605.885	27.08
606.008	-2.92
606.13	12.08
606.252	18.08
606.374	-10.92
606.496	-4.92
606.619	4.08
606.741	6.08
606.863	49.08
606.985	25.08
607.108	20.08
607.23	0.08
607.352	8.08
607.474	6.08
607.596	3.08
607.719	11.08
607.841	22.08
607.963	11.08
608.085	6.08
608.207	43.08
608.33	16.08
608.452	19.08
608.574	-6.92
608.696	26.08
608.819	8.08
608.941	18.08
609.063	10.08
609.185	-5.92
609.307	19.08
609.43	23.08
609.552	8.08
609.674	-3.92
609.796	37.08
609.918	12.08
610.041	0.08
610.163	20.08
610.285	29.08
610.407	16.08
610.529	-4.92
610.652	25.08
610.774	1.08
610.896	0.08
611.018	15.08
611.14	-7.92
611.263	6.08
611.385	6.08
611.507	14.08
611.629	0.08
611.751	6.08
611.873	36.08
611.996	9.08
612.118	26.08
612.24	6.08
612.362	7.08
612.484	6.08
612.607	8.08
612.729	32.08
612.851	14.08
612.973	2.08
613.095	17.08
613.218	18.08
613.34	35.08
613.462	16.08
613.584	-9.92
613.706	2.08
613.828	21.08
613.951	13.08
614.073	19.08
614.195	-5.92
614.317	33.08
614.439	28.08
614.561	27.08
614.684	25.08
614.806	27.08
614.928	24.08
615.05	16.08
615.172	29.08
615.294	8.08
615.417	10.08
615.539	20.08
615.661	24.08
615.783	35.08
615.905	24.08
616.027	56.08
616.15	104.08
616.272	85.08
616.394	54.08
616.516	53.08
616.638	26.08
616.76	23.08
616.883	0.08
617.005	-2.92
617.127	5.08
617.249	15.08
617.371	23.08
617.493	6.08
617.615	21.08
617.738	6.08
617.86	17.08
617.982	19.08
618.104	16.08
618.226	4.08
618.348	-4.92
618.471	16.08
618.593	13.08
618.715	12.08
618.837	12.08
618.959	15.08
619.081	15.08
619.203	6.08
619.326	10.08
619.448	10.08
619.57	14.08
619.692	24.08
619.814	18.08
619.936	30.08
620.058	23.08
620.181	9.08
620.303	18.08
620.425	5.08
620.547	7.08
620.669	4.08
620.791	16.08
620.913	2.08
621.036	6.08
621.158	8.08
621.28	21.08
621.402	2.08
621.524	1.08
621.646	19.08
621.768	11.08
621.891	-0.92
622.013	22.08
622.135	-6.92
622.257	-5.92
622.379	13.08
622.501	7.08
622.623	2.08
622.745	15.08
622.868	13.08
622.99	4.08
623.112	5.08
623.234	7.08
623.356	12.08
623.478	1.08
623.6	21.08
623.722	4.08
623.845	17.08
623.967	6.08
624.089	7.08
624.211	18.08
624.333	6.08
624.455	5.08
624.577	0.08
624.699	12.08
624.822	17.08
624.944	9.08
625.066	19.08
625.188	-11.92
625.31	15.08
625.432	23.08
625.554	7.08
625.676	37.08
625.799	17.08
625.921	16.08
626.043	5.08
626.165	6.08
626.287	-6.92
626.409	5.08
626.531	15.08
626.653	2.08
626.775	20.08
626.898	8.08
627.02	3.08
627.142	19.08
627.264	10.08
627.386	-3.92
627.508	-12.92
627.63	-4.92
627.752	10.08
627.874	9.08
627.997	15.08
628.119	31.08
628.241	19.08
628.363	17.08
628.485	27.08
628.607	16.08
628.729	4.08
628.851	0.08
628.973	6.08
629.096	4.08
629.218	1.08
629.34	-5.92
629.462	-7.92
629.584	4.08
629.706	16.08
629.828	11.08
629.95	36.08
630.072	-0.92
630.195	14.08
630.317	-5.92
630.439	12.08
630.561	7.08
630.683	23.08
630.805	26.08
630.927	44.08
631.049	9.08
631.171	-5.92
631.293	15.08
631.416	5.08
631.538	1.08
631.66	10.08
631.782	28.08
631.904	31.08
632.026	8.08
632.148	22.08
632.27	-4.92
632.392	13.08
632.514	14.08
632.637	5.08
632.759	11.08
632.881	0.08
633.003	-3.92
633.125	-5.92
633.247	4.08
633.369	2.08
633.491	10.08
633.613	16.08
633.735	-8.92
633.858	-4.92
633.98	2.08
634.102	2.08
634.224	2.08
634.346	0.08
634.468	0.08
634.59	8.08
634.712	16.08
634.834	18.08
634.956	-4.92
635.078	-1.92
635.201	7.08
635.323	12.08
635.445	19.08
635.567	-12.92
635.689	11.08
635.811	14.08
635.933	22.08
636.055	23.08
636.177	10.08
636.299	19.08
636.421	6.08
636.544	-8.92
636.666	6.08
636.788	21.08
636.91	7.08
637.032	12.08
637.154	26.08
637.276	40.08
637.398	23.08
637.52	19.08
637.642	7.08
637.764	16.08
637.887	-3.92
638.009	1.08
638.131	-3.92
638.253	-6.92
638.375	23.08
638.497	14.08
638.619	2.08
638.741	7.08
638.863	-3.92
638.985	1.08
639.107	-1.92
639.23	6.08
639.352	28.08
639.474	8.08
639.596	5.08
639.718	4.08
639.84	0.08
639.962	9.08
640.084	21.08
640.206	32.08
640.328	15.08
640.45	9.08
640.573	-7.92
640.695	-4.92
640.817	8.08
640.939	22.08
641.061	0.08
641.183	8.08
641.305	-6.92
641.427	-6.92
641.549	16.08
641.671	12.08
641.793	-3.92
641.915	4.08
642.038	-8.92
642.16	2.08
642.282	-3.92
642.404	8.08
642.526	-4.92
642.648	19.08
642.77	0.08
642.892	19.08
643.014	26.08
643.136	0.08
643.258	1.08
643.381	30.08
643.503	18.08
643.625	5.08
643.747	6.08
643.869	1.08
643.991	-1.92
644.113	7.08
644.235	-5.92
644.357	2.08
644.479	16.08
644.601	6.08
644.723	0.08
644.846	15.08
644.968	8.08
645.09	5.08
645.212	-8.92
645.334	24.08
645.456	31.08
645.578	12.08
645.7	-0.92
645.822	9.08
645.944	4.08
646.066	1.08
646.188	8.08
646.311	31.08
646.433	15.08
646.555	36.08
646.677	38.08
646.799	31.08
646.921	12.08
647.043	23.08
647.165	0.08
647.287	13.08
647.409	9.08
647.531	10.08
647.654	-9.92
647.776	28.08
647.898	10.08
648.02	-6.92
648.142	2.08
648.264	-21.92
648.386	-7.92
648.508	-3.92
648.63	-5.92
648.752	17.08
648.874	9.08
648.997	15.08
649.119	17.08
649.241	15.08
649.363	33.08
649.485	28.08
649.607	-4.92
649.729	2.08
649.851	-7.92
649.973	8.08
650.095	16.08
650.217	-3.92
650.34	2.08
650.462	1.08
650.584	1.08
650.706	12.08
650.828	23.08
650.95	-3.92
651.072	14.08
651.194	-10.92
651.316	-1.92
651.438	-1.92
651.56	-9.92
651.683	-4.92
651.805	8.08
651.927	13.08
652.049	0.08
652.171	32.08
652.293	-4.92
652.415	1.08
652.537	7.08
652.659	-7.92
652.781	8.08
652.903	16.08
653.026	39.08
653.148	8.08
653.27	18.08
653.392	20.08
653.514	2.08
653.636	8.08
653.758	-0.92
653.88	0.08
654.002	13.08
654.124	4.08
654.247	16.08
654.369	29.08
654.491	15.08
654.613	15.08
654.735	2.08
654.857	20.08
654.979	22.08
655.101	23.08
655.223	35.08
655.345	27.08
655.468	34.08
655.59	16.08
655.712	19.08
655.834	17.08
655.956	33.08
656.078	30.08
656.2	54.08
656.322	49.08
656.444	23.08
656.566	65.08
656.689	39.08
656.811	70.08
656.933	97.08
657.055	86.08
657.177	156.08
657.299	264.08
657.421	529.08
657.543	1925.08
657.665	12713.08
657.787	15198.08
657.91	15358.08
658.032	15661.08
658.154	4720.08
658.276	4546.08
658.398	1369.08
658.52	1100.08
658.642	529.08
658.764	602.08
658.886	284.08
659.009	419.08
659.131	238.08
659.253	328.08
659.375	169.08
659.497	262.08
659.619	152.08
659.741	223.08
659.863	101.08
659.985	170.08
660.108	104.08
660.23	151.08
660.352	100.08
660.474	163.08
660.596	76.08
660.718	132.08
660.84	65.08
660.962	122.08
661.084	60.08
661.207	102.08
661.329	54.08
661.451	87.08
661.573	46.08
661.695	100.08
661.817	66.08
661.939	122.08
662.061	67.08
662.184	77.08
662.306	47.08
662.428	82.08
662.55	58.08
662.672	66.08
662.794	40.08
662.916	57.08
663.038	36.08
663.161	73.08
663.283	40.08
663.405	66.08
663.527	35.08
663.649	59.08
663.771	33.08
663.893	62.08
664.015	42.08
664.138	49.08
664.26	36.08
664.382	51.08
664.504	3.08
664.626	19.08
664.748	34.08
664.87	44.08
664.992	44.08
665.115	57.08
665.237	31.08
665.359	37.08
665.481	27.08
665.603	33.08
665.725	32.08
665.847	15.08
665.97	-0.92
666.092	30.08
666.214	27.08
666.336	32.08
666.458	24.08
666.58	43.08
666.702	13.08
666.825	42.08
666.947	2.08
667.069	38.08
667.191	21.08
667.313	24.08
667.435	4.08
667.557	18.08
667.68	5.08
667.802	30.08
667.924	15.08
668.046	41.08
668.168	24.08
668.29	57.08
668.412	18.08
668.535	44.08
668.657	22.08
668.779	26.08
668.901	14.08
669.023	46.08
669.145	13.08
669.267	37.08
669.39	8.08
669.512	18.08
669.634	13.08
669.756	14.08
669.878	0.08
670	21.08
670.123	0.08
670.245	34.08
670.367	21.08
670.489	12.08
670.611	-4.92
670.733	12.08
670.856	-3.92
670.978	26.08
671.1	20.08
671.222	44.08
671.344	10.08
671.466	23.08
671.589	5.08
671.711	7.08
671.833	-8.92
671.955	25.08
672.077	12.08
672.199	44.08
672.322	39.08
672.444	38.08
672.566	38.08
672.688	44.08
672.81	23.08
672.932	29.08
673.055	-1.92
673.177	18.08
673.299	24.08
673.421	15.08
673.543	4.08
673.665	39.08
673.788	23.08
673.91	8.08
674.032	-5.92
674.154	24.08
674.276	20.08
674.399	9.08
674.521	10.08
674.643	12.08
674.765	-14.92
674.887	31.08
675.009	2.08
675.132	11.08
675.254	8.08
675.376	26.08
675.498	32.08
675.62	45.08
675.743	9.08
675.865	35.08
675.987	-8.92
676.109	26.08
676.231	18.08
676.354	44.08
676.476	8.08
676.598	25.08
676.72	18.08
676.842	31.08
676.965	5.08
677.087	26.08
677.209	18.08
677.331	24.08
677.453	24.08
677.576	18.08
677.698	14.08
677.82	27.08
677.942	2.08
678.064	1.08
678.187	7.08
678.309	23.08
678.431	4.08
678.553	20.08
678.675	19.08
678.798	21.08
678.92	19.08
679.042	20.08
679.164	15.08
679.286	30.08
679.409	-6.92
679.531	5.08
679.653	2.08
679.775	15.08
679.898	-5.92
680.02	13.08
680.142	-3.92
680.264	23.08
680.386	7.08
680.509	27.08
680.631	17.08
680.753	14.08
680.875	9.08
680.998	24.08
681.12	21.08
681.242	16.08
681.364	-24.92
681.486	-1.92
681.609	-22.92
681.731	1.08
681.853	7.08
681.975	2.08
682.098	23.08
682.22	32.08
682.342	16.08
682.464	21.08
682.587	3.08
682.709	21.08
682.831	-8.92
682.953	18.08
683.076	7.08
683.198	18.08
683.32	11.08
683.442	26.08
683.565	14.08
683.687	0.08
683.809	3.08
683.931	-13.92
684.054	-0.92
684.176	15.08
684.298	9.08
684.42	10.08
684.543	-3.92
684.665	22.08
684.787	8.08
684.909	6.08
685.032	6.08
685.154	-7.92
685.276	-0.92
685.398	0.08
685.521	-9.92
685.643	20.08
685.765	15.08
685.887	38.08
686.01	20.08
686.132	10.08
686.254	-1.92
686.377	12.08
686.499	-8.92
686.621	14.08
686.743	4.08
686.866	26.08
686.988	34.08
687.11	11.08
687.232	9.08
687.355	17.08
687.477	8.08
687.599	19.08
687.722	12.08
687.844	-1.92
687.966	6.08
688.088	-5.92
688.211	11.08
688.333	24.08
688.455	17.08
688.578	32.08
688.7	26.08
688.822	-6.92
688.944	-10.92
689.067	38.08
689.189	12.08
689.311	11.08
689.434	-8.92
689.556	10.08
689.678	10.08
689.801	-12.92
689.923	2.08
690.045	27.08
690.167	25.08
690.29	20.08
690.412	8.08
690.534	39.08
690.657	4.08
690.779	9.08
690.901	23.08
691.024	17.08
691.146	-6.92
691.268	9.08
691.391	11.08
691.513	25.08
691.635	18.08
691.758	34.08
691.88	12.08
692.002	-12.92
692.125	-0.92
692.247	12.08
692.369	-3.92
692.492	-0.92
692.614	-4.92
692.736	-0.92
692.859	-11.92
692.981	2.08
693.103	16.08
693.226	17.08
693.348	42.08
693.47	23.08
693.593	4.08
693.715	4.08
693.837	-5.92
693.96	16.08
694.082	3.08
694.204	18.08
694.327	-1.92
694.449	-5.92
694.571	17.08
694.694	22.08
694.816	36.08
694.938	16.08
695.061	8.08
695.183	15.08
695.305	-1.92
695.428	5.08
695.55	-1.92
695.672	10.08
695.795	5.08
695.917	15.08
696.04	17.08
696.162	14.08
696.284	-12.92
696.407	6.08
696.529	7.08
696.651	18.08
696.774	12.08
696.896	9.08
697.019	6.08
697.141	13.08
697.263	2.08
697.386	-12.92
697.508	5.08
697.63	34.08
697.753	18.08
697.875	4.08
697.998	-7.92
698.12	13.08
698.242	-0.92
698.365	4.08
698.487	-3.92
698.61	22.08
698.732	4.08
698.854	32.08
698.977	7.08
699.099	16.08
699.221	-11.92
699.344	5.08
699.466	16.08
699.589	29.08
699.711	1.08
699.834	-0.92
699.956	6.08
700.078	16.08
700.201	9.08
700.323	10.08
700.446	9.08
700.568	10.08
700.69	23.08
700.813	17.08
700.935	7.08
701.058	-3.92
701.18	3.08
701.302	4.08
701.425	-12.92
701.547	5.08
701.67	4.08
701.792	20.08
701.915	4.08
702.037	10.08
702.159	1.08
702.282	19.08
702.404	-3.92
702.527	31.08
702.649	32.08
702.772	14.08
702.894	14.08
703.017	19.08
703.139	19.08
703.261	32.08
703.384	21.08
703.506	-2.92
703.629	-7.92
703.751	15.08
703.874	25.08
703.996	-2.92
704.119	0.08
704.241	11.08
704.364	-1.92
704.486	27.08
704.608	27.08
704.731	6.08
704.853	13.08
704.976	20.08
705.098	11.08
705.221	-9.92
705.343	16.08
705.466	8.08
705.588	18.08
705.711	23.08
705.833	14.08
705.956	19.08
706.078	5.08
706.201	-0.92
706.323	8.08
706.446	-8.92
