Data from LowRes_H2_15_26_11_07_2024_HR4C61881__39__15-28-17-537.txt Node

Date: Thu Nov 07 15:28:17 EST 2024
User: crc00042
Spectrometer: HR4C6188
Trigger mode: 4
Integration Time (sec): 1.000000E-1
Scans to average: 1
Electric dark correction enabled: true
Nonlinearity correction enabled: false
Boxcar width: 0
XAxis mode: Wavelengths
Number of Pixels in Spectrum: 3648
>>>>>Begin Spectral Data<<<<<
245.66	-76.92
245.797	-76.92
245.934	-76.92
246.071	-72.92
246.208	4.08
246.344	-0.92
246.481	-7.92
246.618	0.08
246.755	6.08
246.892	7.08
247.029	3.08
247.165	-23.92
247.302	0.08
247.439	5.08
247.576	10.08
247.713	-14.92
247.849	18.08
247.986	-1.92
248.123	-2.92
248.26	3.08
248.396	29.08
248.533	6.08
248.67	-4.92
248.806	-1.92
248.943	2.08
249.08	-2.92
249.216	25.08
249.353	2.08
249.49	22.08
249.626	-8.92
249.763	-0.92
249.9	-11.92
250.036	7.08
250.173	12.08
250.309	7.08
250.446	-1.92
250.582	6.08
250.719	-5.92
250.856	-0.92
250.992	-5.92
251.129	28.08
251.265	-16.92
251.402	-6.92
251.538	2.08
251.675	10.08
251.811	11.08
251.948	6.08
252.084	7.08
252.221	11.08
252.357	-1.92
252.493	29.08
252.63	-1.92
252.766	24.08
252.903	4.08
253.039	-3.92
253.175	-7.92
253.312	13.08
253.448	6.08
253.585	-28.92
253.721	12.08
253.857	-1.92
253.994	17.08
254.13	4.08
254.266	-15.92
254.403	10.08
254.539	20.08
254.675	19.08
254.811	16.08
254.948	11.08
255.084	-2.92
255.22	-2.92
255.356	-3.92
255.493	28.08
255.629	-15.92
255.765	-12.92
255.901	14.08
256.037	11.08
256.174	0.08
256.31	11.08
256.446	0.08
256.582	3.08
256.718	10.08
256.854	13.08
256.991	-1.92
257.127	13.08
257.263	11.08
257.399	2.08
257.535	3.08
257.671	-7.92
257.807	-21.92
257.943	-7.92
258.079	-11.92
258.215	-5.92
258.351	-15.92
258.487	-9.92
258.623	15.08
258.759	-2.92
258.895	5.08
259.031	12.08
259.167	-6.92
259.303	11.08
259.439	0.08
259.575	3.08
259.711	-0.92
259.847	-0.92
259.983	29.08
260.119	5.08
260.255	5.08
260.391	20.08
260.527	7.08
260.663	31.08
260.799	20.08
260.934	7.08
261.07	1.08
261.206	-24.92
261.342	-10.92
261.478	12.08
261.614	-5.92
261.749	8.08
261.885	1.08
262.021	1.08
262.157	11.08
262.293	-12.92
262.428	-11.92
262.564	-0.92
262.7	9.08
262.836	7.08
262.971	11.08
263.107	15.08
263.243	8.08
263.378	11.08
263.514	-22.92
263.65	5.08
263.785	-14.92
263.921	-13.92
264.057	4.08
264.192	3.08
264.328	6.08
264.464	-20.92
264.599	12.08
264.735	31.08
264.871	0.08
265.006	1.08
265.142	13.08
265.277	3.08
265.413	13.08
265.548	12.08
265.684	16.08
265.819	4.08
265.955	-14.92
266.091	-0.92
266.226	-15.92
266.362	-7.92
266.497	16.08
266.633	-13.92
266.768	5.08
266.903	20.08
267.039	22.08
267.174	23.08
267.31	-11.92
267.445	-10.92
267.581	4.08
267.716	-0.92
267.851	24.08
267.987	8.08
268.122	11.08
268.258	0.08
268.393	1.08
268.528	16.08
268.664	-3.92
268.799	-23.92
268.934	16.08
269.07	-9.92
269.205	11.08
269.34	33.08
269.476	13.08
269.611	-9.92
269.746	9.08
269.881	18.08
270.017	27.08
270.152	16.08
270.287	1.08
270.422	8.08
270.558	-6.92
270.693	16.08
270.828	-2.92
270.963	-15.92
271.098	-5.92
271.234	0.08
271.369	26.08
271.504	12.08
271.639	-8.92
271.774	16.08
271.909	11.08
272.045	-27.92
272.18	-6.92
272.315	11.08
272.45	18.08
272.585	-2.92
272.72	19.08
272.855	7.08
272.99	27.08
273.125	0.08
273.26	4.08
273.395	11.08
273.53	15.08
273.665	25.08
273.8	15.08
273.935	-7.92
274.07	5.08
274.205	22.08
274.34	4.08
274.475	1.08
274.61	15.08
274.745	3.08
274.88	18.08
275.015	-10.92
275.15	13.08
275.285	26.08
275.42	7.08
275.555	29.08
275.69	17.08
275.825	-2.92
275.959	8.08
276.094	8.08
276.229	10.08
276.364	-5.92
276.499	-6.92
276.634	15.08
276.768	-14.92
276.903	-6.92
277.038	7.08
277.173	12.08
277.308	5.08
277.442	-4.92
277.577	-9.92
277.712	-4.92
277.847	-4.92
277.981	18.08
278.116	-25.92
278.251	-0.92
278.386	0.08
278.52	13.08
278.655	9.08
278.79	15.08
278.924	3.08
279.059	26.08
279.194	-3.92
279.328	39.08
279.463	5.08
279.598	22.08
279.732	16.08
279.867	16.08
280.001	-5.92
280.136	26.08
280.271	10.08
280.405	25.08
280.54	0.08
280.674	12.08
280.809	27.08
280.943	-8.92
281.078	-0.92
281.213	20.08
281.347	21.08
281.482	22.08
281.616	17.08
281.751	11.08
281.885	-2.92
282.02	5.08
282.154	12.08
282.288	-10.92
282.423	-1.92
282.557	-18.92
282.692	15.08
282.826	4.08
282.961	3.08
283.095	-4.92
283.229	16.08
283.364	-4.92
283.498	-0.92
283.633	3.08
283.767	5.08
283.901	-3.92
284.036	-8.92
284.17	0.08
284.304	0.08
284.439	-3.92
284.573	-6.92
284.707	38.08
284.842	-16.92
284.976	-3.92
285.11	-7.92
285.244	0.08
285.379	50.08
285.513	10.08
285.647	21.08
285.781	12.08
285.916	22.08
286.05	0.08
286.184	35.08
286.318	17.08
286.453	8.08
286.587	-7.92
286.721	-1.92
286.855	9.08
286.989	4.08
287.123	14.08
287.258	-0.92
287.392	-11.92
287.526	9.08
287.66	5.08
287.794	5.08
287.928	-16.92
288.062	1.08
288.196	4.08
288.33	7.08
288.464	22.08
288.598	21.08
288.733	8.08
288.867	24.08
289.001	-3.92
289.135	11.08
289.269	-14.92
289.403	-4.92
289.537	-7.92
289.671	14.08
289.805	-3.92
289.939	10.08
290.073	4.08
290.207	-8.92
290.34	-0.92
290.474	15.08
290.608	17.08
290.742	6.08
290.876	5.08
291.01	-2.92
291.144	28.08
291.278	17.08
291.412	21.08
291.546	5.08
291.679	-16.92
291.813	7.08
291.947	18.08
292.081	-0.92
292.215	19.08
292.349	27.08
292.482	10.08
292.616	-1.92
292.75	17.08
292.884	9.08
293.018	13.08
293.151	-5.92
293.285	16.08
293.419	-4.92
293.553	-3.92
293.686	-6.92
293.82	1.08
293.954	30.08
294.088	49.08
294.221	1.08
294.355	-9.92
294.489	10.08
294.622	-5.92
294.756	-1.92
294.89	-1.92
295.023	7.08
295.157	19.08
295.291	27.08
295.424	21.08
295.558	16.08
295.691	9.08
295.825	9.08
295.959	10.08
296.092	-4.92
296.226	15.08
296.359	26.08
296.493	7.08
296.627	-3.92
296.76	4.08
296.894	15.08
297.027	18.08
297.161	20.08
297.294	7.08
297.428	-3.92
297.561	11.08
297.695	4.08
297.828	3.08
297.962	7.08
298.095	12.08
298.229	0.08
298.362	1.08
298.495	17.08
298.629	2.08
298.762	-0.92
298.896	1.08
299.029	-16.92
299.162	-8.92
299.296	3.08
299.429	-1.92
299.563	-20.92
299.696	9.08
299.829	4.08
299.963	17.08
300.096	8.08
300.229	-0.92
300.363	21.08
300.496	9.08
300.629	-5.92
300.763	-2.92
300.896	-8.92
301.029	20.08
301.162	6.08
301.296	-17.92
301.429	8.08
301.562	-1.92
301.695	23.08
301.829	20.08
301.962	27.08
302.095	-4.92
302.228	-24.92
302.362	4.08
302.495	-19.92
302.628	7.08
302.761	9.08
302.894	0.08
303.027	28.08
303.161	-6.92
303.294	1.08
303.427	25.08
303.56	18.08
303.693	-4.92
303.826	1.08
303.959	14.08
304.092	7.08
304.225	-7.92
304.359	21.08
304.492	-2.92
304.625	2.08
304.758	14.08
304.891	0.08
305.024	22.08
305.157	-0.92
305.29	0.08
305.423	6.08
305.556	1.08
305.689	23.08
305.822	3.08
305.955	-13.92
306.088	-25.92
306.221	-9.92
306.354	-0.92
306.487	11.08
306.62	7.08
306.752	-20.92
306.885	-11.92
307.018	-3.92
307.151	-4.92
307.284	-1.92
307.417	-1.92
307.55	24.08
307.683	-5.92
307.816	1.08
307.948	16.08
308.081	25.08
308.214	-3.92
308.347	5.08
308.48	-11.92
308.613	-20.92
308.745	0.08
308.878	-7.92
309.011	-3.92
309.144	-0.92
309.277	-7.92
309.409	18.08
309.542	-4.92
309.675	7.08
309.808	15.08
309.94	22.08
310.073	7.08
310.206	11.08
310.339	11.08
310.471	-6.92
310.604	15.08
310.737	-0.92
310.869	-17.92
311.002	5.08
311.135	18.08
311.267	-3.92
311.4	-0.92
311.533	9.08
311.665	7.08
311.798	15.08
311.93	22.08
312.063	35.08
312.196	3.08
312.328	26.08
312.461	11.08
312.593	13.08
312.726	12.08
312.859	4.08
312.991	12.08
313.124	-8.92
313.256	9.08
313.389	26.08
313.521	-0.92
313.654	7.08
313.786	-3.92
313.919	-1.92
314.051	12.08
314.184	15.08
314.316	13.08
314.449	-10.92
314.581	-2.92
314.714	-4.92
314.846	6.08
314.978	-11.92
315.111	-4.92
315.243	14.08
315.376	24.08
315.508	7.08
315.641	9.08
315.773	19.08
315.905	6.08
316.038	0.08
316.17	3.08
316.302	-0.92
316.435	6.08
316.567	-0.92
316.699	21.08
316.832	-15.92
316.964	-1.92
317.096	-5.92
317.229	-19.92
317.361	-21.92
317.493	-11.92
317.625	-3.92
317.758	22.08
317.89	20.08
318.022	5.08
318.155	6.08
318.287	7.08
318.419	9.08
318.551	4.08
318.683	12.08
318.816	-13.92
318.948	-8.92
319.08	-17.92
319.212	-5.92
319.344	5.08
319.477	20.08
319.609	21.08
319.741	7.08
319.873	-7.92
320.005	8.08
320.137	10.08
320.269	9.08
320.401	-1.92
320.534	-13.92
320.666	-29.92
320.798	-5.92
320.93	-5.92
321.062	-13.92
321.194	-9.92
321.326	-2.92
321.458	5.08
321.59	10.08
321.722	3.08
321.854	-1.92
321.986	7.08
322.118	11.08
322.25	-8.92
322.382	-7.92
322.514	2.08
322.646	4.08
322.778	17.08
322.91	-4.92
323.042	-10.92
323.174	-2.92
323.306	-14.92
323.438	-34.92
323.57	0.08
323.702	16.08
323.834	-0.92
323.966	-4.92
324.097	9.08
324.229	3.08
324.361	11.08
324.493	9.08
324.625	4.08
324.757	3.08
324.889	-3.92
325.021	17.08
325.152	10.08
325.284	17.08
325.416	0.08
325.548	10.08
325.68	-21.92
325.811	19.08
325.943	16.08
326.075	-16.92
326.207	12.08
326.339	18.08
326.47	-1.92
326.602	26.08
326.734	11.08
326.866	8.08
326.997	-21.92
327.129	-24.92
327.261	-5.92
327.392	2.08
327.524	10.08
327.656	2.08
327.787	14.08
327.919	6.08
328.051	5.08
328.182	19.08
328.314	26.08
328.446	13.08
328.577	23.08
328.709	3.08
328.841	-8.92
328.972	-1.92
329.104	1.08
329.235	9.08
329.367	4.08
329.499	15.08
329.63	23.08
329.762	4.08
329.893	-1.92
330.025	19.08
330.156	7.08
330.288	18.08
330.419	11.08
330.551	16.08
330.683	20.08
330.814	-3.92
330.946	15.08
331.077	-5.92
331.208	-14.92
331.34	8.08
331.471	-21.92
331.603	-6.92
331.734	-2.92
331.866	-14.92
331.997	-5.92
332.129	17.08
332.26	10.08
332.392	8.08
332.523	-10.92
332.654	-18.92
332.786	1.08
332.917	-7.92
333.048	8.08
333.18	-2.92
333.311	3.08
333.443	15.08
333.574	4.08
333.705	19.08
333.837	-18.92
333.968	-3.92
334.099	16.08
334.231	19.08
334.362	1.08
334.493	17.08
334.624	25.08
334.756	15.08
334.887	15.08
335.018	14.08
335.15	16.08
335.281	1.08
335.412	21.08
335.543	3.08
335.675	14.08
335.806	5.08
335.937	-2.92
336.068	8.08
336.199	32.08
336.331	-1.92
336.462	17.08
336.593	28.08
336.724	7.08
336.855	14.08
336.986	25.08
337.118	11.08
337.249	16.08
337.38	4.08
337.511	15.08
337.642	0.08
337.773	5.08
337.904	-19.92
338.035	2.08
338.166	5.08
338.298	15.08
338.429	-10.92
338.56	13.08
338.691	17.08
338.822	32.08
338.953	17.08
339.084	16.08
339.215	29.08
339.346	-0.92
339.477	-5.92
339.608	7.08
339.739	-11.92
339.87	8.08
340.001	2.08
340.132	15.08
340.263	0.08
340.394	12.08
340.525	8.08
340.656	-34.92
340.787	-4.92
340.918	14.08
341.049	19.08
341.179	7.08
341.31	14.08
341.441	31.08
341.572	5.08
341.703	-0.92
341.834	-0.92
341.965	12.08
342.096	-3.92
342.227	7.08
342.357	7.08
342.488	4.08
342.619	12.08
342.75	10.08
342.881	-3.92
343.012	23.08
343.142	28.08
343.273	-11.92
343.404	8.08
343.535	36.08
343.666	16.08
343.796	30.08
343.927	24.08
344.058	9.08
344.189	25.08
344.319	31.08
344.45	20.08
344.581	3.08
344.712	5.08
344.842	22.08
344.973	11.08
345.104	7.08
345.234	-8.92
345.365	11.08
345.496	12.08
345.626	11.08
345.757	20.08
345.888	-7.92
346.018	14.08
346.149	4.08
346.28	24.08
346.41	-0.92
346.541	-5.92
346.672	-12.92
346.802	-0.92
346.933	5.08
347.063	-7.92
347.194	1.08
347.325	0.08
347.455	33.08
347.586	11.08
347.716	-1.92
347.847	14.08
347.977	13.08
348.108	15.08
348.238	10.08
348.369	-7.92
348.499	18.08
348.63	-2.92
348.76	6.08
348.891	15.08
349.021	12.08
349.152	25.08
349.282	24.08
349.413	10.08
349.543	20.08
349.674	12.08
349.804	11.08
349.935	-14.92
350.065	-10.92
350.196	-0.92
350.326	1.08
350.456	2.08
350.587	24.08
350.717	16.08
350.848	16.08
350.978	18.08
351.108	19.08
351.239	26.08
351.369	-1.92
351.499	21.08
351.63	22.08
351.76	6.08
351.89	6.08
352.021	18.08
352.151	-3.92
352.281	5.08
352.412	15.08
352.542	9.08
352.672	7.08
352.803	9.08
352.933	15.08
353.063	18.08
353.193	2.08
353.324	2.08
353.454	25.08
353.584	34.08
353.714	12.08
353.845	16.08
353.975	6.08
354.105	-6.92
354.235	6.08
354.365	16.08
354.496	-1.92
354.626	12.08
354.756	20.08
354.886	3.08
355.016	16.08
355.146	-0.92
355.277	17.08
355.407	-9.92
355.537	27.08
355.667	13.08
355.797	9.08
355.927	-9.92
356.057	29.08
356.187	7.08
356.318	0.08
356.448	14.08
356.578	16.08
356.708	18.08
356.838	14.08
356.968	4.08
357.098	13.08
357.228	26.08
357.358	-18.92
357.488	9.08
357.618	25.08
357.748	11.08
357.878	-3.92
358.008	7.08
358.138	-2.92
358.268	11.08
358.398	22.08
358.528	-11.92
358.658	35.08
358.788	13.08
358.918	9.08
359.048	20.08
359.178	17.08
359.308	8.08
359.438	31.08
359.568	19.08
359.698	25.08
359.827	-3.92
359.957	5.08
360.087	6.08
360.217	-0.92
360.347	8.08
360.477	9.08
360.607	-16.92
360.737	18.08
360.866	14.08
360.996	6.08
361.126	14.08
361.256	30.08
361.386	25.08
361.516	19.08
361.645	11.08
361.775	26.08
361.905	-16.92
362.035	13.08
362.165	5.08
362.294	26.08
362.424	29.08
362.554	-3.92
362.684	-17.92
362.813	-1.92
362.943	0.08
363.073	-4.92
363.203	-1.92
363.332	4.08
363.462	-12.92
363.592	-1.92
363.721	1.08
363.851	7.08
363.981	28.08
364.111	-0.92
364.24	-10.92
364.37	14.08
364.5	19.08
364.629	12.08
364.759	-8.92
364.888	0.08
365.018	10.08
365.148	10.08
365.277	8.08
365.407	17.08
365.537	11.08
365.666	11.08
365.796	7.08
365.925	9.08
366.055	31.08
366.184	15.08
366.314	7.08
366.444	26.08
366.573	-2.92
366.703	4.08
366.832	12.08
366.962	19.08
367.091	23.08
367.221	22.08
367.35	-0.92
367.48	39.08
367.609	17.08
367.739	8.08
367.868	10.08
367.998	12.08
368.127	36.08
368.257	11.08
368.386	14.08
368.516	18.08
368.645	19.08
368.775	3.08
368.904	8.08
369.033	7.08
369.163	-6.92
369.292	14.08
369.422	10.08
369.551	31.08
369.68	14.08
369.81	13.08
369.939	-2.92
370.069	26.08
370.198	30.08
370.327	-4.92
370.457	17.08
370.586	15.08
370.715	19.08
370.845	5.08
370.974	10.08
371.103	20.08
371.233	11.08
371.362	20.08
371.491	4.08
371.621	11.08
371.75	10.08
371.879	0.08
372.008	4.08
372.138	3.08
372.267	13.08
372.396	7.08
372.525	5.08
372.655	20.08
372.784	14.08
372.913	19.08
373.042	7.08
373.172	16.08
373.301	-9.92
373.43	-3.92
373.559	22.08
373.688	20.08
373.818	35.08
373.947	25.08
374.076	13.08
374.205	20.08
374.334	-10.92
374.463	-2.92
374.593	14.08
374.722	21.08
374.851	41.08
374.98	1.08
375.109	12.08
375.238	14.08
375.367	34.08
375.496	-7.92
375.625	-3.92
375.755	22.08
375.884	32.08
376.013	22.08
376.142	0.08
376.271	21.08
376.4	5.08
376.529	9.08
376.658	16.08
376.787	15.08
376.916	13.08
377.045	16.08
377.174	10.08
377.303	5.08
377.432	44.08
377.561	30.08
377.69	-7.92
377.819	20.08
377.948	15.08
378.077	8.08
378.206	11.08
378.335	12.08
378.464	0.08
378.593	7.08
378.722	-0.92
378.851	17.08
378.98	25.08
379.108	-14.92
379.237	-15.92
379.366	1.08
379.495	18.08
379.624	7.08
379.753	-1.92
379.882	20.08
380.011	4.08
380.14	0.08
380.268	21.08
380.397	-3.92
380.526	49.08
380.655	2.08
380.784	-0.92
380.913	-8.92
381.041	11.08
381.17	-8.92
381.299	8.08
381.428	6.08
381.557	21.08
381.685	-8.92
381.814	-5.92
381.943	7.08
382.072	-3.92
382.2	-4.92
382.329	-5.92
382.458	8.08
382.587	32.08
382.715	32.08
382.844	18.08
382.973	9.08
383.102	17.08
383.23	9.08
383.359	-12.92
383.488	8.08
383.616	4.08
383.745	-19.92
383.874	15.08
384.003	5.08
384.131	10.08
384.26	5.08
384.389	1.08
384.517	-1.92
384.646	1.08
384.774	-15.92
384.903	23.08
385.032	26.08
385.16	21.08
385.289	9.08
385.418	0.08
385.546	12.08
385.675	12.08
385.803	8.08
385.932	14.08
386.06	4.08
386.189	-0.92
386.318	7.08
386.446	1.08
386.575	4.08
386.703	14.08
386.832	-23.92
386.96	-15.92
387.089	23.08
387.217	2.08
387.346	3.08
387.474	13.08
387.603	7.08
387.731	-2.92
387.86	11.08
387.988	21.08
388.117	28.08
388.245	8.08
388.374	7.08
388.502	25.08
388.631	-5.92
388.759	19.08
388.888	31.08
389.016	7.08
389.144	-8.92
389.273	9.08
389.401	1.08
389.53	-13.92
389.658	42.08
389.786	-0.92
389.915	-0.92
390.043	-2.92
390.172	14.08
390.3	34.08
390.428	19.08
390.557	-1.92
390.685	20.08
390.813	2.08
390.942	26.08
391.07	10.08
391.198	3.08
391.327	0.08
391.455	2.08
391.583	9.08
391.712	12.08
391.84	28.08
391.968	4.08
392.096	-20.92
392.225	-1.92
392.353	24.08
392.481	-11.92
392.609	26.08
392.738	13.08
392.866	25.08
392.994	3.08
393.122	28.08
393.251	3.08
393.379	-2.92
393.507	-11.92
393.635	-3.92
393.764	21.08
393.892	11.08
394.02	4.08
394.148	11.08
394.276	24.08
394.404	37.08
394.533	6.08
394.661	19.08
394.789	34.08
394.917	31.08
395.045	14.08
395.173	5.08
395.302	9.08
395.43	21.08
395.558	10.08
395.686	3.08
395.814	24.08
395.942	12.08
396.07	6.08
396.198	-6.92
396.326	14.08
396.454	6.08
396.582	14.08
396.711	18.08
396.839	11.08
396.967	15.08
397.095	16.08
397.223	38.08
397.351	33.08
397.479	20.08
397.607	7.08
397.735	17.08
397.863	19.08
397.991	5.08
398.119	6.08
398.247	-0.92
398.375	-16.92
398.503	-3.92
398.631	11.08
398.759	13.08
398.887	12.08
399.015	5.08
399.143	7.08
399.271	10.08
399.399	21.08
399.526	8.08
399.654	36.08
399.782	-17.92
399.91	34.08
400.038	18.08
400.166	-4.92
400.294	9.08
400.422	6.08
400.55	10.08
400.678	8.08
400.805	14.08
400.933	9.08
401.061	22.08
401.189	9.08
401.317	33.08
401.445	32.08
401.573	25.08
401.7	4.08
401.828	1.08
401.956	9.08
402.084	33.08
402.212	39.08
402.34	24.08
402.467	3.08
402.595	12.08
402.723	15.08
402.851	30.08
402.978	22.08
403.106	5.08
403.234	8.08
403.362	29.08
403.489	10.08
403.617	8.08
403.745	9.08
403.873	-7.92
404	23.08
404.128	11.08
404.256	24.08
404.384	24.08
404.511	18.08
404.639	6.08
404.767	4.08
404.894	5.08
405.022	13.08
405.15	0.08
405.277	4.08
405.405	6.08
405.533	10.08
405.66	-2.92
405.788	-9.92
405.916	0.08
406.043	2.08
406.171	5.08
406.299	4.08
406.426	17.08
406.554	24.08
406.681	38.08
406.809	11.08
406.937	1.08
407.064	9.08
407.192	21.08
407.319	9.08
407.447	12.08
407.574	33.08
407.702	2.08
407.83	8.08
407.957	-22.92
408.085	9.08
408.212	-8.92
408.34	8.08
408.467	-5.92
408.595	-1.92
408.722	21.08
408.85	27.08
408.977	7.08
409.105	6.08
409.232	22.08
409.36	12.08
409.487	26.08
409.615	39.08
409.742	30.08
409.87	37.08
409.997	24.08
410.125	44.08
410.252	40.08
410.379	50.08
410.507	48.08
410.634	18.08
410.762	12.08
410.889	15.08
411.017	4.08
411.144	19.08
411.271	7.08
411.399	14.08
411.526	-3.92
411.653	31.08
411.781	31.08
411.908	22.08
412.036	22.08
412.163	35.08
412.29	22.08
412.418	23.08
412.545	27.08
412.672	9.08
412.8	47.08
412.927	15.08
413.054	5.08
413.182	19.08
413.309	-0.92
413.436	-3.92
413.564	-9.92
413.691	11.08
413.818	10.08
413.945	-19.92
414.073	5.08
414.2	19.08
414.327	12.08
414.454	26.08
414.582	20.08
414.709	-6.92
414.836	3.08
414.963	12.08
415.091	16.08
415.218	5.08
415.345	10.08
415.472	15.08
415.6	-5.92
415.727	13.08
415.854	10.08
415.981	3.08
416.108	13.08
416.236	1.08
416.363	1.08
416.49	4.08
416.617	24.08
416.744	20.08
416.871	14.08
416.998	2.08
417.126	5.08
417.253	13.08
417.38	-0.92
417.507	17.08
417.634	16.08
417.761	26.08
417.888	3.08
418.015	17.08
418.143	6.08
418.27	45.08
418.397	5.08
418.524	8.08
418.651	10.08
418.778	6.08
418.905	22.08
419.032	21.08
419.159	6.08
419.286	35.08
419.413	29.08
419.54	31.08
419.667	18.08
419.794	-1.92
419.921	-3.92
420.048	13.08
420.175	11.08
420.302	-0.92
420.429	7.08
420.556	-4.92
420.683	-11.92
420.81	5.08
420.937	15.08
421.064	22.08
421.191	7.08
421.318	16.08
421.445	44.08
421.572	9.08
421.699	21.08
421.826	24.08
421.953	8.08
422.08	16.08
422.207	9.08
422.334	-4.92
422.461	8.08
422.588	8.08
422.714	17.08
422.841	17.08
422.968	29.08
423.095	2.08
423.222	-1.92
423.349	12.08
423.476	25.08
423.603	0.08
423.729	-7.92
423.856	20.08
423.983	24.08
424.11	-7.92
424.237	24.08
424.364	11.08
424.491	-3.92
424.617	2.08
424.744	-5.92
424.871	15.08
424.998	13.08
425.125	26.08
425.251	25.08
425.378	-10.92
425.505	4.08
425.632	16.08
425.758	11.08
425.885	5.08
426.012	41.08
426.139	11.08
426.266	5.08
426.392	-1.92
426.519	14.08
426.646	14.08
426.772	22.08
426.899	19.08
427.026	22.08
427.153	15.08
427.279	38.08
427.406	10.08
427.533	5.08
427.659	2.08
427.786	3.08
427.913	38.08
428.039	32.08
428.166	19.08
428.293	4.08
428.419	19.08
428.546	12.08
428.673	-4.92
428.799	10.08
428.926	13.08
429.053	30.08
429.179	12.08
429.306	23.08
429.433	35.08
429.559	12.08
429.686	1.08
429.812	-0.92
429.939	-10.92
430.066	-2.92
430.192	7.08
430.319	12.08
430.445	4.08
430.572	16.08
430.699	-9.92
430.825	5.08
430.952	9.08
431.078	21.08
431.205	20.08
431.331	4.08
431.458	11.08
431.584	12.08
431.711	-0.92
431.837	4.08
431.964	6.08
432.09	9.08
432.217	3.08
432.343	7.08
432.47	26.08
432.596	12.08
432.723	-6.92
432.849	-10.92
432.976	10.08
433.102	5.08
433.229	-4.92
433.355	23.08
433.482	89.08
433.608	170.08
433.735	148.08
433.861	111.08
433.987	114.08
434.114	230.08
434.24	217.08
434.367	79.08
434.493	15.08
434.62	14.08
434.746	20.08
434.872	4.08
434.999	15.08
435.125	7.08
435.252	-6.92
435.378	22.08
435.504	21.08
435.631	23.08
435.757	9.08
435.883	13.08
436.01	23.08
436.136	17.08
436.262	21.08
436.389	4.08
436.515	19.08
436.641	16.08
436.768	15.08
436.894	25.08
437.02	17.08
437.147	24.08
437.273	17.08
437.399	28.08
437.526	31.08
437.652	18.08
437.778	16.08
437.904	-3.92
438.031	7.08
438.157	24.08
438.283	19.08
438.409	-0.92
438.536	6.08
438.662	31.08
438.788	15.08
438.914	8.08
439.041	23.08
439.167	39.08
439.293	2.08
439.419	9.08
439.546	32.08
439.672	-0.92
439.798	32.08
439.924	12.08
440.05	32.08
440.177	32.08
440.303	16.08
440.429	6.08
440.555	30.08
440.681	12.08
440.807	23.08
440.934	7.08
441.06	11.08
441.186	17.08
441.312	10.08
441.438	15.08
441.564	15.08
441.69	22.08
441.816	7.08
441.943	6.08
442.069	28.08
442.195	22.08
442.321	37.08
442.447	-4.92
442.573	0.08
442.699	-5.92
442.825	9.08
442.951	24.08
443.077	30.08
443.203	18.08
443.33	8.08
443.456	7.08
443.582	20.08
443.708	6.08
443.834	22.08
443.96	21.08
444.086	11.08
444.212	14.08
444.338	25.08
444.464	39.08
444.59	26.08
444.716	21.08
444.842	5.08
444.968	-5.92
445.094	14.08
445.22	4.08
445.346	22.08
445.472	-2.92
445.598	15.08
445.724	5.08
445.85	24.08
445.976	19.08
446.102	13.08
446.228	9.08
446.354	21.08
446.48	8.08
446.605	7.08
446.731	20.08
446.857	-1.92
446.983	11.08
447.109	6.08
447.235	27.08
447.361	17.08
447.487	37.08
447.613	21.08
447.739	-1.92
447.865	1.08
447.99	5.08
448.116	17.08
448.242	8.08
448.368	6.08
448.494	-7.92
448.62	19.08
448.746	23.08
448.872	21.08
448.997	2.08
449.123	0.08
449.249	30.08
449.375	27.08
449.501	-3.92
449.627	1.08
449.752	23.08
449.878	8.08
450.004	3.08
450.13	31.08
450.256	12.08
450.381	12.08
450.507	14.08
450.633	21.08
450.759	32.08
450.884	-7.92
451.01	17.08
451.136	-6.92
451.262	2.08
451.388	15.08
451.513	8.08
451.639	12.08
451.765	36.08
451.89	24.08
452.016	32.08
452.142	10.08
452.268	19.08
452.393	12.08
452.519	2.08
452.645	14.08
452.771	11.08
452.896	14.08
453.022	20.08
453.148	30.08
453.273	9.08
453.399	27.08
453.525	13.08
453.65	18.08
453.776	28.08
453.902	26.08
454.027	35.08
454.153	9.08
454.279	11.08
454.404	9.08
454.53	30.08
454.656	33.08
454.781	8.08
454.907	15.08
455.032	7.08
455.158	33.08
455.284	31.08
455.409	13.08
455.535	15.08
455.66	28.08
455.786	18.08
455.912	6.08
456.037	-5.92
456.163	-2.92
456.288	8.08
456.414	-6.92
456.539	-17.92
456.665	29.08
456.791	18.08
456.916	7.08
457.042	22.08
457.167	13.08
457.293	36.08
457.418	8.08
457.544	5.08
457.669	11.08
457.795	7.08
457.92	17.08
458.046	12.08
458.171	25.08
458.297	8.08
458.422	1.08
458.548	11.08
458.673	15.08
458.799	26.08
458.924	5.08
459.05	15.08
459.175	33.08
459.301	-2.92
459.426	28.08
459.552	2.08
459.677	0.08
459.803	26.08
459.928	22.08
460.053	14.08
460.179	13.08
460.304	32.08
460.43	-15.92
460.555	3.08
460.681	23.08
460.806	20.08
460.931	21.08
461.057	18.08
461.182	17.08
461.308	24.08
461.433	9.08
461.558	-1.92
461.684	19.08
461.809	12.08
461.934	8.08
462.06	25.08
462.185	3.08
462.311	0.08
462.436	39.08
462.561	32.08
462.687	26.08
462.812	19.08
462.937	8.08
463.063	10.08
463.188	-8.92
463.313	16.08
463.439	14.08
463.564	0.08
463.689	17.08
463.814	23.08
463.94	16.08
464.065	39.08
464.19	28.08
464.316	6.08
464.441	2.08
464.566	2.08
464.692	15.08
464.817	-3.92
464.942	-3.92
465.067	13.08
465.193	0.08
465.318	13.08
465.443	12.08
465.568	6.08
465.694	7.08
465.819	26.08
465.944	5.08
466.069	5.08
466.194	11.08
466.32	19.08
466.445	27.08
466.57	12.08
466.695	-8.92
466.82	18.08
466.946	12.08
467.071	0.08
467.196	1.08
467.321	16.08
467.446	4.08
467.572	27.08
467.697	-1.92
467.822	24.08
467.947	13.08
468.072	1.08
468.197	12.08
468.323	5.08
468.448	-8.92
468.573	-6.92
468.698	8.08
468.823	19.08
468.948	39.08
469.073	13.08
469.198	27.08
469.324	36.08
469.449	16.08
469.574	35.08
469.699	25.08
469.824	14.08
469.949	24.08
470.074	30.08
470.199	42.08
470.324	13.08
470.449	19.08
470.574	10.08
470.7	13.08
470.825	26.08
470.95	46.08
471.075	-0.92
471.2	17.08
471.325	16.08
471.45	5.08
471.575	16.08
471.7	32.08
471.825	17.08
471.95	3.08
472.075	-1.92
472.2	2.08
472.325	17.08
472.45	-3.92
472.575	10.08
472.7	7.08
472.825	30.08
472.95	37.08
473.075	5.08
473.2	-5.92
473.325	25.08
473.45	11.08
473.575	5.08
473.7	22.08
473.825	14.08
473.95	19.08
474.075	36.08
474.2	23.08
474.325	8.08
474.45	35.08
474.574	12.08
474.699	40.08
474.824	22.08
474.949	13.08
475.074	-8.92
475.199	32.08
475.324	20.08
475.449	-3.92
475.574	23.08
475.699	30.08
475.824	10.08
475.949	4.08
476.073	10.08
476.198	3.08
476.323	8.08
476.448	26.08
476.573	19.08
476.698	19.08
476.823	19.08
476.947	34.08
477.072	16.08
477.197	29.08
477.322	8.08
477.447	23.08
477.572	32.08
477.697	0.08
477.821	14.08
477.946	36.08
478.071	23.08
478.196	25.08
478.321	11.08
478.445	13.08
478.57	2.08
478.695	1.08
478.82	31.08
478.945	19.08
479.069	-2.92
479.194	21.08
479.319	26.08
479.444	36.08
479.569	26.08
479.693	28.08
479.818	5.08
479.943	36.08
480.068	16.08
480.192	37.08
480.317	29.08
480.442	18.08
480.567	23.08
480.691	30.08
480.816	7.08
480.941	1.08
481.066	24.08
481.19	33.08
481.315	35.08
481.44	29.08
481.564	11.08
481.689	20.08
481.814	28.08
481.938	17.08
482.063	36.08
482.188	33.08
482.313	29.08
482.437	27.08
482.562	26.08
482.687	28.08
482.811	36.08
482.936	28.08
483.061	22.08
483.185	25.08
483.31	26.08
483.435	29.08
483.559	25.08
483.684	23.08
483.808	36.08
483.933	20.08
484.058	5.08
484.182	9.08
484.307	9.08
484.432	27.08
484.556	29.08
484.681	19.08
484.805	29.08
484.93	26.08
485.055	49.08
485.179	70.08
485.304	112.08
485.428	366.08
485.553	1253.08
485.678	1719.08
485.802	1595.08
485.927	1769.08
486.051	2630.08
486.176	1613.08
486.3	438.08
486.425	148.08
486.549	74.08
486.674	56.08
486.799	35.08
486.923	20.08
487.048	33.08
487.172	36.08
487.297	26.08
487.421	37.08
487.546	48.08
487.67	44.08
487.795	28.08
487.919	22.08
488.044	27.08
488.168	24.08
488.293	15.08
488.417	-0.92
488.542	30.08
488.666	16.08
488.791	11.08
488.915	18.08
489.04	37.08
489.164	47.08
489.289	44.08
489.413	14.08
489.538	40.08
489.662	16.08
489.786	-3.92
489.911	19.08
490.035	25.08
490.16	-2.92
490.284	9.08
490.409	2.08
490.533	7.08
490.658	36.08
490.782	8.08
490.906	26.08
491.031	37.08
491.155	33.08
491.28	33.08
491.404	7.08
491.528	23.08
491.653	16.08
491.777	35.08
491.902	16.08
492.026	24.08
492.15	43.08
492.275	32.08
492.399	35.08
492.524	3.08
492.648	40.08
492.772	38.08
492.897	39.08
493.021	15.08
493.145	25.08
493.27	4.08
493.394	18.08
493.518	36.08
493.643	13.08
493.767	37.08
493.891	0.08
494.016	11.08
494.14	34.08
494.264	9.08
494.389	29.08
494.513	19.08
494.637	-0.92
494.762	19.08
494.886	33.08
495.01	36.08
495.134	19.08
495.259	29.08
495.383	29.08
495.507	30.08
495.632	27.08
495.756	61.08
495.88	22.08
496.004	22.08
496.129	11.08
496.253	39.08
496.377	23.08
496.501	32.08
496.626	17.08
496.75	24.08
496.874	13.08
496.998	-2.92
497.123	27.08
497.247	23.08
497.371	11.08
497.495	12.08
497.62	16.08
497.744	11.08
497.868	9.08
497.992	20.08
498.116	15.08
498.241	13.08
498.365	-5.92
498.489	-3.92
498.613	39.08
498.737	10.08
498.862	32.08
498.986	12.08
499.11	7.08
499.234	20.08
499.358	2.08
499.482	11.08
499.607	12.08
499.731	11.08
499.855	24.08
499.979	-4.92
500.103	32.08
500.227	22.08
500.351	17.08
500.476	12.08
500.6	24.08
500.724	31.08
500.848	15.08
500.972	5.08
501.096	25.08
501.22	26.08
501.344	7.08
501.469	11.08
501.593	17.08
501.717	17.08
501.841	2.08
501.965	5.08
502.089	8.08
502.213	28.08
502.337	9.08
502.461	-14.92
502.585	3.08
502.709	22.08
502.834	-4.92
502.958	-8.92
503.082	20.08
503.206	13.08
503.33	31.08
503.454	20.08
503.578	41.08
503.702	27.08
503.826	11.08
503.95	37.08
504.074	17.08
504.198	2.08
504.322	6.08
504.446	8.08
504.57	28.08
504.694	14.08
504.818	5.08
504.942	44.08
505.066	20.08
505.19	29.08
505.314	22.08
505.438	41.08
505.562	20.08
505.686	28.08
505.81	21.08
505.934	30.08
506.058	15.08
506.182	16.08
506.306	30.08
506.43	10.08
506.554	11.08
506.678	9.08
506.802	20.08
506.926	17.08
507.05	22.08
507.174	21.08
507.298	27.08
507.422	3.08
507.546	39.08
507.67	43.08
507.794	-11.92
507.918	-7.92
508.042	16.08
508.165	8.08
508.289	20.08
508.413	-1.92
508.537	-3.92
508.661	12.08
508.785	7.08
508.909	8.08
509.033	5.08
509.157	9.08
509.281	23.08
509.405	2.08
509.528	33.08
509.652	10.08
509.776	-2.92
509.9	25.08
510.024	21.08
510.148	22.08
510.272	25.08
510.396	28.08
510.519	8.08
510.643	17.08
510.767	4.08
510.891	4.08
511.015	-8.92
511.139	6.08
511.263	21.08
511.386	27.08
511.51	13.08
511.634	5.08
511.758	16.08
511.882	3.08
512.006	15.08
512.129	17.08
512.253	45.08
512.377	-3.92
512.501	29.08
512.625	13.08
512.748	29.08
512.872	12.08
512.996	12.08
513.12	29.08
513.244	-2.92
513.367	12.08
513.491	24.08
513.615	26.08
513.739	1.08
513.862	7.08
513.986	9.08
514.11	36.08
514.234	9.08
514.358	23.08
514.481	29.08
514.605	16.08
514.729	15.08
514.853	25.08
514.976	9.08
515.1	17.08
515.224	36.08
515.348	21.08
515.471	12.08
515.595	9.08
515.719	10.08
515.842	40.08
515.966	6.08
516.09	32.08
516.214	21.08
516.337	59.08
516.461	49.08
516.585	24.08
516.708	33.08
516.832	23.08
516.956	22.08
517.08	8.08
517.203	-7.92
517.327	7.08
517.451	26.08
517.574	47.08
517.698	33.08
517.822	32.08
517.945	30.08
518.069	35.08
518.193	61.08
518.316	44.08
518.44	40.08
518.564	24.08
518.687	24.08
518.811	38.08
518.935	61.08
519.058	26.08
519.182	26.08
519.306	42.08
519.429	22.08
519.553	60.08
519.676	21.08
519.8	4.08
519.924	18.08
520.047	25.08
520.171	11.08
520.294	4.08
520.418	21.08
520.542	26.08
520.665	18.08
520.789	7.08
520.913	1.08
521.036	-22.92
521.16	21.08
521.283	13.08
521.407	17.08
521.53	-1.92
521.654	7.08
521.778	23.08
521.901	21.08
522.025	12.08
522.148	-1.92
522.272	30.08
522.395	20.08
522.519	30.08
522.643	11.08
522.766	19.08
522.89	13.08
523.013	4.08
523.137	-11.92
523.26	8.08
523.384	12.08
523.507	21.08
523.631	18.08
523.754	22.08
523.878	27.08
524.002	14.08
524.125	7.08
524.249	-6.92
524.372	13.08
524.496	13.08
524.619	21.08
524.743	21.08
524.866	18.08
524.99	16.08
525.113	-5.92
525.237	26.08
525.36	31.08
525.484	19.08
525.607	-2.92
525.731	-0.92
525.854	24.08
525.978	23.08
526.101	11.08
526.224	13.08
526.348	16.08
526.471	22.08
526.595	21.08
526.718	17.08
526.842	13.08
526.965	23.08
527.089	16.08
527.212	10.08
527.336	28.08
527.459	30.08
527.582	21.08
527.706	18.08
527.829	8.08
527.953	31.08
528.076	-4.92
528.2	-7.92
528.323	4.08
528.446	25.08
528.57	16.08
528.693	12.08
528.817	11.08
528.94	36.08
529.064	42.08
529.187	10.08
529.31	-3.92
529.434	-10.92
529.557	-3.92
529.68	12.08
529.804	18.08
529.927	18.08
530.051	-2.92
530.174	20.08
530.297	9.08
530.421	31.08
530.544	26.08
530.668	27.08
530.791	-1.92
530.914	15.08
531.038	19.08
531.161	0.08
531.284	16.08
531.408	23.08
531.531	7.08
531.654	12.08
531.778	26.08
531.901	-5.92
532.024	20.08
532.148	8.08
532.271	25.08
532.394	14.08
532.518	39.08
532.641	26.08
532.764	34.08
532.888	25.08
533.011	11.08
533.134	5.08
533.258	36.08
533.381	19.08
533.504	22.08
533.628	22.08
533.751	11.08
533.874	10.08
533.997	9.08
534.121	3.08
534.244	9.08
534.367	13.08
534.491	27.08
534.614	24.08
534.737	21.08
534.86	17.08
534.984	9.08
535.107	12.08
535.23	9.08
535.354	17.08
535.477	-3.92
535.6	13.08
535.723	17.08
535.847	-1.92
535.97	0.08
536.093	-4.92
536.216	-1.92
536.34	25.08
536.463	-2.92
536.586	-1.92
536.709	22.08
536.833	21.08
536.956	13.08
537.079	27.08
537.202	18.08
537.325	6.08
537.449	5.08
537.572	22.08
537.695	-0.92
537.818	1.08
537.941	10.08
538.065	21.08
538.188	17.08
538.311	24.08
538.434	26.08
538.558	19.08
538.681	24.08
538.804	17.08
538.927	40.08
539.05	19.08
539.173	13.08
539.297	8.08
539.42	29.08
539.543	19.08
539.666	17.08
539.789	34.08
539.913	13.08
540.036	-5.92
540.159	17.08
540.282	-4.92
540.405	-4.92
540.528	19.08
540.651	25.08
540.775	14.08
540.898	18.08
541.021	3.08
541.144	-2.92
541.267	8.08
541.39	3.08
541.513	28.08
541.637	15.08
541.76	0.08
541.883	-7.92
542.006	5.08
542.129	16.08
542.252	7.08
542.375	4.08
542.498	11.08
542.622	21.08
542.745	0.08
542.868	18.08
542.991	20.08
543.114	33.08
543.237	31.08
543.36	21.08
543.483	8.08
543.606	8.08
543.73	15.08
543.853	9.08
543.976	11.08
544.099	28.08
544.222	17.08
544.345	0.08
544.468	3.08
544.591	18.08
544.714	28.08
544.837	35.08
544.96	19.08
545.083	33.08
545.206	25.08
545.329	29.08
545.453	14.08
545.576	14.08
545.699	25.08
545.822	19.08
545.945	23.08
546.068	7.08
546.191	34.08
546.314	16.08
546.437	13.08
546.56	35.08
546.683	25.08
546.806	5.08
546.929	19.08
547.052	3.08
547.175	6.08
547.298	21.08
547.421	17.08
547.544	13.08
547.667	16.08
547.79	17.08
547.913	-26.92
548.036	-7.92
548.159	20.08
548.282	9.08
548.405	-8.92
548.528	13.08
548.651	1.08
548.774	21.08
548.897	23.08
549.02	29.08
549.143	34.08
549.266	8.08
549.389	16.08
549.512	14.08
549.635	37.08
549.758	29.08
549.881	6.08
550.004	13.08
550.127	16.08
550.25	14.08
550.373	6.08
550.496	20.08
550.619	13.08
550.742	8.08
550.865	-4.92
550.988	14.08
551.111	23.08
551.234	21.08
551.356	-4.92
551.479	20.08
551.602	12.08
551.725	15.08
551.848	32.08
551.971	24.08
552.094	16.08
552.217	5.08
552.34	-0.92
552.463	-2.92
552.586	-1.92
552.709	1.08
552.832	17.08
552.955	31.08
553.077	32.08
553.2	19.08
553.323	4.08
553.446	16.08
553.569	9.08
553.692	9.08
553.815	10.08
553.938	19.08
554.061	28.08
554.184	21.08
554.306	28.08
554.429	25.08
554.552	3.08
554.675	-7.92
554.798	1.08
554.921	10.08
555.044	0.08
555.167	-4.92
555.29	7.08
555.412	10.08
555.535	27.08
555.658	4.08
555.781	22.08
555.904	23.08
556.027	24.08
556.15	21.08
556.272	10.08
556.395	17.08
556.518	8.08
556.641	14.08
556.764	20.08
556.887	16.08
557.01	4.08
557.132	-1.92
557.255	13.08
557.378	28.08
557.501	9.08
557.624	19.08
557.747	12.08
557.869	14.08
557.992	26.08
558.115	9.08
558.238	-0.92
558.361	29.08
558.483	22.08
558.606	13.08
558.729	9.08
558.852	30.08
558.975	10.08
559.098	25.08
559.22	27.08
559.343	26.08
559.466	13.08
559.589	-5.92
559.712	-5.92
559.834	18.08
559.957	5.08
560.08	14.08
560.203	29.08
560.325	30.08
560.448	22.08
560.571	6.08
560.694	9.08
560.817	20.08
560.939	19.08
561.062	11.08
561.185	-8.92
561.308	6.08
561.43	5.08
561.553	11.08
561.676	7.08
561.799	15.08
561.921	4.08
562.044	1.08
562.167	-3.92
562.29	33.08
562.413	25.08
562.535	35.08
562.658	-14.92
562.781	2.08
562.903	5.08
563.026	1.08
563.149	43.08
563.272	15.08
563.394	24.08
563.517	3.08
563.64	12.08
563.763	0.08
563.885	16.08
564.008	37.08
564.131	16.08
564.254	7.08
564.376	4.08
564.499	-21.92
564.622	21.08
564.744	27.08
564.867	3.08
564.99	6.08
565.113	12.08
565.235	9.08
565.358	7.08
565.481	3.08
565.603	-4.92
565.726	-8.92
565.849	13.08
565.971	35.08
566.094	8.08
566.217	12.08
566.34	10.08
566.462	11.08
566.585	10.08
566.708	20.08
566.83	7.08
566.953	22.08
567.076	12.08
567.198	10.08
567.321	4.08
567.444	27.08
567.566	21.08
567.689	-7.92
567.812	-1.92
567.934	7.08
568.057	-3.92
568.18	8.08
568.302	24.08
568.425	-4.92
568.548	11.08
568.67	12.08
568.793	25.08
568.916	11.08
569.038	9.08
569.161	31.08
569.283	12.08
569.406	2.08
569.529	4.08
569.651	4.08
569.774	-3.92
569.897	10.08
570.019	23.08
570.142	20.08
570.265	13.08
570.387	23.08
570.51	30.08
570.632	20.08
570.755	12.08
570.878	2.08
571	15.08
571.123	4.08
571.246	29.08
571.368	8.08
571.491	15.08
571.613	26.08
571.736	0.08
571.859	8.08
571.981	1.08
572.104	4.08
572.226	24.08
572.349	-7.92
572.472	1.08
572.594	29.08
572.717	17.08
572.839	20.08
572.962	17.08
573.085	16.08
573.207	21.08
573.33	12.08
573.452	32.08
573.575	30.08
573.697	13.08
573.82	10.08
573.943	1.08
574.065	20.08
574.188	15.08
574.31	19.08
574.433	18.08
574.555	41.08
574.678	16.08
574.801	27.08
574.923	7.08
575.046	16.08
575.168	17.08
575.291	23.08
575.413	0.08
575.536	20.08
575.659	14.08
575.781	3.08
575.904	7.08
576.026	33.08
576.149	22.08
576.271	23.08
576.394	10.08
576.516	6.08
576.639	26.08
576.761	8.08
576.884	10.08
577.007	14.08
577.129	20.08
577.252	20.08
577.374	33.08
577.497	13.08
577.619	16.08
577.742	-0.92
577.864	20.08
577.987	9.08
578.109	27.08
578.232	18.08
578.354	37.08
578.477	14.08
578.599	1.08
578.722	0.08
578.844	3.08
578.967	37.08
579.089	13.08
579.212	-2.92
579.334	11.08
579.457	5.08
579.579	16.08
579.702	-3.92
579.824	-10.92
579.947	-6.92
580.069	-2.92
580.192	9.08
580.314	30.08
580.437	20.08
580.559	44.08
580.682	12.08
580.804	22.08
580.927	19.08
581.049	32.08
581.172	15.08
581.294	22.08
581.417	24.08
581.539	23.08
581.662	33.08
581.784	23.08
581.907	10.08
582.029	21.08
582.152	-2.92
582.274	17.08
582.396	6.08
582.519	37.08
582.641	-5.92
582.764	-1.92
582.886	45.08
583.009	20.08
583.131	25.08
583.254	18.08
583.376	25.08
583.499	16.08
583.621	13.08
583.743	14.08
583.866	14.08
583.988	17.08
584.111	31.08
584.233	15.08
584.356	23.08
584.478	7.08
584.601	-4.92
584.723	11.08
584.845	25.08
584.968	0.08
585.09	5.08
585.213	42.08
585.335	15.08
585.458	11.08
585.58	12.08
585.702	30.08
585.825	21.08
585.947	8.08
586.07	-1.92
586.192	8.08
586.315	16.08
586.437	-7.92
586.559	9.08
586.682	3.08
586.804	13.08
586.927	8.08
587.049	1.08
587.171	22.08
587.294	24.08
587.416	22.08
587.539	3.08
587.661	-3.92
587.783	-2.92
587.906	1.08
588.028	25.08
588.151	49.08
588.273	24.08
588.395	23.08
588.518	10.08
588.64	6.08
588.763	38.08
588.885	14.08
589.007	4.08
589.13	0.08
589.252	2.08
589.375	6.08
589.497	23.08
589.619	5.08
589.742	11.08
589.864	27.08
589.986	14.08
590.109	14.08
590.231	4.08
590.354	17.08
590.476	17.08
590.598	13.08
590.721	13.08
590.843	7.08
590.965	15.08
591.088	25.08
591.21	15.08
591.332	25.08
591.455	14.08
591.577	-0.92
591.7	2.08
591.822	17.08
591.944	21.08
592.067	20.08
592.189	22.08
592.311	28.08
592.434	1.08
592.556	8.08
592.678	10.08
592.801	21.08
592.923	1.08
593.045	17.08
593.168	18.08
593.29	14.08
593.412	20.08
593.535	0.08
593.657	5.08
593.779	28.08
593.902	14.08
594.024	21.08
594.146	26.08
594.269	19.08
594.391	4.08
594.513	30.08
594.636	25.08
594.758	3.08
594.88	16.08
595.003	21.08
595.125	3.08
595.247	33.08
595.37	15.08
595.492	9.08
595.614	28.08
595.737	9.08
595.859	2.08
595.981	25.08
596.104	32.08
596.226	20.08
596.348	25.08
596.471	13.08
596.593	11.08
596.715	11.08
596.838	7.08
596.96	7.08
597.082	28.08
597.204	23.08
597.327	21.08
597.449	24.08
597.571	27.08
597.694	13.08
597.816	6.08
597.938	5.08
598.061	19.08
598.183	18.08
598.305	27.08
598.427	24.08
598.55	27.08
598.672	29.08
598.794	16.08
598.917	9.08
599.039	26.08
599.161	15.08
599.283	-6.92
599.406	16.08
599.528	24.08
599.65	6.08
599.773	4.08
599.895	30.08
600.017	29.08
600.139	11.08
600.262	2.08
600.384	17.08
600.506	7.08
600.628	19.08
600.751	20.08
600.873	16.08
600.995	2.08
601.118	35.08
601.24	8.08
601.362	37.08
601.484	30.08
601.607	11.08
601.729	15.08
601.851	4.08
601.973	6.08
602.096	-1.92
602.218	24.08
602.34	23.08
602.462	30.08
602.585	4.08
602.707	4.08
602.829	11.08
602.951	4.08
603.074	-4.92
603.196	28.08
603.318	9.08
603.44	23.08
603.563	8.08
603.685	-2.92
603.807	18.08
603.929	13.08
604.052	4.08
604.174	24.08
604.296	7.08
604.418	40.08
604.541	39.08
604.663	0.08
604.785	30.08
604.907	33.08
605.03	7.08
605.152	40.08
605.274	-1.92
605.396	22.08
605.519	19.08
605.641	9.08
605.763	5.08
605.885	7.08
606.008	10.08
606.13	3.08
606.252	28.08
606.374	0.08
606.496	-7.92
606.619	12.08
606.741	6.08
606.863	43.08
606.985	13.08
607.108	17.08
607.23	19.08
607.352	-12.92
607.474	12.08
607.596	9.08
607.719	7.08
607.841	25.08
607.963	-0.92
608.085	1.08
608.207	27.08
608.33	9.08
608.452	-1.92
608.574	13.08
608.696	36.08
608.819	18.08
608.941	4.08
609.063	3.08
609.185	2.08
609.307	30.08
609.43	30.08
609.552	28.08
609.674	0.08
609.796	7.08
609.918	24.08
610.041	6.08
610.163	1.08
610.285	14.08
610.407	7.08
610.529	-7.92
610.652	19.08
610.774	21.08
610.896	7.08
611.018	16.08
611.14	1.08
611.263	10.08
611.385	8.08
611.507	36.08
611.629	6.08
611.751	25.08
611.873	41.08
611.996	17.08
612.118	20.08
612.24	10.08
612.362	24.08
612.484	31.08
612.607	24.08
612.729	38.08
612.851	35.08
612.973	13.08
613.095	11.08
613.218	18.08
613.34	18.08
613.462	18.08
613.584	20.08
613.706	24.08
613.828	47.08
613.951	15.08
614.073	3.08
614.195	3.08
614.317	17.08
614.439	19.08
614.561	23.08
614.684	29.08
614.806	21.08
614.928	24.08
615.05	17.08
615.172	23.08
615.294	28.08
615.417	21.08
615.539	1.08
615.661	20.08
615.783	17.08
615.905	35.08
616.027	58.08
616.15	105.08
616.272	103.08
616.394	59.08
616.516	45.08
616.638	29.08
616.76	20.08
616.883	4.08
617.005	1.08
617.127	15.08
617.249	14.08
617.371	20.08
617.493	18.08
617.615	6.08
617.738	16.08
617.86	21.08
617.982	12.08
618.104	2.08
618.226	3.08
618.348	-0.92
618.471	19.08
618.593	20.08
618.715	16.08
618.837	-4.92
618.959	25.08
619.081	30.08
619.203	19.08
619.326	17.08
619.448	13.08
619.57	30.08
619.692	11.08
619.814	16.08
619.936	28.08
620.058	23.08
620.181	30.08
620.303	1.08
620.425	12.08
620.547	16.08
620.669	11.08
620.791	7.08
620.913	8.08
621.036	-3.92
621.158	18.08
621.28	32.08
621.402	2.08
621.524	15.08
621.646	23.08
621.768	-3.92
621.891	1.08
622.013	12.08
622.135	0.08
622.257	-7.92
622.379	3.08
622.501	23.08
622.623	23.08
622.745	4.08
622.868	19.08
622.99	16.08
623.112	4.08
623.234	0.08
623.356	16.08
623.478	3.08
623.6	25.08
623.722	8.08
623.845	3.08
623.967	19.08
624.089	12.08
624.211	1.08
624.333	3.08
624.455	19.08
624.577	16.08
624.699	39.08
624.822	16.08
624.944	15.08
625.066	12.08
625.188	3.08
625.31	3.08
625.432	39.08
625.554	30.08
625.676	46.08
625.799	8.08
625.921	30.08
626.043	22.08
626.165	8.08
626.287	-3.92
626.409	18.08
626.531	7.08
626.653	16.08
626.775	16.08
626.898	27.08
627.02	14.08
627.142	15.08
627.264	0.08
627.386	11.08
627.508	22.08
627.63	-5.92
627.752	10.08
627.874	6.08
627.997	1.08
628.119	23.08
628.241	21.08
628.363	17.08
628.485	3.08
628.607	8.08
628.729	15.08
628.851	4.08
628.973	13.08
629.096	-14.92
629.218	5.08
629.34	13.08
629.462	6.08
629.584	9.08
629.706	11.08
629.828	17.08
629.95	10.08
630.072	3.08
630.195	4.08
630.317	2.08
630.439	12.08
630.561	29.08
630.683	11.08
630.805	12.08
630.927	15.08
631.049	20.08
631.171	-2.92
631.293	4.08
631.416	12.08
631.538	21.08
631.66	0.08
631.782	48.08
631.904	24.08
632.026	-6.92
632.148	11.08
632.27	17.08
632.392	13.08
632.514	13.08
632.637	19.08
632.759	15.08
632.881	-0.92
633.003	9.08
633.125	9.08
633.247	2.08
633.369	19.08
633.491	10.08
633.613	21.08
633.735	-1.92
633.858	21.08
633.98	10.08
634.102	-13.92
634.224	3.08
634.346	13.08
634.468	26.08
634.59	17.08
634.712	27.08
634.834	30.08
634.956	9.08
635.078	0.08
635.201	5.08
635.323	4.08
635.445	-3.92
635.567	-4.92
635.689	19.08
635.811	1.08
635.933	13.08
636.055	1.08
636.177	8.08
636.299	31.08
636.421	4.08
636.544	-16.92
636.666	9.08
636.788	7.08
636.91	2.08
637.032	13.08
637.154	-0.92
637.276	51.08
637.398	22.08
637.52	21.08
637.642	8.08
637.764	19.08
637.887	19.08
638.009	9.08
638.131	7.08
638.253	7.08
638.375	7.08
638.497	21.08
638.619	12.08
638.741	3.08
638.863	2.08
638.985	6.08
639.107	5.08
639.23	1.08
639.352	31.08
639.474	10.08
639.596	-0.92
639.718	-2.92
639.84	22.08
639.962	5.08
640.084	18.08
640.206	26.08
640.328	10.08
640.45	9.08
640.573	5.08
640.695	10.08
640.817	17.08
640.939	22.08
641.061	7.08
641.183	-0.92
641.305	12.08
641.427	-4.92
641.549	2.08
641.671	7.08
641.793	10.08
641.915	28.08
642.038	14.08
642.16	6.08
642.282	9.08
642.404	10.08
642.526	11.08
642.648	-8.92
642.77	15.08
642.892	6.08
643.014	20.08
643.136	23.08
643.258	1.08
643.381	22.08
643.503	11.08
643.625	15.08
643.747	-2.92
643.869	6.08
643.991	17.08
644.113	18.08
644.235	13.08
644.357	16.08
644.479	30.08
644.601	5.08
644.723	19.08
644.846	40.08
644.968	29.08
645.09	4.08
645.212	9.08
645.334	9.08
645.456	8.08
645.578	16.08
645.7	13.08
645.822	27.08
645.944	13.08
646.066	11.08
646.188	-3.92
646.311	43.08
646.433	17.08
646.555	42.08
646.677	59.08
646.799	35.08
646.921	18.08
647.043	47.08
647.165	3.08
647.287	20.08
647.409	7.08
647.531	21.08
647.654	16.08
647.776	31.08
647.898	18.08
648.02	13.08
648.142	17.08
648.264	-4.92
648.386	-1.92
648.508	13.08
648.63	13.08
648.752	41.08
648.874	6.08
648.997	16.08
649.119	17.08
649.241	0.08
649.363	24.08
649.485	28.08
649.607	8.08
649.729	5.08
649.851	9.08
649.973	-4.92
650.095	15.08
650.217	-3.92
650.34	-1.92
650.462	6.08
650.584	22.08
650.706	19.08
650.828	14.08
650.95	8.08
651.072	19.08
651.194	10.08
651.316	28.08
651.438	5.08
651.56	-7.92
651.683	6.08
651.805	11.08
651.927	15.08
652.049	6.08
652.171	17.08
652.293	0.08
652.415	7.08
652.537	6.08
652.659	28.08
652.781	5.08
652.903	24.08
653.026	51.08
653.148	26.08
653.27	25.08
653.392	25.08
653.514	9.08
653.636	-3.92
653.758	21.08
653.88	17.08
654.002	7.08
654.124	11.08
654.247	14.08
654.369	27.08
654.491	15.08
654.613	17.08
654.735	1.08
654.857	30.08
654.979	9.08
655.101	34.08
655.223	62.08
655.345	20.08
655.468	24.08
655.59	17.08
655.712	34.08
655.834	12.08
655.956	40.08
656.078	32.08
656.2	44.08
656.322	37.08
656.444	25.08
656.566	60.08
656.689	57.08
656.811	67.08
656.933	96.08
657.055	90.08
657.177	176.08
657.299	249.08
657.421	472.08
657.543	1881.08
657.665	12528.08
657.787	15173.08
657.91	15246.08
658.032	15666.08
658.154	4594.08
658.276	3433.08
658.398	1167.08
658.52	1050.08
658.642	491.08
658.764	586.08
658.886	295.08
659.009	414.08
659.131	220.08
659.253	320.08
659.375	164.08
659.497	259.08
659.619	140.08
659.741	205.08
659.863	109.08
659.985	187.08
660.108	96.08
660.23	142.08
660.352	75.08
660.474	140.08
660.596	84.08
660.718	124.08
660.84	56.08
660.962	109.08
661.084	56.08
661.207	114.08
661.329	62.08
661.451	95.08
661.573	41.08
661.695	122.08
661.817	64.08
661.939	110.08
662.061	91.08
662.184	86.08
662.306	50.08
662.428	56.08
662.55	35.08
662.672	75.08
662.794	45.08
662.916	70.08
663.038	40.08
663.161	71.08
663.283	47.08
663.405	74.08
663.527	18.08
663.649	74.08
663.771	29.08
663.893	52.08
664.015	29.08
664.138	56.08
664.26	36.08
664.382	46.08
664.504	24.08
664.626	41.08
664.748	18.08
664.87	28.08
664.992	23.08
665.115	55.08
665.237	19.08
665.359	23.08
665.481	34.08
665.603	53.08
665.725	14.08
665.847	19.08
665.97	28.08
666.092	61.08
666.214	32.08
666.336	51.08
666.458	52.08
666.58	45.08
666.702	20.08
666.825	39.08
666.947	4.08
667.069	24.08
667.191	7.08
667.313	43.08
667.435	13.08
667.557	18.08
667.68	0.08
667.802	38.08
667.924	8.08
668.046	55.08
668.168	11.08
668.29	48.08
668.412	27.08
668.535	35.08
668.657	19.08
668.779	16.08
668.901	25.08
669.023	51.08
669.145	33.08
669.267	53.08
669.39	25.08
669.512	35.08
669.634	12.08
669.756	19.08
669.878	33.08
670	47.08
670.123	14.08
670.245	35.08
670.367	15.08
670.489	38.08
670.611	16.08
670.733	35.08
670.856	12.08
670.978	16.08
671.1	22.08
671.222	43.08
671.344	26.08
671.466	24.08
671.589	16.08
671.711	39.08
671.833	23.08
671.955	23.08
672.077	17.08
672.199	43.08
672.322	45.08
672.444	29.08
672.566	38.08
672.688	24.08
672.81	15.08
672.932	41.08
673.055	13.08
673.177	14.08
673.299	21.08
673.421	-2.92
673.543	24.08
673.665	28.08
673.788	25.08
673.91	19.08
674.032	-5.92
674.154	23.08
674.276	21.08
674.399	32.08
674.521	27.08
674.643	26.08
674.765	22.08
674.887	33.08
675.009	5.08
675.132	8.08
675.254	13.08
675.376	17.08
675.498	25.08
675.62	37.08
675.743	28.08
675.865	35.08
675.987	9.08
676.109	26.08
676.231	18.08
676.354	37.08
676.476	13.08
676.598	24.08
676.72	6.08
676.842	19.08
676.965	0.08
677.087	30.08
677.209	21.08
677.331	32.08
677.453	22.08
677.576	32.08
677.698	21.08
677.82	9.08
677.942	-5.92
678.064	27.08
678.187	30.08
678.309	11.08
678.431	9.08
678.553	17.08
678.675	34.08
678.798	25.08
678.92	18.08
679.042	14.08
679.164	6.08
679.286	24.08
679.409	3.08
679.531	7.08
679.653	5.08
679.775	15.08
679.898	-4.92
680.02	13.08
680.142	-2.92
680.264	16.08
680.386	-9.92
680.509	29.08
680.631	17.08
680.753	16.08
680.875	-0.92
680.998	-2.92
681.12	-1.92
681.242	12.08
681.364	-15.92
681.486	23.08
681.609	0.08
681.731	3.08
681.853	-0.92
681.975	10.08
682.098	21.08
682.22	35.08
682.342	3.08
682.464	46.08
682.587	6.08
682.709	13.08
682.831	9.08
682.953	4.08
683.076	26.08
683.198	19.08
683.32	9.08
683.442	27.08
683.565	27.08
683.687	14.08
683.809	5.08
683.931	8.08
684.054	35.08
684.176	14.08
684.298	12.08
684.42	17.08
684.543	12.08
684.665	11.08
684.787	-1.92
684.909	-3.92
685.032	1.08
685.154	-10.92
685.276	14.08
685.398	7.08
685.521	-0.92
685.643	20.08
685.765	10.08
685.887	24.08
686.01	18.08
686.132	10.08
686.254	44.08
686.377	31.08
686.499	7.08
686.621	22.08
686.743	22.08
686.866	20.08
686.988	42.08
687.11	37.08
687.232	5.08
687.355	-8.92
687.477	6.08
687.599	33.08
687.722	19.08
687.844	18.08
687.966	16.08
688.088	31.08
688.211	37.08
688.333	23.08
688.455	12.08
688.578	23.08
688.7	13.08
688.822	28.08
688.944	1.08
689.067	36.08
689.189	13.08
689.311	15.08
689.434	3.08
689.556	25.08
689.678	7.08
689.801	8.08
689.923	6.08
690.045	32.08
690.167	37.08
690.29	29.08
690.412	-5.92
690.534	19.08
690.657	17.08
690.779	8.08
690.901	27.08
691.024	5.08
691.146	20.08
691.268	11.08
691.391	23.08
691.513	27.08
691.635	21.08
691.758	34.08
691.88	27.08
692.002	12.08
692.125	5.08
692.247	28.08
692.369	-1.92
692.492	-18.92
692.614	0.08
692.736	7.08
692.859	-3.92
692.981	1.08
693.103	0.08
693.226	14.08
693.348	30.08
693.47	19.08
693.593	23.08
693.715	14.08
693.837	7.08
693.96	9.08
694.082	11.08
694.204	15.08
694.327	18.08
694.449	7.08
694.571	25.08
694.694	15.08
694.816	5.08
694.938	-1.92
695.061	20.08
695.183	17.08
695.305	14.08
695.428	35.08
695.55	12.08
695.672	-8.92
695.795	27.08
695.917	48.08
696.04	10.08
696.162	-6.92
696.284	12.08
696.407	2.08
696.529	13.08
696.651	25.08
696.774	7.08
696.896	13.08
697.019	17.08
697.141	12.08
697.263	4.08
697.386	3.08
697.508	2.08
697.63	18.08
697.753	30.08
697.875	3.08
697.998	5.08
698.12	20.08
698.242	5.08
698.365	11.08
698.487	0.08
698.61	-3.92
698.732	-4.92
698.854	12.08
698.977	11.08
699.099	29.08
699.221	-0.92
699.344	7.08
699.466	10.08
699.589	19.08
699.711	6.08
699.834	-5.92
699.956	3.08
700.078	15.08
700.201	6.08
700.323	36.08
700.446	9.08
700.568	0.08
700.69	11.08
700.813	17.08
700.935	-4.92
701.058	14.08
701.18	13.08
701.302	-5.92
701.425	1.08
701.547	26.08
701.67	7.08
701.792	-2.92
701.915	11.08
702.037	0.08
702.159	6.08
702.282	9.08
702.404	15.08
702.527	36.08
702.649	29.08
702.772	29.08
702.894	23.08
703.017	24.08
703.139	14.08
703.261	24.08
703.384	20.08
703.506	6.08
703.629	1.08
703.751	19.08
703.874	5.08
703.996	12.08
704.119	4.08
704.241	16.08
704.364	-0.92
704.486	13.08
704.608	19.08
704.731	20.08
704.853	22.08
704.976	19.08
705.098	10.08
705.221	12.08
705.343	5.08
705.466	16.08
705.588	5.08
705.711	7.08
705.833	10.08
705.956	18.08
706.078	10.08
706.201	4.08
706.323	-0.92
706.446	24.08
