Data from LowRes_H2_15_26_11_07_2024_HR4C61881__59__15-28-19-539.txt Node

Date: Thu Nov 07 15:28:19 EST 2024
User: crc00042
Spectrometer: HR4C6188
Trigger mode: 4
Integration Time (sec): 1.000000E-1
Scans to average: 1
Electric dark correction enabled: true
Nonlinearity correction enabled: false
Boxcar width: 0
XAxis mode: Wavelengths
Number of Pixels in Spectrum: 3648
>>>>>Begin Spectral Data<<<<<
245.66	-104.62
245.797	-104.62
245.934	-104.62
246.071	-87.62
246.208	19.38
246.344	3.38
246.481	1.38
246.618	-6.62
246.755	20.38
246.892	-4.62
247.029	-15.62
247.165	-7.62
247.302	10.38
247.439	6.38
247.576	12.38
247.713	-15.62
247.849	15.38
247.986	-19.62
248.123	-3.62
248.26	-13.62
248.396	11.38
248.533	9.38
248.67	7.38
248.806	14.38
248.943	9.38
249.08	11.38
249.216	18.38
249.353	-16.62
249.49	12.38
249.626	18.38
249.763	8.38
249.9	7.38
250.036	4.38
250.173	32.38
250.309	6.38
250.446	16.38
250.582	0.38
250.719	-17.62
250.856	-5.62
250.992	-7.62
251.129	4.38
251.265	-1.62
251.402	19.38
251.538	7.38
251.675	16.38
251.811	38.38
251.948	27.38
252.084	13.38
252.221	-8.62
252.357	-9.62
252.493	15.38
252.63	-9.62
252.766	30.38
252.903	5.38
253.039	-2.62
253.175	-2.62
253.312	19.38
253.448	1.38
253.585	-22.62
253.721	2.38
253.857	-15.62
253.994	5.38
254.13	3.38
254.266	17.38
254.403	14.38
254.539	4.38
254.675	3.38
254.811	14.38
254.948	17.38
255.084	15.38
255.22	5.38
255.356	0.38
255.493	16.38
255.629	18.38
255.765	6.38
255.901	12.38
256.037	28.38
256.174	25.38
256.31	6.38
256.446	10.38
256.582	-1.62
256.718	28.38
256.854	46.38
256.991	21.38
257.127	29.38
257.263	7.38
257.399	14.38
257.535	-8.62
257.671	-3.62
257.807	7.38
257.943	-13.62
258.079	7.38
258.215	4.38
258.351	29.38
258.487	25.38
258.623	20.38
258.759	-2.62
258.895	-6.62
259.031	-0.62
259.167	-7.62
259.303	44.38
259.439	17.38
259.575	10.38
259.711	4.38
259.847	6.38
259.983	20.38
260.119	12.38
260.255	-1.62
260.391	18.38
260.527	26.38
260.663	26.38
260.799	6.38
260.934	7.38
261.07	-4.62
261.206	-6.62
261.342	-7.62
261.478	37.38
261.614	14.38
261.749	-11.62
261.885	15.38
262.021	15.38
262.157	22.38
262.293	6.38
262.428	-1.62
262.564	6.38
262.7	11.38
262.836	5.38
262.971	22.38
263.107	31.38
263.243	29.38
263.378	16.38
263.514	-3.62
263.65	12.38
263.785	-12.62
263.921	1.38
264.057	10.38
264.192	-2.62
264.328	16.38
264.464	-5.62
264.599	21.38
264.735	25.38
264.871	-10.62
265.006	15.38
265.142	10.38
265.277	7.38
265.413	19.38
265.548	10.38
265.684	18.38
265.819	14.38
265.955	-24.62
266.091	-9.62
266.226	-11.62
266.362	1.38
266.497	28.38
266.633	-3.62
266.768	7.38
266.903	24.38
267.039	12.38
267.174	18.38
267.31	-3.62
267.445	-6.62
267.581	-0.62
267.716	17.38
267.851	6.38
267.987	18.38
268.122	23.38
268.258	-5.62
268.393	-1.62
268.528	11.38
268.664	-1.62
268.799	5.38
268.934	6.38
269.07	3.38
269.205	21.38
269.34	23.38
269.476	22.38
269.611	-20.62
269.746	19.38
269.881	8.38
270.017	26.38
270.152	5.38
270.287	15.38
270.422	32.38
270.558	-0.62
270.693	29.38
270.828	7.38
270.963	-6.62
271.098	-0.62
271.234	1.38
271.369	13.38
271.504	6.38
271.639	-0.62
271.774	13.38
271.909	-3.62
272.045	-13.62
272.18	-7.62
272.315	0.38
272.45	13.38
272.585	-0.62
272.72	6.38
272.855	3.38
272.99	25.38
273.125	-2.62
273.26	-9.62
273.395	-18.62
273.53	11.38
273.665	27.38
273.8	11.38
273.935	14.38
274.07	-1.62
274.205	4.38
274.34	5.38
274.475	-12.62
274.61	27.38
274.745	-0.62
274.88	37.38
275.015	-0.62
275.15	5.38
275.285	-3.62
275.42	1.38
275.555	20.38
275.69	16.38
275.825	-4.62
275.959	27.38
276.094	8.38
276.229	-0.62
276.364	0.38
276.499	1.38
276.634	3.38
276.768	9.38
276.903	-9.62
277.038	17.38
277.173	11.38
277.308	27.38
277.442	1.38
277.577	-9.62
277.712	8.38
277.847	-1.62
277.981	11.38
278.116	-17.62
278.251	-1.62
278.386	13.38
278.52	26.38
278.655	10.38
278.79	30.38
278.924	10.38
279.059	16.38
279.194	-7.62
279.328	46.38
279.463	1.38
279.598	22.38
279.732	23.38
279.867	15.38
280.001	21.38
280.136	-1.62
280.271	15.38
280.405	25.38
280.54	9.38
280.674	2.38
280.809	21.38
280.943	8.38
281.078	5.38
281.213	38.38
281.347	12.38
281.482	5.38
281.616	-6.62
281.751	9.38
281.885	-6.62
282.02	-7.62
282.154	14.38
282.288	-15.62
282.423	-14.62
282.557	-15.62
282.692	1.38
282.826	-8.62
282.961	27.38
283.095	2.38
283.229	10.38
283.364	-12.62
283.498	-5.62
283.633	7.38
283.767	11.38
283.901	-6.62
284.036	-6.62
284.17	2.38
284.304	16.38
284.439	12.38
284.573	7.38
284.707	16.38
284.842	6.38
284.976	-1.62
285.11	-13.62
285.244	7.38
285.379	50.38
285.513	-1.62
285.647	2.38
285.781	-3.62
285.916	18.38
286.05	11.38
286.184	21.38
286.318	25.38
286.453	5.38
286.587	-10.62
286.721	-9.62
286.855	18.38
286.989	19.38
287.123	3.38
287.258	-7.62
287.392	20.38
287.526	20.38
287.66	-0.62
287.794	8.38
287.928	12.38
288.062	19.38
288.196	3.38
288.33	2.38
288.464	40.38
288.598	10.38
288.733	23.38
288.867	28.38
289.001	4.38
289.135	6.38
289.269	-8.62
289.403	8.38
289.537	0.38
289.671	8.38
289.805	-1.62
289.939	3.38
290.073	0.38
290.207	23.38
290.34	7.38
290.474	21.38
290.608	15.38
290.742	10.38
290.876	10.38
291.01	3.38
291.144	26.38
291.278	25.38
291.412	14.38
291.546	2.38
291.679	-7.62
291.813	11.38
291.947	9.38
292.081	0.38
292.215	10.38
292.349	28.38
292.482	18.38
292.616	0.38
292.75	11.38
292.884	-1.62
293.018	1.38
293.151	-18.62
293.285	7.38
293.419	3.38
293.553	14.38
293.686	-7.62
293.82	-0.62
293.954	16.38
294.088	30.38
294.221	-5.62
294.355	0.38
294.489	0.38
294.622	-12.62
294.756	8.38
294.89	14.38
295.023	15.38
295.157	24.38
295.291	22.38
295.424	36.38
295.558	7.38
295.691	9.38
295.825	2.38
295.959	9.38
296.092	6.38
296.226	-6.62
296.359	8.38
296.493	24.38
296.627	16.38
296.76	6.38
296.894	-12.62
297.027	-9.62
297.161	-0.62
297.294	-7.62
297.428	-11.62
297.561	26.38
297.695	5.38
297.828	6.38
297.962	19.38
298.095	7.38
298.229	9.38
298.362	13.38
298.495	-15.62
298.629	-12.62
298.762	15.38
298.896	5.38
299.029	-4.62
299.162	13.38
299.296	16.38
299.429	7.38
299.563	9.38
299.696	-2.62
299.829	23.38
299.963	19.38
300.096	14.38
300.229	12.38
300.363	18.38
300.496	12.38
300.629	-1.62
300.763	-2.62
300.896	4.38
301.029	19.38
301.162	-11.62
301.296	8.38
301.429	0.38
301.562	-14.62
301.695	19.38
301.829	16.38
301.962	17.38
302.095	18.38
302.228	-16.62
302.362	5.38
302.495	-9.62
302.628	16.38
302.761	-0.62
302.894	19.38
303.027	11.38
303.161	-2.62
303.294	8.38
303.427	20.38
303.56	0.38
303.693	-1.62
303.826	2.38
303.959	2.38
304.092	6.38
304.225	3.38
304.359	20.38
304.492	9.38
304.625	-0.62
304.758	15.38
304.891	5.38
305.024	2.38
305.157	-6.62
305.29	3.38
305.423	11.38
305.556	11.38
305.689	18.38
305.822	11.38
305.955	10.38
306.088	16.38
306.221	23.38
306.354	-9.62
306.487	-6.62
306.62	3.38
306.752	-2.62
306.885	9.38
307.018	14.38
307.151	8.38
307.284	14.38
307.417	14.38
307.55	9.38
307.683	3.38
307.816	22.38
307.948	15.38
308.081	9.38
308.214	7.38
308.347	35.38
308.48	-1.62
308.613	2.38
308.745	16.38
308.878	-13.62
309.011	0.38
309.144	18.38
309.277	3.38
309.409	21.38
309.542	14.38
309.675	35.38
309.808	20.38
309.94	26.38
310.073	-2.62
310.206	6.38
310.339	1.38
310.471	-5.62
310.604	22.38
310.737	23.38
310.869	11.38
311.002	8.38
311.135	-2.62
311.267	-7.62
311.4	-1.62
311.533	28.38
311.665	6.38
311.798	13.38
311.93	14.38
312.063	-0.62
312.196	12.38
312.328	-3.62
312.461	0.38
312.593	-2.62
312.726	46.38
312.859	21.38
312.991	1.38
313.124	-6.62
313.256	10.38
313.389	-3.62
313.521	1.38
313.654	20.38
313.786	7.38
313.919	2.38
314.051	-6.62
314.184	11.38
314.316	0.38
314.449	-13.62
314.581	18.38
314.714	19.38
314.846	19.38
314.978	7.38
315.111	-16.62
315.243	8.38
315.376	15.38
315.508	11.38
315.641	3.38
315.773	2.38
315.905	15.38
316.038	13.38
316.17	17.38
316.302	13.38
316.435	6.38
316.567	-7.62
316.699	29.38
316.832	-9.62
316.964	-5.62
317.096	13.38
317.229	9.38
317.361	-1.62
317.493	6.38
317.625	26.38
317.758	27.38
317.89	16.38
318.022	16.38
318.155	-4.62
318.287	-1.62
318.419	23.38
318.551	11.38
318.683	10.38
318.816	-12.62
318.948	-16.62
319.08	-0.62
319.212	12.38
319.344	8.38
319.477	9.38
319.609	27.38
319.741	25.38
319.873	1.38
320.005	-4.62
320.137	12.38
320.269	7.38
320.401	6.38
320.534	-4.62
320.666	-1.62
320.798	-12.62
320.93	2.38
321.062	-7.62
321.194	-6.62
321.326	13.38
321.458	13.38
321.59	7.38
321.722	11.38
321.854	15.38
321.986	12.38
322.118	4.38
322.25	-10.62
322.382	-10.62
322.514	-9.62
322.646	-4.62
322.778	5.38
322.91	4.38
323.042	15.38
323.174	21.38
323.306	-12.62
323.438	-29.62
323.57	7.38
323.702	10.38
323.834	-1.62
323.966	-24.62
324.097	3.38
324.229	17.38
324.361	17.38
324.493	13.38
324.625	-9.62
324.757	16.38
324.889	4.38
325.021	3.38
325.152	11.38
325.284	21.38
325.416	0.38
325.548	-0.62
325.68	-4.62
325.811	10.38
325.943	8.38
326.075	5.38
326.207	5.38
326.339	8.38
326.47	9.38
326.602	11.38
326.734	21.38
326.866	28.38
326.997	-9.62
327.129	-2.62
327.261	-6.62
327.392	-13.62
327.524	14.38
327.656	17.38
327.787	14.38
327.919	11.38
328.051	18.38
328.182	32.38
328.314	43.38
328.446	15.38
328.577	30.38
328.709	18.38
328.841	-2.62
328.972	-4.62
329.104	5.38
329.235	-13.62
329.367	-0.62
329.499	-8.62
329.63	28.38
329.762	-3.62
329.893	30.38
330.025	9.38
330.156	-11.62
330.288	2.38
330.419	25.38
330.551	6.38
330.683	10.38
330.814	3.38
330.946	24.38
331.077	0.38
331.208	10.38
331.34	5.38
331.471	2.38
331.603	1.38
331.734	-21.62
331.866	6.38
331.997	9.38
332.129	-0.62
332.26	1.38
332.392	16.38
332.523	-6.62
332.654	-6.62
332.786	19.38
332.917	-0.62
333.048	14.38
333.18	27.38
333.311	-7.62
333.443	8.38
333.574	2.38
333.705	23.38
333.837	1.38
333.968	9.38
334.099	22.38
334.231	17.38
334.362	12.38
334.493	24.38
334.624	19.38
334.756	18.38
334.887	9.38
335.018	10.38
335.15	30.38
335.281	1.38
335.412	39.38
335.543	34.38
335.675	11.38
335.806	-2.62
335.937	-4.62
336.068	13.38
336.199	33.38
336.331	3.38
336.462	-8.62
336.593	17.38
336.724	4.38
336.855	7.38
336.986	18.38
337.118	21.38
337.249	5.38
337.38	43.38
337.511	5.38
337.642	-1.62
337.773	19.38
337.904	23.38
338.035	14.38
338.166	0.38
338.298	4.38
338.429	-13.62
338.56	11.38
338.691	20.38
338.822	17.38
338.953	14.38
339.084	27.38
339.215	25.38
339.346	1.38
339.477	19.38
339.608	-2.62
339.739	9.38
339.87	6.38
340.001	-4.62
340.132	20.38
340.263	2.38
340.394	18.38
340.525	14.38
340.656	0.38
340.787	-23.62
340.918	14.38
341.049	19.38
341.179	5.38
341.31	17.38
341.441	10.38
341.572	21.38
341.703	9.38
341.834	1.38
341.965	38.38
342.096	20.38
342.227	9.38
342.357	8.38
342.488	-2.62
342.619	2.38
342.75	9.38
342.881	-2.62
343.012	42.38
343.142	14.38
343.273	1.38
343.404	0.38
343.535	23.38
343.666	5.38
343.796	29.38
343.927	30.38
344.058	25.38
344.189	25.38
344.319	10.38
344.45	7.38
344.581	6.38
344.712	-20.62
344.842	3.38
344.973	19.38
345.104	4.38
345.234	-2.62
345.365	-5.62
345.496	9.38
345.626	19.38
345.757	4.38
345.888	-7.62
346.018	18.38
346.149	9.38
346.28	21.38
346.41	10.38
346.541	9.38
346.672	9.38
346.802	6.38
346.933	21.38
347.063	21.38
347.194	21.38
347.325	9.38
347.455	10.38
347.586	14.38
347.716	6.38
347.847	10.38
347.977	22.38
348.108	12.38
348.238	17.38
348.369	-0.62
348.499	21.38
348.63	14.38
348.76	11.38
348.891	25.38
349.021	11.38
349.152	-0.62
349.282	17.38
349.413	-9.62
349.543	25.38
349.674	2.38
349.804	26.38
349.935	3.38
350.065	-17.62
350.196	-2.62
350.326	6.38
350.456	20.38
350.587	8.38
350.717	14.38
350.848	29.38
350.978	13.38
351.108	-14.62
351.239	14.38
351.369	-11.62
351.499	4.38
351.63	20.38
351.76	25.38
351.89	30.38
352.021	20.38
352.151	0.38
352.281	12.38
352.412	11.38
352.542	17.38
352.672	17.38
352.803	15.38
352.933	18.38
353.063	16.38
353.193	14.38
353.324	19.38
353.454	11.38
353.584	17.38
353.714	16.38
353.845	16.38
353.975	9.38
354.105	9.38
354.235	-0.62
354.365	6.38
354.496	-3.62
354.626	8.38
354.756	17.38
354.886	-2.62
355.016	30.38
355.146	11.38
355.277	1.38
355.407	-8.62
355.537	40.38
355.667	27.38
355.797	29.38
355.927	12.38
356.057	31.38
356.187	-3.62
356.318	-2.62
356.448	3.38
356.578	6.38
356.708	14.38
356.838	10.38
356.968	-7.62
357.098	16.38
357.228	21.38
357.358	-1.62
357.488	9.38
357.618	40.38
357.748	8.38
357.878	20.38
358.008	1.38
358.138	1.38
358.268	36.38
358.398	21.38
358.528	-11.62
358.658	7.38
358.788	22.38
358.918	16.38
359.048	17.38
359.178	15.38
359.308	15.38
359.438	23.38
359.568	18.38
359.698	11.38
359.827	10.38
359.957	24.38
360.087	13.38
360.217	3.38
360.347	23.38
360.477	15.38
360.607	1.38
360.737	37.38
360.866	-13.62
360.996	1.38
361.126	-7.62
361.256	32.38
361.386	24.38
361.516	16.38
361.645	-5.62
361.775	27.38
361.905	-24.62
362.035	2.38
362.165	18.38
362.294	16.38
362.424	25.38
362.554	20.38
362.684	-13.62
362.813	12.38
362.943	15.38
363.073	17.38
363.203	24.38
363.332	17.38
363.462	-17.62
363.592	25.38
363.721	-2.62
363.851	4.38
363.981	11.38
364.111	17.38
364.24	6.38
364.37	8.38
364.5	22.38
364.629	4.38
364.759	-7.62
364.888	5.38
365.018	5.38
365.148	17.38
365.277	-0.62
365.407	13.38
365.537	14.38
365.666	36.38
365.796	15.38
365.925	0.38
366.055	10.38
366.184	0.38
366.314	11.38
366.444	32.38
366.573	22.38
366.703	-1.62
366.832	24.38
366.962	0.38
367.091	13.38
367.221	35.38
367.35	3.38
367.48	53.38
367.609	19.38
367.739	11.38
367.868	5.38
367.998	2.38
368.127	21.38
368.257	39.38
368.386	45.38
368.516	20.38
368.645	10.38
368.775	23.38
368.904	18.38
369.033	-16.62
369.163	-11.62
369.292	15.38
369.422	19.38
369.551	28.38
369.68	16.38
369.81	26.38
369.939	0.38
370.069	32.38
370.198	6.38
370.327	6.38
370.457	1.38
370.586	16.38
370.715	-1.62
370.845	-0.62
370.974	17.38
371.103	19.38
371.233	23.38
371.362	23.38
371.491	-7.62
371.621	29.38
371.75	6.38
371.879	10.38
372.008	19.38
372.138	3.38
372.267	-0.62
372.396	4.38
372.525	10.38
372.655	15.38
372.784	3.38
372.913	6.38
373.042	20.38
373.172	55.38
373.301	-2.62
373.43	6.38
373.559	10.38
373.688	31.38
373.818	9.38
373.947	26.38
374.076	10.38
374.205	7.38
374.334	-0.62
374.463	-11.62
374.593	7.38
374.722	10.38
374.851	22.38
374.98	-0.62
375.109	-0.62
375.238	5.38
375.367	35.38
375.496	-20.62
375.625	-0.62
375.755	13.38
375.884	29.38
376.013	26.38
376.142	-5.62
376.271	-21.62
376.4	24.38
376.529	16.38
376.658	18.38
376.787	-1.62
376.916	11.38
377.045	2.38
377.174	17.38
377.303	4.38
377.432	14.38
377.561	14.38
377.69	17.38
377.819	38.38
377.948	7.38
378.077	6.38
378.206	-7.62
378.335	16.38
378.464	6.38
378.593	26.38
378.722	-9.62
378.851	5.38
378.98	23.38
379.108	20.38
379.237	10.38
379.366	17.38
379.495	24.38
379.624	22.38
379.753	12.38
379.882	20.38
380.011	10.38
380.14	5.38
380.268	13.38
380.397	10.38
380.526	32.38
380.655	16.38
380.784	-12.62
380.913	3.38
381.041	-3.62
381.17	-9.62
381.299	-2.62
381.428	20.38
381.557	10.38
381.685	1.38
381.814	25.38
381.943	16.38
382.072	0.38
382.2	11.38
382.329	8.38
382.458	14.38
382.587	37.38
382.715	22.38
382.844	7.38
382.973	19.38
383.102	2.38
383.23	12.38
383.359	5.38
383.488	28.38
383.616	-7.62
383.745	-6.62
383.874	12.38
384.003	11.38
384.131	-0.62
384.26	8.38
384.389	22.38
384.517	-1.62
384.646	-1.62
384.774	2.38
384.903	31.38
385.032	24.38
385.16	-5.62
385.289	1.38
385.418	23.38
385.546	11.38
385.675	19.38
385.803	13.38
385.932	17.38
386.06	-5.62
386.189	17.38
386.318	3.38
386.446	-7.62
386.575	31.38
386.703	19.38
386.832	21.38
386.96	1.38
387.089	27.38
387.217	8.38
387.346	2.38
387.474	10.38
387.603	21.38
387.731	16.38
387.86	6.38
387.988	18.38
388.117	29.38
388.245	13.38
388.374	0.38
388.502	14.38
388.631	6.38
388.759	-0.62
388.888	9.38
389.016	1.38
389.144	14.38
389.273	19.38
389.401	-9.62
389.53	-10.62
389.658	20.38
389.786	-14.62
389.915	-10.62
390.043	-0.62
390.172	22.38
390.3	21.38
390.428	10.38
390.557	6.38
390.685	26.38
390.813	36.38
390.942	18.38
391.07	8.38
391.198	12.38
391.327	-4.62
391.455	18.38
391.583	45.38
391.712	25.38
391.84	-8.62
391.968	-2.62
392.096	-0.62
392.225	-6.62
392.353	16.38
392.481	22.38
392.609	18.38
392.738	27.38
392.866	15.38
392.994	2.38
393.122	28.38
393.251	12.38
393.379	6.38
393.507	-9.62
393.635	3.38
393.764	8.38
393.892	36.38
394.02	15.38
394.148	-3.62
394.276	18.38
394.404	24.38
394.533	11.38
394.661	18.38
394.789	34.38
394.917	19.38
395.045	9.38
395.173	10.38
395.302	3.38
395.43	17.38
395.558	17.38
395.686	25.38
395.814	30.38
395.942	-1.62
396.07	4.38
396.198	16.38
396.326	17.38
396.454	30.38
396.582	25.38
396.711	14.38
396.839	26.38
396.967	19.38
397.095	-2.62
397.223	22.38
397.351	33.38
397.479	30.38
397.607	-1.62
397.735	17.38
397.863	36.38
397.991	12.38
398.119	10.38
398.247	-1.62
398.375	8.38
398.503	20.38
398.631	41.38
398.759	24.38
398.887	22.38
399.015	6.38
399.143	-5.62
399.271	6.38
399.399	9.38
399.526	19.38
399.654	4.38
399.782	6.38
399.91	14.38
400.038	16.38
400.166	-6.62
400.294	10.38
400.422	-0.62
400.55	3.38
400.678	23.38
400.805	20.38
400.933	10.38
401.061	29.38
401.189	7.38
401.317	23.38
401.445	32.38
401.573	39.38
401.7	10.38
401.828	-13.62
401.956	21.38
402.084	16.38
402.212	13.38
402.34	14.38
402.467	37.38
402.595	13.38
402.723	9.38
402.851	16.38
402.978	3.38
403.106	13.38
403.234	1.38
403.362	39.38
403.489	19.38
403.617	18.38
403.745	-5.62
403.873	-4.62
404	22.38
404.128	14.38
404.256	15.38
404.384	22.38
404.511	19.38
404.639	3.38
404.767	14.38
404.894	-9.62
405.022	19.38
405.15	20.38
405.277	1.38
405.405	-1.62
405.533	16.38
405.66	10.38
405.788	-5.62
405.916	-4.62
406.043	-2.62
406.171	2.38
406.299	24.38
406.426	31.38
406.554	29.38
406.681	19.38
406.809	-12.62
406.937	3.38
407.064	2.38
407.192	2.38
407.319	14.38
407.447	2.38
407.574	15.38
407.702	1.38
407.83	-4.62
407.957	-4.62
408.085	9.38
408.212	26.38
408.34	10.38
408.467	4.38
408.595	14.38
408.722	42.38
408.85	30.38
408.977	1.38
409.105	19.38
409.232	15.38
409.36	14.38
409.487	18.38
409.615	18.38
409.742	35.38
409.87	41.38
409.997	40.38
410.125	57.38
410.252	62.38
410.379	66.38
410.507	48.38
410.634	15.38
410.762	10.38
410.889	14.38
411.017	15.38
411.144	24.38
411.271	13.38
411.399	8.38
411.526	22.38
411.653	22.38
411.781	39.38
411.908	7.38
412.036	6.38
412.163	22.38
412.29	24.38
412.418	13.38
412.545	15.38
412.672	-7.62
412.8	37.38
412.927	41.38
413.054	23.38
413.182	22.38
413.309	6.38
413.436	4.38
413.564	14.38
413.691	1.38
413.818	32.38
413.945	15.38
414.073	20.38
414.2	16.38
414.327	9.38
414.454	20.38
414.582	7.38
414.709	-0.62
414.836	3.38
414.963	17.38
415.091	18.38
415.218	16.38
415.345	19.38
415.472	-4.62
415.6	5.38
415.727	14.38
415.854	7.38
415.981	7.38
416.108	17.38
416.236	13.38
416.363	6.38
416.49	8.38
416.617	16.38
416.744	28.38
416.871	18.38
416.998	14.38
417.126	10.38
417.253	-0.62
417.38	7.38
417.507	23.38
417.634	26.38
417.761	18.38
417.888	31.38
418.015	13.38
418.143	4.38
418.27	26.38
418.397	1.38
418.524	5.38
418.651	9.38
418.778	21.38
418.905	28.38
419.032	36.38
419.159	12.38
419.286	38.38
419.413	16.38
419.54	34.38
419.667	2.38
419.794	-5.62
419.921	0.38
420.048	17.38
420.175	19.38
420.302	5.38
420.429	17.38
420.556	5.38
420.683	-1.62
420.81	8.38
420.937	31.38
421.064	26.38
421.191	11.38
421.318	35.38
421.445	27.38
421.572	-6.62
421.699	29.38
421.826	27.38
421.953	17.38
422.08	14.38
422.207	-2.62
422.334	6.38
422.461	18.38
422.588	23.38
422.714	21.38
422.841	25.38
422.968	20.38
423.095	18.38
423.222	-4.62
423.349	8.38
423.476	13.38
423.603	1.38
423.729	-8.62
423.856	14.38
423.983	24.38
424.11	8.38
424.237	3.38
424.364	13.38
424.491	12.38
424.617	-8.62
424.744	-3.62
424.871	4.38
424.998	7.38
425.125	22.38
425.251	19.38
425.378	2.38
425.505	8.38
425.632	5.38
425.758	-12.62
425.885	0.38
426.012	26.38
426.139	29.38
426.266	28.38
426.392	18.38
426.519	16.38
426.646	8.38
426.772	11.38
426.899	20.38
427.026	35.38
427.153	9.38
427.279	41.38
427.406	13.38
427.533	-0.62
427.659	-0.62
427.786	9.38
427.913	36.38
428.039	23.38
428.166	11.38
428.293	10.38
428.419	19.38
428.546	10.38
428.673	10.38
428.799	3.38
428.926	-2.62
429.053	48.38
429.179	15.38
429.306	17.38
429.433	35.38
429.559	35.38
429.686	13.38
429.812	7.38
429.939	-1.62
430.066	9.38
430.192	1.38
430.319	14.38
430.445	15.38
430.572	1.38
430.699	-7.62
430.825	11.38
430.952	19.38
431.078	21.38
431.205	34.38
431.331	10.38
431.458	34.38
431.584	21.38
431.711	9.38
431.837	7.38
431.964	22.38
432.09	27.38
432.217	3.38
432.343	25.38
432.47	32.38
432.596	9.38
432.723	6.38
432.849	5.38
432.976	16.38
433.102	19.38
433.229	10.38
433.355	35.38
433.482	59.38
433.608	152.38
433.735	163.38
433.861	120.38
433.987	159.38
434.114	232.38
434.24	198.38
434.367	74.38
434.493	6.38
434.62	34.38
434.746	25.38
434.872	24.38
434.999	19.38
435.125	12.38
435.252	-6.62
435.378	15.38
435.504	28.38
435.631	17.38
435.757	9.38
435.883	35.38
436.01	22.38
436.136	1.38
436.262	17.38
436.389	13.38
436.515	19.38
436.641	10.38
436.768	7.38
436.894	22.38
437.02	22.38
437.147	30.38
437.273	13.38
437.399	7.38
437.526	23.38
437.652	17.38
437.778	32.38
437.904	-10.62
438.031	1.38
438.157	21.38
438.283	10.38
438.409	6.38
438.536	-8.62
438.662	40.38
438.788	34.38
438.914	16.38
439.041	17.38
439.167	35.38
439.293	8.38
439.419	10.38
439.546	14.38
439.672	3.38
439.798	20.38
439.924	19.38
440.05	29.38
440.177	14.38
440.303	4.38
440.429	-2.62
440.555	21.38
440.681	-1.62
440.807	13.38
440.934	20.38
441.06	5.38
441.186	12.38
441.312	2.38
441.438	28.38
441.564	32.38
441.69	35.38
441.816	23.38
441.943	4.38
442.069	12.38
442.195	18.38
442.321	10.38
442.447	2.38
442.573	-17.62
442.699	-3.62
442.825	-0.62
442.951	11.38
443.077	35.38
443.203	19.38
443.33	14.38
443.456	-0.62
443.582	14.38
443.708	8.38
443.834	40.38
443.96	28.38
444.086	6.38
444.212	39.38
444.338	41.38
444.464	31.38
444.59	33.38
444.716	16.38
444.842	20.38
444.968	20.38
445.094	26.38
445.22	1.38
445.346	18.38
445.472	15.38
445.598	13.38
445.724	8.38
445.85	21.38
445.976	26.38
446.102	17.38
446.228	14.38
446.354	-5.62
446.48	6.38
446.605	29.38
446.731	30.38
446.857	9.38
446.983	18.38
447.109	23.38
447.235	10.38
447.361	12.38
447.487	22.38
447.613	31.38
447.739	-9.62
447.865	23.38
447.99	16.38
448.116	5.38
448.242	9.38
448.368	4.38
448.494	17.38
448.62	20.38
448.746	16.38
448.872	25.38
448.997	9.38
449.123	13.38
449.249	46.38
449.375	8.38
449.501	7.38
449.627	-5.62
449.752	45.38
449.878	7.38
450.004	0.38
450.13	16.38
450.256	21.38
450.381	5.38
450.507	15.38
450.633	7.38
450.759	38.38
450.884	25.38
451.01	33.38
451.136	21.38
451.262	1.38
451.388	30.38
451.513	14.38
451.639	26.38
451.765	19.38
451.89	21.38
452.016	0.38
452.142	21.38
452.268	25.38
452.393	31.38
452.519	26.38
452.645	16.38
452.771	9.38
452.896	10.38
453.022	-1.62
453.148	25.38
453.273	28.38
453.399	21.38
453.525	1.38
453.65	12.38
453.776	15.38
453.902	29.38
454.027	29.38
454.153	16.38
454.279	16.38
454.404	18.38
454.53	26.38
454.656	31.38
454.781	1.38
454.907	0.38
455.032	-3.62
455.158	36.38
455.284	39.38
455.409	21.38
455.535	15.38
455.66	22.38
455.786	24.38
455.912	22.38
456.037	-3.62
456.163	21.38
456.288	24.38
456.414	5.38
456.539	4.38
456.665	15.38
456.791	6.38
456.916	-16.62
457.042	22.38
457.167	13.38
457.293	19.38
457.418	-0.62
457.544	-2.62
457.669	2.38
457.795	15.38
457.92	38.38
458.046	12.38
458.171	17.38
458.297	16.38
458.422	10.38
458.548	1.38
458.673	11.38
458.799	4.38
458.924	-12.62
459.05	9.38
459.175	11.38
459.301	-0.62
459.426	31.38
459.552	25.38
459.677	-6.62
459.803	37.38
459.928	14.38
460.053	26.38
460.179	6.38
460.304	27.38
460.43	-10.62
460.555	12.38
460.681	25.38
460.806	26.38
460.931	21.38
461.057	17.38
461.182	1.38
461.308	23.38
461.433	32.38
461.558	13.38
461.684	17.38
461.809	46.38
461.934	30.38
462.06	22.38
462.185	-0.62
462.311	17.38
462.436	24.38
462.561	14.38
462.687	6.38
462.812	-1.62
462.937	-4.62
463.063	1.38
463.188	-5.62
463.313	12.38
463.439	21.38
463.564	20.38
463.689	10.38
463.814	25.38
463.94	8.38
464.065	35.38
464.19	45.38
464.316	0.38
464.441	2.38
464.566	21.38
464.692	26.38
464.817	38.38
464.942	21.38
465.067	5.38
465.193	-8.62
465.318	13.38
465.443	13.38
465.568	1.38
465.694	15.38
465.819	18.38
465.944	23.38
466.069	11.38
466.194	7.38
466.32	18.38
466.445	15.38
466.57	13.38
466.695	9.38
466.82	15.38
466.946	9.38
467.071	7.38
467.196	15.38
467.321	16.38
467.446	11.38
467.572	22.38
467.697	-1.62
467.822	7.38
467.947	12.38
468.072	7.38
468.197	21.38
468.323	-2.62
468.448	2.38
468.573	-1.62
468.698	19.38
468.823	28.38
468.948	19.38
469.073	6.38
469.198	16.38
469.324	28.38
469.449	11.38
469.574	17.38
469.699	29.38
469.824	31.38
469.949	15.38
470.074	18.38
470.199	43.38
470.324	45.38
470.449	35.38
470.574	9.38
470.7	12.38
470.825	46.38
470.95	30.38
471.075	3.38
471.2	8.38
471.325	26.38
471.45	21.38
471.575	11.38
471.7	17.38
471.825	12.38
471.95	4.38
472.075	-2.62
472.2	-5.62
472.325	17.38
472.45	22.38
472.575	27.38
472.7	23.38
472.825	24.38
472.95	16.38
473.075	23.38
473.2	-11.62
473.325	25.38
473.45	9.38
473.575	-2.62
473.7	9.38
473.825	3.38
473.95	28.38
474.075	30.38
474.2	7.38
474.325	7.38
474.45	16.38
474.574	14.38
474.699	19.38
474.824	21.38
474.949	-4.62
475.074	4.38
475.199	30.38
475.324	17.38
475.449	25.38
475.574	11.38
475.699	7.38
475.824	9.38
475.949	14.38
476.073	11.38
476.198	17.38
476.323	33.38
476.448	34.38
476.573	8.38
476.698	30.38
476.823	32.38
476.947	18.38
477.072	9.38
477.197	13.38
477.322	27.38
477.447	3.38
477.572	19.38
477.697	8.38
477.821	14.38
477.946	33.38
478.071	27.38
478.196	37.38
478.321	17.38
478.445	6.38
478.57	6.38
478.695	12.38
478.82	25.38
478.945	3.38
479.069	7.38
479.194	5.38
479.319	29.38
479.444	20.38
479.569	14.38
479.693	23.38
479.818	22.38
479.943	40.38
480.068	36.38
480.192	48.38
480.317	32.38
480.442	20.38
480.567	8.38
480.691	19.38
480.816	11.38
480.941	34.38
481.066	38.38
481.19	38.38
481.315	25.38
481.44	12.38
481.564	14.38
481.689	41.38
481.814	42.38
481.938	32.38
482.063	1.38
482.188	17.38
482.313	35.38
482.437	16.38
482.562	41.38
482.687	31.38
482.811	48.38
482.936	46.38
483.061	32.38
483.185	40.38
483.31	45.38
483.435	12.38
483.559	25.38
483.684	14.38
483.808	38.38
483.933	11.38
484.058	10.38
484.182	13.38
484.307	22.38
484.432	30.38
484.556	10.38
484.681	31.38
484.805	37.38
484.93	32.38
485.055	39.38
485.179	105.38
485.304	123.38
485.428	355.38
485.553	1247.38
485.678	1726.38
485.802	1653.38
485.927	1856.38
486.051	2635.38
486.176	1650.38
486.3	476.38
486.425	159.38
486.549	79.38
486.674	53.38
486.799	37.38
486.923	23.38
487.048	24.38
487.172	19.38
487.297	31.38
487.421	37.38
487.546	33.38
487.67	21.38
487.795	4.38
487.919	30.38
488.044	34.38
488.168	32.38
488.293	27.38
488.417	15.38
488.542	31.38
488.666	37.38
488.791	28.38
488.915	29.38
489.04	38.38
489.164	31.38
489.289	33.38
489.413	6.38
489.538	17.38
489.662	20.38
489.786	21.38
489.911	21.38
490.035	27.38
490.16	31.38
490.284	9.38
490.409	6.38
490.533	40.38
490.658	55.38
490.782	35.38
490.906	28.38
491.031	30.38
491.155	18.38
491.28	36.38
491.404	25.38
491.528	31.38
491.653	23.38
491.777	29.38
491.902	9.38
492.026	17.38
492.15	5.38
492.275	32.38
492.399	32.38
492.524	6.38
492.648	27.38
492.772	36.38
492.897	28.38
493.021	18.38
493.145	37.38
493.27	32.38
493.394	14.38
493.518	10.38
493.643	9.38
493.767	15.38
493.891	18.38
494.016	23.38
494.14	-1.62
494.264	28.38
494.389	26.38
494.513	18.38
494.637	5.38
494.762	21.38
494.886	24.38
495.01	17.38
495.134	20.38
495.259	21.38
495.383	25.38
495.507	29.38
495.632	33.38
495.756	51.38
495.88	21.38
496.004	21.38
496.129	22.38
496.253	33.38
496.377	20.38
496.501	12.38
496.626	17.38
496.75	27.38
496.874	21.38
496.998	3.38
497.123	32.38
497.247	26.38
497.371	21.38
497.495	19.38
497.62	20.38
497.744	19.38
497.868	13.38
497.992	15.38
498.116	40.38
498.241	30.38
498.365	3.38
498.489	22.38
498.613	26.38
498.737	10.38
498.862	19.38
498.986	18.38
499.11	18.38
499.234	15.38
499.358	-2.62
499.482	24.38
499.607	33.38
499.731	12.38
499.855	45.38
499.979	24.38
500.103	24.38
500.227	30.38
500.351	29.38
500.476	14.38
500.6	9.38
500.724	24.38
500.848	29.38
500.972	26.38
501.096	36.38
501.22	47.38
501.344	20.38
501.469	8.38
501.593	25.38
501.717	17.38
501.841	16.38
501.965	27.38
502.089	14.38
502.213	36.38
502.337	21.38
502.461	19.38
502.585	14.38
502.709	19.38
502.834	30.38
502.958	21.38
503.082	19.38
503.206	23.38
503.33	44.38
503.454	19.38
503.578	28.38
503.702	26.38
503.826	31.38
503.95	27.38
504.074	13.38
504.198	24.38
504.322	21.38
504.446	3.38
504.57	25.38
504.694	27.38
504.818	20.38
504.942	48.38
505.066	19.38
505.19	9.38
505.314	32.38
505.438	33.38
505.562	8.38
505.686	26.38
505.81	9.38
505.934	26.38
506.058	18.38
506.182	27.38
506.306	35.38
506.43	16.38
506.554	7.38
506.678	16.38
506.802	17.38
506.926	32.38
507.05	19.38
507.174	31.38
507.298	19.38
507.422	21.38
507.546	31.38
507.67	48.38
507.794	4.38
507.918	12.38
508.042	14.38
508.165	18.38
508.289	10.38
508.413	20.38
508.537	2.38
508.661	4.38
508.785	14.38
508.909	29.38
509.033	10.38
509.157	22.38
509.281	6.38
509.405	14.38
509.528	24.38
509.652	11.38
509.776	20.38
509.9	32.38
510.024	19.38
510.148	28.38
510.272	6.38
510.396	18.38
510.519	16.38
510.643	35.38
510.767	6.38
510.891	39.38
511.015	15.38
511.139	4.38
511.263	26.38
511.386	8.38
511.51	18.38
511.634	12.38
511.758	5.38
511.882	-6.62
512.006	37.38
512.129	20.38
512.253	54.38
512.377	22.38
512.501	39.38
512.625	14.38
512.748	25.38
512.872	14.38
512.996	19.38
513.12	29.38
513.244	20.38
513.367	27.38
513.491	25.38
513.615	20.38
513.739	18.38
513.862	15.38
513.986	15.38
514.11	38.38
514.234	7.38
514.358	30.38
514.481	26.38
514.605	22.38
514.729	30.38
514.853	27.38
514.976	1.38
515.1	6.38
515.224	34.38
515.348	9.38
515.471	2.38
515.595	23.38
515.719	14.38
515.842	33.38
515.966	15.38
516.09	38.38
516.214	33.38
516.337	41.38
516.461	22.38
516.585	45.38
516.708	26.38
516.832	35.38
516.956	7.38
517.08	25.38
517.203	10.38
517.327	21.38
517.451	12.38
517.574	42.38
517.698	19.38
517.822	38.38
517.945	45.38
518.069	46.38
518.193	70.38
518.316	50.38
518.44	34.38
518.564	22.38
518.687	26.38
518.811	34.38
518.935	51.38
519.058	30.38
519.182	38.38
519.306	46.38
519.429	33.38
519.553	55.38
519.676	44.38
519.8	42.38
519.924	24.38
520.047	30.38
520.171	7.38
520.294	23.38
520.418	21.38
520.542	20.38
520.665	26.38
520.789	25.38
520.913	18.38
521.036	13.38
521.16	6.38
521.283	2.38
521.407	1.38
521.53	5.38
521.654	-2.62
521.778	28.38
521.901	16.38
522.025	32.38
522.148	15.38
522.272	22.38
522.395	16.38
522.519	29.38
522.643	8.38
522.766	16.38
522.89	35.38
523.013	28.38
523.137	-18.62
523.26	6.38
523.384	17.38
523.507	40.38
523.631	19.38
523.754	11.38
523.878	19.38
524.002	41.38
524.125	18.38
524.249	5.38
524.372	23.38
524.496	11.38
524.619	16.38
524.743	14.38
524.866	0.38
524.99	19.38
525.113	-3.62
525.237	18.38
525.36	20.38
525.484	18.38
525.607	15.38
525.731	-12.62
525.854	23.38
525.978	30.38
526.101	5.38
526.224	15.38
526.348	13.38
526.471	8.38
526.595	19.38
526.718	15.38
526.842	6.38
526.965	33.38
527.089	12.38
527.212	17.38
527.336	5.38
527.459	23.38
527.582	1.38
527.706	36.38
527.829	30.38
527.953	18.38
528.076	-9.62
528.2	3.38
528.323	38.38
528.446	34.38
528.57	27.38
528.693	27.38
528.817	1.38
528.94	31.38
529.064	38.38
529.187	6.38
529.31	7.38
529.434	-0.62
529.557	5.38
529.68	6.38
529.804	22.38
529.927	22.38
530.051	9.38
530.174	4.38
530.297	6.38
530.421	20.38
530.544	29.38
530.668	31.38
530.791	18.38
530.914	22.38
531.038	2.38
531.161	12.38
531.284	19.38
531.408	37.38
531.531	3.38
531.654	6.38
531.778	13.38
531.901	-1.62
532.024	31.38
532.148	12.38
532.271	31.38
532.394	30.38
532.518	40.38
532.641	22.38
532.764	41.38
532.888	28.38
533.011	11.38
533.134	3.38
533.258	32.38
533.381	6.38
533.504	14.38
533.628	14.38
533.751	22.38
533.874	8.38
533.997	13.38
534.121	17.38
534.244	22.38
534.367	23.38
534.491	23.38
534.614	17.38
534.737	30.38
534.86	22.38
534.984	12.38
535.107	13.38
535.23	6.38
535.354	1.38
535.477	3.38
535.6	4.38
535.723	26.38
535.847	11.38
535.97	-0.62
536.093	23.38
536.216	-1.62
536.34	16.38
536.463	11.38
536.586	31.38
536.709	23.38
536.833	42.38
536.956	9.38
537.079	15.38
537.202	31.38
537.325	24.38
537.449	-5.62
537.572	25.38
537.695	13.38
537.818	8.38
537.941	13.38
538.065	18.38
538.188	16.38
538.311	36.38
538.434	30.38
538.558	28.38
538.681	36.38
538.804	19.38
538.927	29.38
539.05	23.38
539.173	9.38
539.297	16.38
539.42	19.38
539.543	31.38
539.666	32.38
539.789	28.38
539.913	1.38
540.036	17.38
540.159	17.38
540.282	-12.62
540.405	11.38
540.528	3.38
540.651	16.38
540.775	11.38
540.898	17.38
541.021	15.38
541.144	24.38
541.267	17.38
541.39	13.38
541.513	29.38
541.637	24.38
541.76	20.38
541.883	15.38
542.006	35.38
542.129	34.38
542.252	15.38
542.375	6.38
542.498	5.38
542.622	34.38
542.745	21.38
542.868	11.38
542.991	36.38
543.114	25.38
543.237	30.38
543.36	33.38
543.483	5.38
543.606	24.38
543.73	35.38
543.853	4.38
543.976	13.38
544.099	2.38
544.222	22.38
544.345	10.38
544.468	12.38
544.591	13.38
544.714	23.38
544.837	31.38
544.96	20.38
545.083	21.38
545.206	16.38
545.329	30.38
545.453	11.38
545.576	18.38
545.699	9.38
545.822	19.38
545.945	23.38
546.068	3.38
546.191	30.38
546.314	15.38
546.437	38.38
546.56	29.38
546.683	4.38
546.806	17.38
546.929	20.38
547.052	20.38
547.175	24.38
547.298	36.38
547.421	9.38
547.544	21.38
547.667	13.38
547.79	24.38
547.913	7.38
548.036	7.38
548.159	13.38
548.282	8.38
548.405	16.38
548.528	20.38
548.651	2.38
548.774	6.38
548.897	27.38
549.02	47.38
549.143	58.38
549.266	13.38
549.389	24.38
549.512	-5.62
549.635	27.38
549.758	38.38
549.881	41.38
550.004	8.38
550.127	11.38
550.25	-6.62
550.373	10.38
550.496	15.38
550.619	39.38
550.742	15.38
550.865	-17.62
550.988	14.38
551.111	31.38
551.234	17.38
551.356	5.38
551.479	20.38
551.602	-8.62
551.725	17.38
551.848	29.38
551.971	39.38
552.094	20.38
552.217	14.38
552.34	12.38
552.463	-12.62
552.586	22.38
552.709	28.38
552.832	19.38
552.955	26.38
553.077	27.38
553.2	14.38
553.323	5.38
553.446	21.38
553.569	9.38
553.692	6.38
553.815	13.38
553.938	31.38
554.061	17.38
554.184	18.38
554.306	21.38
554.429	-1.62
554.552	12.38
554.675	-3.62
554.798	15.38
554.921	20.38
555.044	18.38
555.167	10.38
555.29	3.38
555.412	-2.62
555.535	8.38
555.658	-10.62
555.781	21.38
555.904	33.38
556.027	34.38
556.15	18.38
556.272	2.38
556.395	41.38
556.518	3.38
556.641	12.38
556.764	19.38
556.887	14.38
557.01	6.38
557.132	-14.62
557.255	0.38
557.378	15.38
557.501	16.38
557.624	32.38
557.747	15.38
557.869	15.38
557.992	19.38
558.115	7.38
558.238	15.38
558.361	33.38
558.483	32.38
558.606	13.38
558.729	-1.62
558.852	20.38
558.975	45.38
559.098	24.38
559.22	10.38
559.343	5.38
559.466	14.38
559.589	14.38
559.712	25.38
559.834	10.38
559.957	15.38
560.08	19.38
560.203	30.38
560.325	20.38
560.448	40.38
560.571	20.38
560.694	-0.62
560.817	19.38
560.939	16.38
561.062	9.38
561.185	7.38
561.308	-2.62
561.43	7.38
561.553	19.38
561.676	25.38
561.799	8.38
561.921	12.38
562.044	15.38
562.167	7.38
562.29	26.38
562.413	26.38
562.535	30.38
562.658	8.38
562.781	7.38
562.903	3.38
563.026	30.38
563.149	38.38
563.272	10.38
563.394	17.38
563.517	5.38
563.64	3.38
563.763	23.38
563.885	39.38
564.008	37.38
564.131	16.38
564.254	1.38
564.376	14.38
564.499	5.38
564.622	19.38
564.744	37.38
564.867	8.38
564.99	1.38
565.113	25.38
565.235	-2.62
565.358	18.38
565.481	7.38
565.603	19.38
565.726	14.38
565.849	29.38
565.971	26.38
566.094	11.38
566.217	25.38
566.34	18.38
566.462	15.38
566.585	18.38
566.708	35.38
566.83	16.38
566.953	23.38
567.076	11.38
567.198	16.38
567.321	6.38
567.444	4.38
567.566	20.38
567.689	5.38
567.812	1.38
567.934	29.38
568.057	14.38
568.18	20.38
568.302	30.38
568.425	1.38
568.548	22.38
568.67	30.38
568.793	22.38
568.916	17.38
569.038	15.38
569.161	12.38
569.283	11.38
569.406	21.38
569.529	10.38
569.651	-12.62
569.774	6.38
569.897	2.38
570.019	30.38
570.142	28.38
570.265	23.38
570.387	-9.62
570.51	21.38
570.632	18.38
570.755	5.38
570.878	14.38
571	22.38
571.123	5.38
571.246	33.38
571.368	14.38
571.491	8.38
571.613	11.38
571.736	3.38
571.859	20.38
571.981	11.38
572.104	16.38
572.226	30.38
572.349	14.38
572.472	13.38
572.594	24.38
572.717	29.38
572.839	-0.62
572.962	19.38
573.085	18.38
573.207	26.38
573.33	12.38
573.452	34.38
573.575	41.38
573.697	24.38
573.82	13.38
573.943	7.38
574.065	26.38
574.188	29.38
574.31	28.38
574.433	10.38
574.555	43.38
574.678	16.38
574.801	30.38
574.923	9.38
575.046	14.38
575.168	20.38
575.291	8.38
575.413	14.38
575.536	5.38
575.659	23.38
575.781	5.38
575.904	2.38
576.026	26.38
576.149	9.38
576.271	23.38
576.394	21.38
576.516	7.38
576.639	17.38
576.761	3.38
576.884	5.38
577.007	11.38
577.129	19.38
577.252	9.38
577.374	42.38
577.497	17.38
577.619	16.38
577.742	7.38
577.864	50.38
577.987	13.38
578.109	32.38
578.232	19.38
578.354	34.38
578.477	11.38
578.599	6.38
578.722	11.38
578.844	10.38
578.967	31.38
579.089	31.38
579.212	-1.62
579.334	19.38
579.457	18.38
579.579	24.38
579.702	4.38
579.824	9.38
579.947	6.38
580.069	9.38
580.192	5.38
580.314	31.38
580.437	27.38
580.559	36.38
580.682	35.38
580.804	35.38
580.927	20.38
581.049	20.38
581.172	28.38
581.294	33.38
581.417	54.38
581.539	43.38
581.662	15.38
581.784	30.38
581.907	19.38
582.029	-0.62
582.152	14.38
582.274	21.38
582.396	17.38
582.519	9.38
582.641	9.38
582.764	17.38
582.886	28.38
583.009	19.38
583.131	11.38
583.254	19.38
583.376	18.38
583.499	9.38
583.621	19.38
583.743	20.38
583.866	9.38
583.988	-4.62
584.111	15.38
584.233	29.38
584.356	30.38
584.478	19.38
584.601	-16.62
584.723	6.38
584.845	47.38
584.968	6.38
585.09	-0.62
585.213	1.38
585.335	3.38
585.458	18.38
585.58	22.38
585.702	15.38
585.825	19.38
585.947	19.38
586.07	9.38
586.192	-3.62
586.315	7.38
586.437	9.38
586.559	13.38
586.682	-10.62
586.804	25.38
586.927	15.38
587.049	6.38
587.171	30.38
587.294	21.38
587.416	45.38
587.539	12.38
587.661	11.38
587.783	13.38
587.906	9.38
588.028	18.38
588.151	19.38
588.273	21.38
588.395	-5.62
588.518	-1.62
588.64	25.38
588.763	27.38
588.885	12.38
589.007	13.38
589.13	15.38
589.252	1.38
589.375	27.38
589.497	12.38
589.619	18.38
589.742	20.38
589.864	39.38
589.986	21.38
590.109	4.38
590.231	2.38
590.354	27.38
590.476	10.38
590.598	7.38
590.721	7.38
590.843	27.38
590.965	21.38
591.088	35.38
591.21	5.38
591.332	21.38
591.455	-4.62
591.577	13.38
591.7	13.38
591.822	15.38
591.944	33.38
592.067	20.38
592.189	15.38
592.311	15.38
592.434	20.38
592.556	26.38
592.678	11.38
592.801	5.38
592.923	19.38
593.045	12.38
593.168	5.38
593.29	-0.62
593.412	20.38
593.535	15.38
593.657	-12.62
593.779	1.38
593.902	18.38
594.024	19.38
594.146	27.38
594.269	21.38
594.391	10.38
594.513	6.38
594.636	11.38
594.758	2.38
594.88	29.38
595.003	34.38
595.125	26.38
595.247	14.38
595.37	15.38
595.492	5.38
595.614	29.38
595.737	3.38
595.859	20.38
595.981	14.38
596.104	18.38
596.226	17.38
596.348	16.38
596.471	10.38
596.593	17.38
596.715	9.38
596.838	19.38
596.96	10.38
597.082	31.38
597.204	15.38
597.327	8.38
597.449	2.38
597.571	14.38
597.694	6.38
597.816	10.38
597.938	22.38
598.061	9.38
598.183	10.38
598.305	23.38
598.427	33.38
598.55	23.38
598.672	19.38
598.794	13.38
598.917	22.38
599.039	11.38
599.161	18.38
599.283	20.38
599.406	34.38
599.528	34.38
599.65	48.38
599.773	19.38
599.895	51.38
600.017	24.38
600.139	-4.62
600.262	2.38
600.384	7.38
600.506	-0.62
600.628	24.38
600.751	40.38
600.873	-0.62
600.995	11.38
601.118	26.38
601.24	6.38
601.362	31.38
601.484	28.38
601.607	34.38
601.729	24.38
601.851	17.38
601.973	25.38
602.096	29.38
602.218	19.38
602.34	22.38
602.462	27.38
602.585	31.38
602.707	1.38
602.829	31.38
602.951	27.38
603.074	-0.62
603.196	8.38
603.318	15.38
603.44	25.38
603.563	11.38
603.685	8.38
603.807	13.38
603.929	23.38
604.052	32.38
604.174	18.38
604.296	19.38
604.418	30.38
604.541	46.38
604.663	19.38
604.785	25.38
604.907	14.38
605.03	8.38
605.152	45.38
605.274	10.38
605.396	7.38
605.519	19.38
605.641	19.38
605.763	15.38
605.885	3.38
606.008	11.38
606.13	9.38
606.252	21.38
606.374	0.38
606.496	14.38
606.619	20.38
606.741	36.38
606.863	39.38
606.985	34.38
607.108	17.38
607.23	25.38
607.352	21.38
607.474	19.38
607.596	19.38
607.719	14.38
607.841	34.38
607.963	21.38
608.085	16.38
608.207	50.38
608.33	10.38
608.452	10.38
608.574	9.38
608.696	23.38
608.819	15.38
608.941	9.38
609.063	7.38
609.185	17.38
609.307	24.38
609.43	30.38
609.552	37.38
609.674	2.38
609.796	17.38
609.918	31.38
610.041	6.38
610.163	13.38
610.285	7.38
610.407	37.38
610.529	5.38
610.652	21.38
610.774	19.38
610.896	29.38
611.018	18.38
611.14	15.38
611.263	12.38
611.385	-1.62
611.507	22.38
611.629	-2.62
611.751	16.38
611.873	32.38
611.996	19.38
612.118	28.38
612.24	24.38
612.362	23.38
612.484	18.38
612.607	30.38
612.729	35.38
612.851	16.38
612.973	9.38
613.095	17.38
613.218	11.38
613.34	27.38
613.462	15.38
613.584	14.38
613.706	7.38
613.828	34.38
613.951	21.38
614.073	25.38
614.195	-1.62
614.317	23.38
614.439	29.38
614.561	17.38
614.684	27.38
614.806	26.38
614.928	26.38
615.05	13.38
615.172	41.38
615.294	35.38
615.417	15.38
615.539	-12.62
615.661	-0.62
615.783	33.38
615.905	35.38
616.027	69.38
616.15	113.38
616.272	81.38
616.394	53.38
616.516	35.38
616.638	33.38
616.76	19.38
616.883	12.38
617.005	5.38
617.127	22.38
617.249	13.38
617.371	17.38
617.493	8.38
617.615	3.38
617.738	23.38
617.86	19.38
617.982	31.38
618.104	21.38
618.226	14.38
618.348	-1.62
618.471	23.38
618.593	29.38
618.715	25.38
618.837	23.38
618.959	13.38
619.081	28.38
619.203	12.38
619.326	4.38
619.448	21.38
619.57	31.38
619.692	18.38
619.814	16.38
619.936	12.38
620.058	29.38
620.181	27.38
620.303	21.38
620.425	23.38
620.547	7.38
620.669	16.38
620.791	15.38
620.913	7.38
621.036	2.38
621.158	17.38
621.28	33.38
621.402	-9.62
621.524	1.38
621.646	10.38
621.768	3.38
621.891	-2.62
622.013	21.38
622.135	-0.62
622.257	9.38
622.379	10.38
622.501	14.38
622.623	22.38
622.745	28.38
622.868	15.38
622.99	3.38
623.112	25.38
623.234	18.38
623.356	27.38
623.478	-3.62
623.6	24.38
623.722	12.38
623.845	30.38
623.967	10.38
624.089	14.38
624.211	12.38
624.333	20.38
624.455	9.38
624.577	13.38
624.699	19.38
624.822	11.38
624.944	-7.62
625.066	-0.62
625.188	13.38
625.31	17.38
625.432	35.38
625.554	3.38
625.676	28.38
625.799	12.38
625.921	3.38
626.043	6.38
626.165	31.38
626.287	-26.62
626.409	22.38
626.531	7.38
626.653	18.38
626.775	26.38
626.898	14.38
627.02	18.38
627.142	15.38
627.264	38.38
627.386	13.38
627.508	24.38
627.63	9.38
627.752	11.38
627.874	6.38
627.997	23.38
628.119	15.38
628.241	21.38
628.363	31.38
628.485	19.38
628.607	26.38
628.729	2.38
628.851	21.38
628.973	33.38
629.096	14.38
629.218	15.38
629.34	15.38
629.462	-5.62
629.584	11.38
629.706	16.38
629.828	33.38
629.95	12.38
630.072	9.38
630.195	25.38
630.317	19.38
630.439	13.38
630.561	27.38
630.683	10.38
630.805	11.38
630.927	28.38
631.049	2.38
631.171	2.38
631.293	-0.62
631.416	30.38
631.538	3.38
631.66	16.38
631.782	36.38
631.904	29.38
632.026	13.38
632.148	15.38
632.27	10.38
632.392	11.38
632.514	25.38
632.637	34.38
632.759	-1.62
632.881	8.38
633.003	1.38
633.125	-0.62
633.247	11.38
633.369	15.38
633.491	15.38
633.613	25.38
633.735	9.38
633.858	15.38
633.98	16.38
634.102	6.38
634.224	24.38
634.346	7.38
634.468	29.38
634.59	25.38
634.712	11.38
634.834	13.38
634.956	1.38
635.078	5.38
635.201	11.38
635.323	9.38
635.445	-0.62
635.567	-18.62
635.689	24.38
635.811	24.38
635.933	10.38
636.055	18.38
636.177	27.38
636.299	32.38
636.421	5.38
636.544	3.38
636.666	8.38
636.788	23.38
636.91	23.38
637.032	23.38
637.154	12.38
637.276	37.38
637.398	35.38
637.52	33.38
637.642	15.38
637.764	16.38
637.887	9.38
638.009	26.38
638.131	10.38
638.253	0.38
638.375	15.38
638.497	17.38
638.619	3.38
638.741	27.38
638.863	-9.62
638.985	7.38
639.107	12.38
639.23	-8.62
639.352	19.38
639.474	15.38
639.596	25.38
639.718	15.38
639.84	23.38
639.962	10.38
640.084	17.38
640.206	25.38
640.328	-2.62
640.45	20.38
640.573	12.38
640.695	14.38
640.817	9.38
640.939	19.38
641.061	14.38
641.183	13.38
641.305	12.38
641.427	18.38
641.549	2.38
641.671	10.38
641.793	3.38
641.915	21.38
642.038	-0.62
642.16	12.38
642.282	12.38
642.404	7.38
642.526	28.38
642.648	13.38
642.77	-1.62
642.892	6.38
643.014	13.38
643.136	17.38
643.258	8.38
643.381	29.38
643.503	36.38
643.625	11.38
643.747	-8.62
643.869	8.38
643.991	27.38
644.113	28.38
644.235	10.38
644.357	9.38
644.479	8.38
644.601	9.38
644.723	19.38
644.846	38.38
644.968	2.38
645.09	3.38
645.212	-6.62
645.334	11.38
645.456	19.38
645.578	9.38
645.7	19.38
645.822	5.38
645.944	11.38
646.066	15.38
646.188	12.38
646.311	20.38
646.433	19.38
646.555	46.38
646.677	53.38
646.799	29.38
646.921	18.38
647.043	36.38
647.165	6.38
647.287	17.38
647.409	10.38
647.531	36.38
647.654	8.38
647.776	34.38
647.898	19.38
648.02	18.38
648.142	5.38
648.264	8.38
648.386	11.38
648.508	-9.62
648.63	0.38
648.752	24.38
648.874	14.38
648.997	24.38
649.119	24.38
649.241	7.38
649.363	27.38
649.485	10.38
649.607	-2.62
649.729	15.38
649.851	10.38
649.973	12.38
650.095	7.38
650.217	13.38
650.34	-2.62
650.462	37.38
650.584	13.38
650.706	17.38
650.828	19.38
650.95	-1.62
651.072	19.38
651.194	5.38
651.316	12.38
651.438	17.38
651.56	-6.62
651.683	-8.62
651.805	21.38
651.927	7.38
652.049	7.38
652.171	14.38
652.293	22.38
652.415	10.38
652.537	9.38
652.659	17.38
652.781	26.38
652.903	42.38
653.026	24.38
653.148	7.38
653.27	24.38
653.392	9.38
653.514	16.38
653.636	16.38
653.758	13.38
653.88	11.38
654.002	15.38
654.124	22.38
654.247	6.38
654.369	23.38
654.491	27.38
654.613	30.38
654.735	14.38
654.857	32.38
654.979	22.38
655.101	13.38
655.223	57.38
655.345	16.38
655.468	32.38
655.59	36.38
655.712	35.38
655.834	29.38
655.956	45.38
656.078	30.38
656.2	53.38
656.322	41.38
656.444	41.38
656.566	69.38
656.689	43.38
656.811	78.38
656.933	84.38
657.055	101.38
657.177	162.38
657.299	246.38
657.421	531.38
657.543	1890.38
657.665	12574.38
657.787	15190.38
657.91	15286.38
658.032	15668.38
658.154	4644.38
658.276	3582.38
658.398	1169.38
658.52	1040.38
658.642	493.38
658.764	644.38
658.886	283.38
659.009	404.38
659.131	215.38
659.253	309.38
659.375	175.38
659.497	231.38
659.619	157.38
659.741	225.38
659.863	107.38
659.985	184.38
660.108	109.38
660.23	157.38
660.352	77.38
660.474	149.38
660.596	80.38
660.718	150.38
660.84	74.38
660.962	129.38
661.084	49.38
661.207	117.38
661.329	62.38
661.451	86.38
661.573	62.38
661.695	102.38
661.817	54.38
661.939	115.38
662.061	70.38
662.184	87.38
662.306	49.38
662.428	110.38
662.55	62.38
662.672	76.38
662.794	57.38
662.916	67.38
663.038	36.38
663.161	90.38
663.283	53.38
663.405	76.38
663.527	47.38
663.649	71.38
663.771	34.38
663.893	70.38
664.015	44.38
664.138	57.38
664.26	48.38
664.382	57.38
664.504	19.38
664.626	32.38
664.748	39.38
664.87	54.38
664.992	50.38
665.115	57.38
665.237	14.38
665.359	51.38
665.481	14.38
665.603	45.38
665.725	17.38
665.847	29.38
665.97	28.38
666.092	47.38
666.214	27.38
666.336	31.38
666.458	28.38
666.58	42.38
666.702	11.38
666.825	25.38
666.947	13.38
667.069	39.38
667.191	23.38
667.313	47.38
667.435	5.38
667.557	32.38
667.68	12.38
667.802	37.38
667.924	26.38
668.046	49.38
668.168	32.38
668.29	38.38
668.412	15.38
668.535	24.38
668.657	25.38
668.779	19.38
668.901	29.38
669.023	37.38
669.145	16.38
669.267	53.38
669.39	30.38
669.512	45.38
669.634	21.38
669.756	29.38
669.878	17.38
670	29.38
670.123	14.38
670.245	37.38
670.367	5.38
670.489	26.38
670.611	15.38
670.733	29.38
670.856	11.38
670.978	30.38
671.1	23.38
671.222	20.38
671.344	37.38
671.466	10.38
671.589	-4.62
671.711	32.38
671.833	13.38
671.955	26.38
672.077	18.38
672.199	30.38
672.322	37.38
672.444	27.38
672.566	18.38
672.688	36.38
672.81	29.38
672.932	45.38
673.055	19.38
673.177	1.38
673.299	13.38
673.421	9.38
673.543	21.38
673.665	35.38
673.788	17.38
673.91	33.38
674.032	5.38
674.154	25.38
674.276	26.38
674.399	22.38
674.521	-6.62
674.643	19.38
674.765	14.38
674.887	45.38
675.009	16.38
675.132	5.38
675.254	6.38
675.376	26.38
675.498	37.38
675.62	59.38
675.743	5.38
675.865	43.38
675.987	2.38
676.109	23.38
676.231	26.38
676.354	52.38
676.476	6.38
676.598	43.38
676.72	16.38
676.842	31.38
676.965	17.38
677.087	22.38
677.209	12.38
677.331	31.38
677.453	14.38
677.576	20.38
677.698	11.38
677.82	31.38
677.942	4.38
678.064	30.38
678.187	31.38
678.309	24.38
678.431	30.38
678.553	34.38
678.675	43.38
678.798	34.38
678.92	1.38
679.042	23.38
679.164	9.38
679.286	30.38
679.409	9.38
679.531	-0.62
679.653	5.38
679.775	8.38
679.898	10.38
680.02	21.38
680.142	5.38
680.264	23.38
680.386	-1.62
680.509	22.38
680.631	11.38
680.753	29.38
680.875	1.38
680.998	15.38
681.12	10.38
681.242	28.38
681.364	-8.62
681.486	31.38
681.609	1.38
681.731	11.38
681.853	6.38
681.975	13.38
682.098	13.38
682.22	37.38
682.342	26.38
682.464	19.38
682.587	11.38
682.709	11.38
682.831	-0.62
682.953	18.38
683.076	-0.62
683.198	21.38
683.32	6.38
683.442	24.38
683.565	14.38
683.687	16.38
683.809	18.38
683.931	17.38
684.054	20.38
684.176	16.38
684.298	9.38
684.42	17.38
684.543	12.38
684.665	15.38
684.787	6.38
684.909	-0.62
685.032	25.38
685.154	0.38
685.276	7.38
685.398	10.38
685.521	19.38
685.643	27.38
685.765	25.38
685.887	31.38
686.01	16.38
686.132	28.38
686.254	19.38
686.377	20.38
686.499	9.38
686.621	26.38
686.743	29.38
686.866	14.38
686.988	30.38
687.11	32.38
687.232	14.38
687.355	12.38
687.477	20.38
687.599	8.38
687.722	20.38
687.844	36.38
687.966	24.38
688.088	17.38
688.211	33.38
688.333	29.38
688.455	19.38
688.578	41.38
688.7	16.38
688.822	35.38
688.944	6.38
689.067	42.38
689.189	18.38
689.311	-0.62
689.434	22.38
689.556	11.38
689.678	19.38
689.801	24.38
689.923	16.38
690.045	34.38
690.167	26.38
690.29	34.38
690.412	5.38
690.534	27.38
690.657	9.38
690.779	5.38
690.901	10.38
691.024	16.38
691.146	1.38
691.268	15.38
691.391	19.38
691.513	36.38
691.635	25.38
691.758	27.38
691.88	18.38
692.002	13.38
692.125	-12.62
692.247	-2.62
692.369	1.38
692.492	6.38
692.614	16.38
692.736	13.38
692.859	16.38
692.981	14.38
693.103	6.38
693.226	27.38
693.348	42.38
693.47	10.38
693.593	19.38
693.715	-0.62
693.837	4.38
693.96	22.38
694.082	6.38
694.204	29.38
694.327	2.38
694.449	0.38
694.571	5.38
694.694	13.38
694.816	24.38
694.938	1.38
695.061	4.38
695.183	15.38
695.305	13.38
695.428	16.38
695.55	-2.62
695.672	22.38
695.795	8.38
695.917	21.38
696.04	2.38
696.162	10.38
696.284	9.38
696.407	19.38
696.529	7.38
696.651	43.38
696.774	18.38
696.896	35.38
697.019	31.38
697.141	19.38
697.263	9.38
697.386	16.38
697.508	19.38
697.63	15.38
697.753	18.38
697.875	7.38
697.998	1.38
698.12	18.38
698.242	6.38
698.365	12.38
698.487	15.38
698.61	15.38
698.732	9.38
698.854	20.38
698.977	-0.62
699.099	19.38
699.221	14.38
699.344	2.38
699.466	10.38
699.589	17.38
699.711	9.38
699.834	16.38
699.956	23.38
700.078	7.38
700.201	6.38
700.323	40.38
700.446	17.38
700.568	10.38
700.69	17.38
700.813	24.38
700.935	19.38
701.058	7.38
701.18	17.38
701.302	15.38
701.425	2.38
701.547	25.38
701.67	13.38
701.792	35.38
701.915	13.38
702.037	2.38
702.159	24.38
702.282	22.38
702.404	19.38
702.527	32.38
702.649	47.38
702.772	20.38
702.894	8.38
703.017	13.38
703.139	-5.62
703.261	23.38
703.384	10.38
703.506	13.38
703.629	15.38
703.751	19.38
703.874	15.38
703.996	23.38
704.119	-2.62
704.241	36.38
704.364	-6.62
704.486	13.38
704.608	8.38
704.731	8.38
704.853	17.38
704.976	9.38
705.098	20.38
705.221	7.38
705.343	22.38
705.466	31.38
705.588	7.38
705.711	10.38
705.833	12.38
705.956	16.38
706.078	8.38
706.201	20.38
706.323	1.38
706.446	0.38
