Data from LowRes_H2_15_26_11_07_2024_HR4C61881__70__15-28-20-637.txt Node

Date: Thu Nov 07 15:28:20 EST 2024
User: crc00042
Spectrometer: HR4C6188
Trigger mode: 4
Integration Time (sec): 1.000000E-1
Scans to average: 1
Electric dark correction enabled: true
Nonlinearity correction enabled: false
Boxcar width: 0
XAxis mode: Wavelengths
Number of Pixels in Spectrum: 3648
>>>>>Begin Spectral Data<<<<<
245.66	-115.08
245.797	-115.08
245.934	-115.08
246.071	-68.08
246.208	-20.08
246.344	-2.08
246.481	7.92
246.618	3.92
246.755	5.92
246.892	8.92
247.029	-13.08
247.165	-29.08
247.302	-3.08
247.439	1.92
247.576	14.92
247.713	-15.08
247.849	19.92
247.986	-1.08
248.123	14.92
248.26	-7.08
248.396	13.92
248.533	-4.08
248.67	-9.08
248.806	11.92
248.943	-19.08
249.08	7.92
249.216	11.92
249.353	-3.08
249.49	-18.08
249.626	16.92
249.763	16.92
249.9	-8.08
250.036	0.92
250.173	17.92
250.309	-0.08
250.446	14.92
250.582	12.92
250.719	-0.08
250.856	-7.08
250.992	-9.08
251.129	8.92
251.265	-3.08
251.402	-16.08
251.538	-0.08
251.675	7.92
251.811	25.92
251.948	30.92
252.084	17.92
252.221	3.92
252.357	8.92
252.493	4.92
252.63	-1.08
252.766	21.92
252.903	10.92
253.039	1.92
253.175	-3.08
253.312	16.92
253.448	6.92
253.585	-34.08
253.721	11.92
253.857	-1.08
253.994	21.92
254.13	17.92
254.266	17.92
254.403	20.92
254.539	4.92
254.675	9.92
254.811	26.92
254.948	4.92
255.084	12.92
255.22	-13.08
255.356	11.92
255.493	-14.08
255.629	3.92
255.765	6.92
255.901	11.92
256.037	16.92
256.174	1.92
256.31	-7.08
256.446	-2.08
256.582	-14.08
256.718	8.92
256.854	23.92
256.991	7.92
257.127	27.92
257.263	-2.08
257.399	9.92
257.535	4.92
257.671	-16.08
257.807	-13.08
257.943	-2.08
258.079	-12.08
258.215	-1.08
258.351	17.92
258.487	24.92
258.623	34.92
258.759	5.92
258.895	-11.08
259.031	-6.08
259.167	3.92
259.303	32.92
259.439	2.92
259.575	3.92
259.711	5.92
259.847	-10.08
259.983	18.92
260.119	10.92
260.255	-0.08
260.391	-0.08
260.527	3.92
260.663	27.92
260.799	16.92
260.934	1.92
261.07	2.92
261.206	6.92
261.342	0.92
261.478	24.92
261.614	14.92
261.749	14.92
261.885	-9.08
262.021	3.92
262.157	28.92
262.293	-15.08
262.428	7.92
262.564	17.92
262.7	0.92
262.836	8.92
262.971	8.92
263.107	15.92
263.243	23.92
263.378	3.92
263.514	1.92
263.65	10.92
263.785	-12.08
263.921	4.92
264.057	20.92
264.192	6.92
264.328	23.92
264.464	-8.08
264.599	11.92
264.735	34.92
264.871	5.92
265.006	7.92
265.142	23.92
265.277	10.92
265.413	16.92
265.548	20.92
265.684	19.92
265.819	8.92
265.955	-9.08
266.091	11.92
266.226	-15.08
266.362	1.92
266.497	-1.08
266.633	-4.08
266.768	14.92
266.903	15.92
267.039	19.92
267.174	10.92
267.31	10.92
267.445	1.92
267.581	0.92
267.716	23.92
267.851	5.92
267.987	14.92
268.122	25.92
268.258	-8.08
268.393	1.92
268.528	2.92
268.664	6.92
268.799	5.92
268.934	17.92
269.07	-12.08
269.205	8.92
269.34	9.92
269.476	-7.08
269.611	-21.08
269.746	32.92
269.881	26.92
270.017	15.92
270.152	3.92
270.287	6.92
270.422	8.92
270.558	-5.08
270.693	-5.08
270.828	-7.08
270.963	6.92
271.098	3.92
271.234	-4.08
271.369	7.92
271.504	-10.08
271.639	-8.08
271.774	5.92
271.909	-5.08
272.045	-23.08
272.18	-1.08
272.315	9.92
272.45	8.92
272.585	1.92
272.72	11.92
272.855	-2.08
272.99	8.92
273.125	-7.08
273.26	-13.08
273.395	-10.08
273.53	-9.08
273.665	12.92
273.8	6.92
273.935	21.92
274.07	19.92
274.205	4.92
274.34	18.92
274.475	-3.08
274.61	20.92
274.745	-4.08
274.88	24.92
275.015	-7.08
275.15	24.92
275.285	33.92
275.42	2.92
275.555	11.92
275.69	16.92
275.825	-2.08
275.959	17.92
276.094	-4.08
276.229	-9.08
276.364	3.92
276.499	5.92
276.634	3.92
276.768	-9.08
276.903	13.92
277.038	26.92
277.173	-4.08
277.308	9.92
277.442	12.92
277.577	-6.08
277.712	5.92
277.847	5.92
277.981	-3.08
278.116	2.92
278.251	21.92
278.386	11.92
278.52	21.92
278.655	1.92
278.79	17.92
278.924	5.92
279.059	14.92
279.194	-29.08
279.328	20.92
279.463	12.92
279.598	27.92
279.732	21.92
279.867	5.92
280.001	13.92
280.136	2.92
280.271	6.92
280.405	10.92
280.54	13.92
280.674	-0.08
280.809	14.92
280.943	-2.08
281.078	-3.08
281.213	12.92
281.347	33.92
281.482	20.92
281.616	14.92
281.751	-0.08
281.885	-8.08
282.02	-6.08
282.154	1.92
282.288	-10.08
282.423	-4.08
282.557	-15.08
282.692	11.92
282.826	4.92
282.961	23.92
283.095	-7.08
283.229	-2.08
283.364	-4.08
283.498	-2.08
283.633	8.92
283.767	10.92
283.901	4.92
284.036	-9.08
284.17	-2.08
284.304	-10.08
284.439	20.92
284.573	11.92
284.707	5.92
284.842	2.92
284.976	6.92
285.11	-13.08
285.244	3.92
285.379	39.92
285.513	-17.08
285.647	15.92
285.781	6.92
285.916	9.92
286.05	6.92
286.184	35.92
286.318	17.92
286.453	-1.08
286.587	4.92
286.721	-4.08
286.855	11.92
286.989	-12.08
287.123	13.92
287.258	-18.08
287.392	4.92
287.526	26.92
287.66	3.92
287.794	17.92
287.928	9.92
288.062	11.92
288.196	-9.08
288.33	5.92
288.464	4.92
288.598	9.92
288.733	-2.08
288.867	5.92
289.001	-6.08
289.135	14.92
289.269	-8.08
289.403	-13.08
289.537	7.92
289.671	5.92
289.805	-9.08
289.939	-0.08
290.073	2.92
290.207	14.92
290.34	7.92
290.474	11.92
290.608	11.92
290.742	16.92
290.876	9.92
291.01	7.92
291.144	19.92
291.278	16.92
291.412	11.92
291.546	-14.08
291.679	-1.08
291.813	16.92
291.947	0.92
292.081	-3.08
292.215	11.92
292.349	14.92
292.482	-2.08
292.616	-4.08
292.75	9.92
292.884	17.92
293.018	-12.08
293.151	-23.08
293.285	1.92
293.419	-0.08
293.553	7.92
293.686	-0.08
293.82	15.92
293.954	40.92
294.088	10.92
294.221	0.92
294.355	-0.08
294.489	5.92
294.622	-10.08
294.756	17.92
294.89	26.92
295.023	23.92
295.157	4.92
295.291	18.92
295.424	15.92
295.558	-0.08
295.691	-7.08
295.825	6.92
295.959	0.92
296.092	-5.08
296.226	3.92
296.359	9.92
296.493	6.92
296.627	13.92
296.76	13.92
296.894	2.92
297.027	-13.08
297.161	-1.08
297.294	-2.08
297.428	-3.08
297.561	31.92
297.695	-1.08
297.828	-7.08
297.962	1.92
298.095	-14.08
298.229	-1.08
298.362	-2.08
298.495	-12.08
298.629	-18.08
298.762	-2.08
298.896	-8.08
299.029	-11.08
299.162	11.92
299.296	22.92
299.429	-17.08
299.563	1.92
299.696	3.92
299.829	-3.08
299.963	17.92
300.096	10.92
300.229	21.92
300.363	22.92
300.496	3.92
300.629	-5.08
300.763	-18.08
300.896	-0.08
301.029	9.92
301.162	-10.08
301.296	-13.08
301.429	4.92
301.562	-25.08
301.695	9.92
301.829	14.92
301.962	26.92
302.095	-0.08
302.228	-5.08
302.362	34.92
302.495	15.92
302.628	12.92
302.761	-4.08
302.894	14.92
303.027	10.92
303.161	-3.08
303.294	-7.08
303.427	28.92
303.56	13.92
303.693	10.92
303.826	-9.08
303.959	-2.08
304.092	-4.08
304.225	-4.08
304.359	15.92
304.492	7.92
304.625	-10.08
304.758	10.92
304.891	-10.08
305.024	4.92
305.157	-8.08
305.29	-23.08
305.423	-8.08
305.556	11.92
305.689	24.92
305.822	5.92
305.955	14.92
306.088	-0.08
306.221	28.92
306.354	3.92
306.487	-17.08
306.62	-9.08
306.752	7.92
306.885	6.92
307.018	1.92
307.151	-1.08
307.284	15.92
307.417	-10.08
307.55	18.92
307.683	6.92
307.816	11.92
307.948	8.92
308.081	-0.08
308.214	17.92
308.347	18.92
308.48	5.92
308.613	-18.08
308.745	7.92
308.878	10.92
309.011	32.92
309.144	21.92
309.277	6.92
309.409	4.92
309.542	4.92
309.675	8.92
309.808	-2.08
309.94	19.92
310.073	-3.08
310.206	8.92
310.339	11.92
310.471	4.92
310.604	15.92
310.737	-0.08
310.869	-3.08
311.002	-3.08
311.135	3.92
311.267	-16.08
311.4	2.92
311.533	22.92
311.665	-11.08
311.798	-13.08
311.93	11.92
312.063	18.92
312.196	0.92
312.328	-6.08
312.461	-4.08
312.593	-7.08
312.726	18.92
312.859	18.92
312.991	4.92
313.124	-13.08
313.256	12.92
313.389	-0.08
313.521	-12.08
313.654	-1.08
313.786	-22.08
313.919	-8.08
314.051	3.92
314.184	28.92
314.316	12.92
314.449	-4.08
314.581	2.92
314.714	-7.08
314.846	8.92
314.978	-2.08
315.111	-9.08
315.243	6.92
315.376	-5.08
315.508	3.92
315.641	22.92
315.773	20.92
315.905	14.92
316.038	2.92
316.17	6.92
316.302	5.92
316.435	-6.08
316.567	-13.08
316.699	4.92
316.832	-9.08
316.964	8.92
317.096	1.92
317.229	-3.08
317.361	-14.08
317.493	2.92
317.625	-4.08
317.758	-0.08
317.89	17.92
318.022	9.92
318.155	-5.08
318.287	-1.08
318.419	-9.08
318.551	10.92
318.683	2.92
318.816	9.92
318.948	3.92
319.08	-12.08
319.212	-2.08
319.344	2.92
319.477	-1.08
319.609	20.92
319.741	37.92
319.873	12.92
320.005	12.92
320.137	-3.08
320.269	1.92
320.401	4.92
320.534	4.92
320.666	-12.08
320.798	-19.08
320.93	-3.08
321.062	-3.08
321.194	-2.08
321.326	5.92
321.458	11.92
321.59	-4.08
321.722	-12.08
321.854	2.92
321.986	-1.08
322.118	11.92
322.25	-6.08
322.382	-14.08
322.514	-1.08
322.646	3.92
322.778	29.92
322.91	-14.08
323.042	-6.08
323.174	6.92
323.306	-1.08
323.438	-19.08
323.57	-8.08
323.702	2.92
323.834	-1.08
323.966	-23.08
324.097	-8.08
324.229	24.92
324.361	10.92
324.493	-0.08
324.625	-14.08
324.757	11.92
324.889	7.92
325.021	15.92
325.152	29.92
325.284	34.92
325.416	-5.08
325.548	31.92
325.68	-12.08
325.811	3.92
325.943	8.92
326.075	-12.08
326.207	9.92
326.339	2.92
326.47	-13.08
326.602	-10.08
326.734	4.92
326.866	15.92
326.997	-11.08
327.129	-4.08
327.261	-18.08
327.392	-18.08
327.524	1.92
327.656	10.92
327.787	17.92
327.919	3.92
328.051	5.92
328.182	9.92
328.314	32.92
328.446	-0.08
328.577	15.92
328.709	5.92
328.841	-2.08
328.972	-21.08
329.104	-3.08
329.235	18.92
329.367	-19.08
329.499	10.92
329.63	6.92
329.762	23.92
329.893	18.92
330.025	4.92
330.156	1.92
330.288	8.92
330.419	36.92
330.551	8.92
330.683	-2.08
330.814	-18.08
330.946	11.92
331.077	3.92
331.208	0.92
331.34	-16.08
331.471	-7.08
331.603	7.92
331.734	-11.08
331.866	10.92
331.997	1.92
332.129	6.92
332.26	-12.08
332.392	13.92
332.523	6.92
332.654	5.92
332.786	1.92
332.917	-25.08
333.048	6.92
333.18	23.92
333.311	2.92
333.443	15.92
333.574	2.92
333.705	18.92
333.837	-14.08
333.968	0.92
334.099	22.92
334.231	32.92
334.362	-7.08
334.493	7.92
334.624	18.92
334.756	18.92
334.887	14.92
335.018	5.92
335.15	-0.08
335.281	2.92
335.412	14.92
335.543	17.92
335.675	8.92
335.806	2.92
335.937	-4.08
336.068	3.92
336.199	32.92
336.331	5.92
336.462	2.92
336.593	17.92
336.724	-6.08
336.855	23.92
336.986	15.92
337.118	-3.08
337.249	3.92
337.38	6.92
337.511	1.92
337.642	8.92
337.773	-0.08
337.904	27.92
338.035	13.92
338.166	3.92
338.298	20.92
338.429	16.92
338.56	13.92
338.691	20.92
338.822	29.92
338.953	22.92
339.084	22.92
339.215	7.92
339.346	8.92
339.477	-1.08
339.608	-4.08
339.739	-14.08
339.87	-3.08
340.001	-6.08
340.132	12.92
340.263	8.92
340.394	15.92
340.525	-10.08
340.656	11.92
340.787	-2.08
340.918	20.92
341.049	29.92
341.179	3.92
341.31	20.92
341.441	18.92
341.572	42.92
341.703	16.92
341.834	-17.08
341.965	2.92
342.096	-11.08
342.227	18.92
342.357	6.92
342.488	2.92
342.619	11.92
342.75	17.92
342.881	-0.08
343.012	25.92
343.142	26.92
343.273	-2.08
343.404	8.92
343.535	32.92
343.666	15.92
343.796	7.92
343.927	10.92
344.058	28.92
344.189	29.92
344.319	10.92
344.45	5.92
344.581	1.92
344.712	-22.08
344.842	-4.08
344.973	5.92
345.104	20.92
345.234	12.92
345.365	-12.08
345.496	2.92
345.626	14.92
345.757	-0.08
345.888	-9.08
346.018	15.92
346.149	-0.08
346.28	21.92
346.41	-12.08
346.541	4.92
346.672	1.92
346.802	-3.08
346.933	0.92
347.063	17.92
347.194	23.92
347.325	19.92
347.455	19.92
347.586	23.92
347.716	4.92
347.847	22.92
347.977	10.92
348.108	4.92
348.238	16.92
348.369	-0.08
348.499	20.92
348.63	14.92
348.76	6.92
348.891	13.92
349.021	16.92
349.152	-0.08
349.282	9.92
349.413	11.92
349.543	14.92
349.674	0.92
349.804	12.92
349.935	-19.08
350.065	3.92
350.196	-10.08
350.326	1.92
350.456	0.92
350.587	27.92
350.717	-1.08
350.848	2.92
350.978	15.92
351.108	-21.08
351.239	29.92
351.369	11.92
351.499	-0.08
351.63	11.92
351.76	28.92
351.89	0.92
352.021	9.92
352.151	11.92
352.281	7.92
352.412	11.92
352.542	-0.08
352.672	-11.08
352.803	-1.08
352.933	20.92
353.063	11.92
353.193	15.92
353.324	-5.08
353.454	26.92
353.584	28.92
353.714	15.92
353.845	17.92
353.975	5.92
354.105	7.92
354.235	8.92
354.365	9.92
354.496	10.92
354.626	32.92
354.756	14.92
354.886	-10.08
355.016	2.92
355.146	7.92
355.277	-8.08
355.407	-5.08
355.537	4.92
355.667	12.92
355.797	-5.08
355.927	1.92
356.057	1.92
356.187	-19.08
356.318	-11.08
356.448	11.92
356.578	16.92
356.708	22.92
356.838	6.92
356.968	2.92
357.098	20.92
357.228	18.92
357.358	2.92
357.488	-1.08
357.618	27.92
357.748	28.92
357.878	15.92
358.008	-2.08
358.138	-0.08
358.268	14.92
358.398	20.92
358.528	1.92
358.658	15.92
358.788	6.92
358.918	8.92
359.048	10.92
359.178	-2.08
359.308	30.92
359.438	9.92
359.568	25.92
359.698	11.92
359.827	6.92
359.957	11.92
360.087	6.92
360.217	7.92
360.347	-3.08
360.477	16.92
360.607	-4.08
360.737	16.92
360.866	15.92
360.996	-8.08
361.126	-12.08
361.256	30.92
361.386	4.92
361.516	19.92
361.645	9.92
361.775	12.92
361.905	-5.08
362.035	11.92
362.165	15.92
362.294	9.92
362.424	24.92
362.554	23.92
362.684	-22.08
362.813	13.92
362.943	-10.08
363.073	-5.08
363.203	23.92
363.332	14.92
363.462	8.92
363.592	1.92
363.721	-20.08
363.851	12.92
363.981	17.92
364.111	9.92
364.24	-10.08
364.37	2.92
364.5	18.92
364.629	2.92
364.759	-12.08
364.888	-10.08
365.018	10.92
365.148	-1.08
365.277	23.92
365.407	13.92
365.537	14.92
365.666	21.92
365.796	7.92
365.925	12.92
366.055	22.92
366.184	7.92
366.314	11.92
366.444	28.92
366.573	14.92
366.703	4.92
366.832	19.92
366.962	2.92
367.091	17.92
367.221	2.92
367.35	11.92
367.48	33.92
367.609	5.92
367.739	8.92
367.868	-9.08
367.998	10.92
368.127	11.92
368.257	28.92
368.386	30.92
368.516	13.92
368.645	12.92
368.775	9.92
368.904	1.92
369.033	-2.08
369.163	8.92
369.292	21.92
369.422	13.92
369.551	17.92
369.68	10.92
369.81	3.92
369.939	-13.08
370.069	9.92
370.198	13.92
370.327	-13.08
370.457	11.92
370.586	18.92
370.715	15.92
370.845	9.92
370.974	14.92
371.103	22.92
371.233	18.92
371.362	14.92
371.491	-4.08
371.621	13.92
371.75	9.92
371.879	-23.08
372.008	12.92
372.138	29.92
372.267	19.92
372.396	-2.08
372.525	-2.08
372.655	21.92
372.784	2.92
372.913	13.92
373.042	11.92
373.172	18.92
373.301	6.92
373.43	-6.08
373.559	-16.08
373.688	-4.08
373.818	10.92
373.947	18.92
374.076	5.92
374.205	5.92
374.334	13.92
374.463	-0.08
374.593	10.92
374.722	12.92
374.851	27.92
374.98	-11.08
375.109	7.92
375.238	7.92
375.367	36.92
375.496	-10.08
375.625	-2.08
375.755	3.92
375.884	12.92
376.013	9.92
376.142	-8.08
376.271	0.92
376.4	2.92
376.529	-10.08
376.658	13.92
376.787	5.92
376.916	17.92
377.045	-0.08
377.174	5.92
377.303	-1.08
377.432	31.92
377.561	24.92
377.69	-6.08
377.819	37.92
377.948	8.92
378.077	10.92
378.206	-11.08
378.335	-0.08
378.464	8.92
378.593	35.92
378.722	7.92
378.851	8.92
378.98	26.92
379.108	-3.08
379.237	10.92
379.366	10.92
379.495	30.92
379.624	27.92
379.753	5.92
379.882	11.92
380.011	-2.08
380.14	5.92
380.268	9.92
380.397	2.92
380.526	43.92
380.655	-0.08
380.784	-12.08
380.913	-14.08
381.041	4.92
381.17	7.92
381.299	-1.08
381.428	3.92
381.557	20.92
381.685	4.92
381.814	-0.08
381.943	-0.08
382.072	-7.08
382.2	2.92
382.329	-0.08
382.458	15.92
382.587	20.92
382.715	22.92
382.844	15.92
382.973	19.92
383.102	17.92
383.23	0.92
383.359	-13.08
383.488	25.92
383.616	13.92
383.745	0.92
383.874	15.92
384.003	2.92
384.131	12.92
384.26	8.92
384.389	21.92
384.517	-14.08
384.646	-10.08
384.774	-2.08
384.903	12.92
385.032	11.92
385.16	14.92
385.289	-4.08
385.418	-8.08
385.546	6.92
385.675	26.92
385.803	-14.08
385.932	9.92
386.06	-3.08
386.189	3.92
386.318	3.92
386.446	4.92
386.575	9.92
386.703	15.92
386.832	2.92
386.96	-17.08
387.089	9.92
387.217	3.92
387.346	-5.08
387.474	2.92
387.603	2.92
387.731	7.92
387.86	22.92
387.988	11.92
388.117	22.92
388.245	2.92
388.374	-9.08
388.502	21.92
388.631	1.92
388.759	2.92
388.888	7.92
389.016	14.92
389.144	11.92
389.273	7.92
389.401	1.92
389.53	-9.08
389.658	11.92
389.786	-10.08
389.915	2.92
390.043	-14.08
390.172	19.92
390.3	10.92
390.428	8.92
390.557	-6.08
390.685	8.92
390.813	15.92
390.942	13.92
391.07	-4.08
391.198	16.92
391.327	9.92
391.455	-7.08
391.583	34.92
391.712	-7.08
391.84	1.92
391.968	-17.08
392.096	-2.08
392.225	4.92
392.353	22.92
392.481	12.92
392.609	9.92
392.738	10.92
392.866	18.92
392.994	-7.08
393.122	24.92
393.251	-1.08
393.379	5.92
393.507	-12.08
393.635	0.92
393.764	22.92
393.892	9.92
394.02	11.92
394.148	5.92
394.276	-4.08
394.404	24.92
394.533	4.92
394.661	15.92
394.789	5.92
394.917	43.92
395.045	-2.08
395.173	-6.08
395.302	1.92
395.43	10.92
395.558	33.92
395.686	31.92
395.814	34.92
395.942	15.92
396.07	0.92
396.198	16.92
396.326	20.92
396.454	8.92
396.582	-5.08
396.711	-11.08
396.839	15.92
396.967	-1.08
397.095	4.92
397.223	5.92
397.351	27.92
397.479	8.92
397.607	4.92
397.735	29.92
397.863	19.92
397.991	12.92
398.119	-8.08
398.247	2.92
398.375	-4.08
398.503	26.92
398.631	13.92
398.759	11.92
398.887	12.92
399.015	0.92
399.143	5.92
399.271	7.92
399.399	9.92
399.526	23.92
399.654	14.92
399.782	3.92
399.91	36.92
400.038	27.92
400.166	-0.08
400.294	8.92
400.422	5.92
400.55	13.92
400.678	-1.08
400.805	18.92
400.933	6.92
401.061	2.92
401.189	0.92
401.317	16.92
401.445	28.92
401.573	14.92
401.7	1.92
401.828	-9.08
401.956	-18.08
402.084	10.92
402.212	1.92
402.34	9.92
402.467	-5.08
402.595	6.92
402.723	22.92
402.851	17.92
402.978	14.92
403.106	27.92
403.234	3.92
403.362	27.92
403.489	18.92
403.617	20.92
403.745	22.92
403.873	-13.08
404	27.92
404.128	24.92
404.256	20.92
404.384	25.92
404.511	18.92
404.639	19.92
404.767	18.92
404.894	22.92
405.022	17.92
405.15	25.92
405.277	4.92
405.405	15.92
405.533	3.92
405.66	3.92
405.788	-9.08
405.916	-13.08
406.043	-16.08
406.171	-15.08
406.299	-1.08
406.426	7.92
406.554	16.92
406.681	31.92
406.809	3.92
406.937	5.92
407.064	-1.08
407.192	9.92
407.319	14.92
407.447	-10.08
407.574	21.92
407.702	-0.08
407.83	9.92
407.957	4.92
408.085	20.92
408.212	7.92
408.34	-0.08
408.467	-10.08
408.595	8.92
408.722	22.92
408.85	22.92
408.977	-0.08
409.105	14.92
409.232	13.92
409.36	4.92
409.487	9.92
409.615	8.92
409.742	23.92
409.87	31.92
409.997	50.92
410.125	58.92
410.252	48.92
410.379	53.92
410.507	33.92
410.634	3.92
410.762	31.92
410.889	23.92
411.017	6.92
411.144	16.92
411.271	2.92
411.399	9.92
411.526	-4.08
411.653	32.92
411.781	33.92
411.908	16.92
412.036	21.92
412.163	25.92
412.29	23.92
412.418	10.92
412.545	26.92
412.672	20.92
412.8	36.92
412.927	9.92
413.054	32.92
413.182	18.92
413.309	4.92
413.436	-1.08
413.564	11.92
413.691	16.92
413.818	32.92
413.945	-2.08
414.073	9.92
414.2	14.92
414.327	17.92
414.454	-1.08
414.582	19.92
414.709	4.92
414.836	10.92
414.963	16.92
415.091	10.92
415.218	8.92
415.345	9.92
415.472	-3.08
415.6	5.92
415.727	12.92
415.854	4.92
415.981	9.92
416.108	9.92
416.236	11.92
416.363	13.92
416.49	-8.08
416.617	4.92
416.744	11.92
416.871	15.92
416.998	14.92
417.126	9.92
417.253	-10.08
417.38	8.92
417.507	9.92
417.634	13.92
417.761	21.92
417.888	-2.08
418.015	11.92
418.143	17.92
418.27	18.92
418.397	10.92
418.524	16.92
418.651	11.92
418.778	16.92
418.905	27.92
419.032	5.92
419.159	19.92
419.286	34.92
419.413	18.92
419.54	21.92
419.667	14.92
419.794	-3.08
419.921	18.92
420.048	30.92
420.175	20.92
420.302	1.92
420.429	4.92
420.556	7.92
420.683	-2.08
420.81	13.92
420.937	28.92
421.064	27.92
421.191	11.92
421.318	19.92
421.445	38.92
421.572	7.92
421.699	10.92
421.826	18.92
421.953	-2.08
422.08	1.92
422.207	-0.08
422.334	3.92
422.461	32.92
422.588	3.92
422.714	28.92
422.841	26.92
422.968	20.92
423.095	8.92
423.222	-5.08
423.349	12.92
423.476	27.92
423.603	12.92
423.729	-11.08
423.856	1.92
423.983	11.92
424.11	-10.08
424.237	23.92
424.364	11.92
424.491	25.92
424.617	5.92
424.744	11.92
424.871	18.92
424.998	11.92
425.125	2.92
425.251	6.92
425.378	-7.08
425.505	23.92
425.632	3.92
425.758	-1.08
425.885	23.92
426.012	35.92
426.139	23.92
426.266	12.92
426.392	-1.08
426.519	8.92
426.646	21.92
426.772	33.92
426.899	10.92
427.026	3.92
427.153	-1.08
427.279	21.92
427.406	21.92
427.533	10.92
427.659	-11.08
427.786	11.92
427.913	35.92
428.039	13.92
428.166	16.92
428.293	21.92
428.419	4.92
428.546	12.92
428.673	-13.08
428.799	3.92
428.926	14.92
429.053	13.92
429.179	20.92
429.306	25.92
429.433	15.92
429.559	15.92
429.686	-2.08
429.812	-4.08
429.939	-6.08
430.066	6.92
430.192	5.92
430.319	0.92
430.445	11.92
430.572	18.92
430.699	5.92
430.825	-13.08
430.952	3.92
431.078	20.92
431.205	9.92
431.331	9.92
431.458	5.92
431.584	6.92
431.711	-12.08
431.837	9.92
431.964	8.92
432.09	-8.08
432.217	-10.08
432.343	-0.08
432.47	33.92
432.596	8.92
432.723	4.92
432.849	7.92
432.976	8.92
433.102	14.92
433.229	16.92
433.355	31.92
433.482	76.92
433.608	158.92
433.735	137.92
433.861	131.92
433.987	151.92
434.114	225.92
434.24	208.92
434.367	97.92
434.493	-0.08
434.62	14.92
434.746	14.92
434.872	10.92
434.999	10.92
435.125	11.92
435.252	22.92
435.378	27.92
435.504	8.92
435.631	19.92
435.757	28.92
435.883	19.92
436.01	17.92
436.136	3.92
436.262	29.92
436.389	9.92
436.515	29.92
436.641	14.92
436.768	24.92
436.894	22.92
437.02	5.92
437.147	36.92
437.273	24.92
437.399	5.92
437.526	21.92
437.652	14.92
437.778	13.92
437.904	-9.08
438.031	11.92
438.157	-1.08
438.283	-0.08
438.409	0.92
438.536	12.92
438.662	24.92
438.788	23.92
438.914	24.92
439.041	31.92
439.167	37.92
439.293	-13.08
439.419	3.92
439.546	1.92
439.672	8.92
439.798	3.92
439.924	23.92
440.05	25.92
440.177	40.92
440.303	11.92
440.429	10.92
440.555	11.92
440.681	2.92
440.807	12.92
440.934	6.92
441.06	30.92
441.186	15.92
441.312	5.92
441.438	14.92
441.564	19.92
441.69	33.92
441.816	17.92
441.943	16.92
442.069	14.92
442.195	16.92
442.321	26.92
442.447	6.92
442.573	-5.08
442.699	-19.08
442.825	-16.08
442.951	21.92
443.077	24.92
443.203	40.92
443.33	11.92
443.456	2.92
443.582	17.92
443.708	0.92
443.834	15.92
443.96	21.92
444.086	11.92
444.212	39.92
444.338	11.92
444.464	20.92
444.59	16.92
444.716	17.92
444.842	25.92
444.968	1.92
445.094	8.92
445.22	10.92
445.346	-13.08
445.472	15.92
445.598	16.92
445.724	1.92
445.85	-4.08
445.976	22.92
446.102	31.92
446.228	24.92
446.354	15.92
446.48	15.92
446.605	15.92
446.731	37.92
446.857	8.92
446.983	21.92
447.109	4.92
447.235	12.92
447.361	1.92
447.487	23.92
447.613	14.92
447.739	10.92
447.865	10.92
447.99	11.92
448.116	11.92
448.242	15.92
448.368	-3.08
448.494	15.92
448.62	27.92
448.746	12.92
448.872	5.92
448.997	-3.08
449.123	13.92
449.249	40.92
449.375	23.92
449.501	19.92
449.627	-10.08
449.752	15.92
449.878	5.92
450.004	-5.08
450.13	35.92
450.256	11.92
450.381	14.92
450.507	26.92
450.633	11.92
450.759	24.92
450.884	5.92
451.01	4.92
451.136	1.92
451.262	29.92
451.388	21.92
451.513	8.92
451.639	8.92
451.765	27.92
451.89	4.92
452.016	9.92
452.142	2.92
452.268	25.92
452.393	25.92
452.519	6.92
452.645	12.92
452.771	8.92
452.896	1.92
453.022	-4.08
453.148	2.92
453.273	30.92
453.399	-8.08
453.525	-10.08
453.65	15.92
453.776	13.92
453.902	0.92
454.027	23.92
454.153	15.92
454.279	18.92
454.404	11.92
454.53	36.92
454.656	43.92
454.781	6.92
454.907	-5.08
455.032	14.92
455.158	28.92
455.284	24.92
455.409	24.92
455.535	34.92
455.66	24.92
455.786	20.92
455.912	1.92
456.037	-10.08
456.163	7.92
456.288	36.92
456.414	2.92
456.539	-5.08
456.665	11.92
456.791	16.92
456.916	11.92
457.042	-10.08
457.167	-5.08
457.293	11.92
457.418	29.92
457.544	11.92
457.669	10.92
457.795	9.92
457.92	25.92
458.046	10.92
458.171	20.92
458.297	-3.08
458.422	-1.08
458.548	1.92
458.673	13.92
458.799	14.92
458.924	1.92
459.05	15.92
459.175	5.92
459.301	-2.08
459.426	19.92
459.552	11.92
459.677	7.92
459.803	22.92
459.928	25.92
460.053	1.92
460.179	-3.08
460.304	10.92
460.43	2.92
460.555	13.92
460.681	10.92
460.806	6.92
460.931	8.92
461.057	19.92
461.182	26.92
461.308	13.92
461.433	4.92
461.558	-2.08
461.684	9.92
461.809	22.92
461.934	19.92
462.06	35.92
462.185	8.92
462.311	5.92
462.436	12.92
462.561	6.92
462.687	7.92
462.812	8.92
462.937	-1.08
463.063	8.92
463.188	13.92
463.313	12.92
463.439	10.92
463.564	18.92
463.689	17.92
463.814	19.92
463.94	9.92
464.065	26.92
464.19	16.92
464.316	17.92
464.441	-4.08
464.566	-3.08
464.692	3.92
464.817	18.92
464.942	12.92
465.067	19.92
465.193	-11.08
465.318	1.92
465.443	17.92
465.568	19.92
465.694	-0.08
465.819	24.92
465.944	15.92
466.069	10.92
466.194	21.92
466.32	22.92
466.445	15.92
466.57	-8.08
466.695	10.92
466.82	35.92
466.946	25.92
467.071	5.92
467.196	1.92
467.321	-5.08
467.446	3.92
467.572	10.92
467.697	-2.08
467.822	18.92
467.947	33.92
468.072	1.92
468.197	-8.08
468.323	16.92
468.448	-13.08
468.573	-2.08
468.698	-3.08
468.823	25.92
468.948	22.92
469.073	14.92
469.198	29.92
469.324	42.92
469.449	-0.08
469.574	14.92
469.699	13.92
469.824	17.92
469.949	35.92
470.074	17.92
470.199	56.92
470.324	23.92
470.449	20.92
470.574	-0.08
470.7	-3.08
470.825	15.92
470.95	27.92
471.075	9.92
471.2	7.92
471.325	12.92
471.45	7.92
471.575	6.92
471.7	8.92
471.825	-11.08
471.95	-2.08
472.075	-2.08
472.2	-0.08
472.325	9.92
472.45	-4.08
472.575	14.92
472.7	24.92
472.825	56.92
472.95	24.92
473.075	16.92
473.2	-7.08
473.325	11.92
473.45	3.92
473.575	4.92
473.7	18.92
473.825	-6.08
473.95	24.92
474.075	6.92
474.2	11.92
474.325	-1.08
474.45	24.92
474.574	32.92
474.699	29.92
474.824	13.92
474.949	0.92
475.074	23.92
475.199	17.92
475.324	28.92
475.449	5.92
475.574	15.92
475.699	13.92
475.824	10.92
475.949	4.92
476.073	10.92
476.198	-0.08
476.323	6.92
476.448	9.92
476.573	10.92
476.698	16.92
476.823	25.92
476.947	36.92
477.072	9.92
477.197	19.92
477.322	17.92
477.447	12.92
477.572	23.92
477.697	11.92
477.821	11.92
477.946	16.92
478.071	19.92
478.196	14.92
478.321	13.92
478.445	10.92
478.57	4.92
478.695	23.92
478.82	41.92
478.945	11.92
479.069	1.92
479.194	21.92
479.319	19.92
479.444	17.92
479.569	4.92
479.693	20.92
479.818	13.92
479.943	33.92
480.068	11.92
480.192	32.92
480.317	13.92
480.442	12.92
480.567	12.92
480.691	13.92
480.816	21.92
480.941	12.92
481.066	4.92
481.19	31.92
481.315	51.92
481.44	-0.08
481.564	-2.08
481.689	20.92
481.814	26.92
481.938	21.92
482.063	-2.08
482.188	25.92
482.313	19.92
482.437	14.92
482.562	10.92
482.687	37.92
482.811	26.92
482.936	25.92
483.061	26.92
483.185	32.92
483.31	32.92
483.435	28.92
483.559	8.92
483.684	10.92
483.808	35.92
483.933	21.92
484.058	14.92
484.182	26.92
484.307	5.92
484.432	7.92
484.556	15.92
484.681	11.92
484.805	16.92
484.93	22.92
485.055	42.92
485.179	82.92
485.304	127.92
485.428	377.92
485.553	1266.92
485.678	1754.92
485.802	1666.92
485.927	1821.92
486.051	2700.92
486.176	1649.92
486.3	450.92
486.425	140.92
486.549	85.92
486.674	47.92
486.799	43.92
486.923	25.92
487.048	17.92
487.172	12.92
487.297	54.92
487.421	37.92
487.546	21.92
487.67	30.92
487.795	3.92
487.919	6.92
488.044	23.92
488.168	26.92
488.293	5.92
488.417	7.92
488.542	17.92
488.666	34.92
488.791	21.92
488.915	32.92
489.04	25.92
489.164	15.92
489.289	28.92
489.413	23.92
489.538	13.92
489.662	33.92
489.786	20.92
489.911	22.92
490.035	3.92
490.16	5.92
490.284	15.92
490.409	3.92
490.533	27.92
490.658	14.92
490.782	21.92
490.906	21.92
491.031	18.92
491.155	28.92
491.28	41.92
491.404	22.92
491.528	13.92
491.653	8.92
491.777	27.92
491.902	-4.08
492.026	8.92
492.15	21.92
492.275	33.92
492.399	13.92
492.524	-4.08
492.648	30.92
492.772	24.92
492.897	38.92
493.021	-0.08
493.145	36.92
493.27	41.92
493.394	14.92
493.518	-1.08
493.643	2.92
493.767	21.92
493.891	-4.08
494.016	19.92
494.14	10.92
494.264	13.92
494.389	17.92
494.513	12.92
494.637	6.92
494.762	44.92
494.886	35.92
495.01	22.92
495.134	11.92
495.259	28.92
495.383	21.92
495.507	22.92
495.632	36.92
495.756	43.92
495.88	31.92
496.004	46.92
496.129	-2.08
496.253	17.92
496.377	21.92
496.501	40.92
496.626	3.92
496.75	30.92
496.874	27.92
496.998	10.92
497.123	47.92
497.247	18.92
497.371	7.92
497.495	9.92
497.62	5.92
497.744	26.92
497.868	19.92
497.992	8.92
498.116	6.92
498.241	22.92
498.365	11.92
498.489	5.92
498.613	17.92
498.737	7.92
498.862	19.92
498.986	-19.08
499.11	6.92
499.234	5.92
499.358	-3.08
499.482	22.92
499.607	23.92
499.731	13.92
499.855	24.92
499.979	9.92
500.103	13.92
500.227	29.92
500.351	29.92
500.476	10.92
500.6	10.92
500.724	23.92
500.848	33.92
500.972	28.92
501.096	25.92
501.22	42.92
501.344	4.92
501.469	10.92
501.593	24.92
501.717	-2.08
501.841	11.92
501.965	12.92
502.089	-1.08
502.213	22.92
502.337	1.92
502.461	5.92
502.585	9.92
502.709	15.92
502.834	19.92
502.958	5.92
503.082	19.92
503.206	14.92
503.33	28.92
503.454	19.92
503.578	18.92
503.702	23.92
503.826	7.92
503.95	34.92
504.074	12.92
504.198	24.92
504.322	1.92
504.446	9.92
504.57	13.92
504.694	14.92
504.818	-0.08
504.942	30.92
505.066	1.92
505.19	18.92
505.314	13.92
505.438	25.92
505.562	16.92
505.686	12.92
505.81	16.92
505.934	25.92
506.058	13.92
506.182	21.92
506.306	21.92
506.43	-1.08
506.554	9.92
506.678	17.92
506.802	11.92
506.926	21.92
507.05	18.92
507.174	35.92
507.298	15.92
507.422	15.92
507.546	19.92
507.67	26.92
507.794	10.92
507.918	8.92
508.042	13.92
508.165	-13.08
508.289	9.92
508.413	10.92
508.537	20.92
508.661	16.92
508.785	14.92
508.909	37.92
509.033	23.92
509.157	15.92
509.281	33.92
509.405	13.92
509.528	24.92
509.652	22.92
509.776	-5.08
509.9	11.92
510.024	14.92
510.148	5.92
510.272	3.92
510.396	19.92
510.519	8.92
510.643	27.92
510.767	12.92
510.891	12.92
511.015	25.92
511.139	21.92
511.263	35.92
511.386	6.92
511.51	14.92
511.634	-6.08
511.758	15.92
511.882	6.92
512.006	5.92
512.129	17.92
512.253	50.92
512.377	23.92
512.501	21.92
512.625	9.92
512.748	7.92
512.872	16.92
512.996	3.92
513.12	15.92
513.244	3.92
513.367	37.92
513.491	28.92
513.615	29.92
513.739	-1.08
513.862	7.92
513.986	15.92
514.11	31.92
514.234	6.92
514.358	19.92
514.481	16.92
514.605	10.92
514.729	23.92
514.853	18.92
514.976	3.92
515.1	15.92
515.224	30.92
515.348	21.92
515.471	15.92
515.595	17.92
515.719	12.92
515.842	43.92
515.966	25.92
516.09	35.92
516.214	3.92
516.337	31.92
516.461	19.92
516.585	33.92
516.708	19.92
516.832	20.92
516.956	21.92
517.08	21.92
517.203	-6.08
517.327	13.92
517.451	42.92
517.574	37.92
517.698	10.92
517.822	24.92
517.945	13.92
518.069	49.92
518.193	56.92
518.316	45.92
518.44	37.92
518.564	14.92
518.687	14.92
518.811	30.92
518.935	55.92
519.058	33.92
519.182	30.92
519.306	29.92
519.429	20.92
519.553	57.92
519.676	26.92
519.8	15.92
519.924	6.92
520.047	22.92
520.171	3.92
520.294	2.92
520.418	18.92
520.542	8.92
520.665	24.92
520.789	20.92
520.913	6.92
521.036	-12.08
521.16	-0.08
521.283	10.92
521.407	11.92
521.53	7.92
521.654	1.92
521.778	29.92
521.901	15.92
522.025	-1.08
522.148	11.92
522.272	16.92
522.395	-4.08
522.519	21.92
522.643	-1.08
522.766	-0.08
522.89	20.92
523.013	33.92
523.137	-13.08
523.26	7.92
523.384	19.92
523.507	-1.08
523.631	13.92
523.754	-3.08
523.878	15.92
524.002	12.92
524.125	21.92
524.249	-7.08
524.372	13.92
524.496	33.92
524.619	13.92
524.743	26.92
524.866	18.92
524.99	19.92
525.113	5.92
525.237	26.92
525.36	11.92
525.484	10.92
525.607	-9.08
525.731	-9.08
525.854	9.92
525.978	33.92
526.101	0.92
526.224	16.92
526.348	13.92
526.471	8.92
526.595	17.92
526.718	11.92
526.842	4.92
526.965	22.92
527.089	6.92
527.212	13.92
527.336	4.92
527.459	19.92
527.582	14.92
527.706	20.92
527.829	14.92
527.953	13.92
528.076	3.92
528.2	10.92
528.323	16.92
528.446	28.92
528.57	34.92
528.693	27.92
528.817	20.92
528.94	14.92
529.064	32.92
529.187	-3.08
529.31	8.92
529.434	11.92
529.557	7.92
529.68	-9.08
529.804	1.92
529.927	19.92
530.051	0.92
530.174	7.92
530.297	11.92
530.421	13.92
530.544	19.92
530.668	7.92
530.791	13.92
530.914	35.92
531.038	31.92
531.161	17.92
531.284	12.92
531.408	14.92
531.531	13.92
531.654	12.92
531.778	14.92
531.901	10.92
532.024	41.92
532.148	4.92
532.271	12.92
532.394	19.92
532.518	37.92
532.641	29.92
532.764	34.92
532.888	24.92
533.011	2.92
533.134	3.92
533.258	20.92
533.381	-13.08
533.504	6.92
533.628	16.92
533.751	24.92
533.874	27.92
533.997	1.92
534.121	-9.08
534.244	-1.08
534.367	7.92
534.491	4.92
534.614	6.92
534.737	17.92
534.86	11.92
534.984	6.92
535.107	9.92
535.23	30.92
535.354	6.92
535.477	-18.08
535.6	9.92
535.723	25.92
535.847	20.92
535.97	-0.08
536.093	0.92
536.216	4.92
536.34	10.92
536.463	15.92
536.586	24.92
536.709	13.92
536.833	26.92
536.956	17.92
537.079	9.92
537.202	21.92
537.325	4.92
537.449	-1.08
537.572	27.92
537.695	-12.08
537.818	8.92
537.941	4.92
538.065	10.92
538.188	3.92
538.311	15.92
538.434	23.92
538.558	10.92
538.681	13.92
538.804	14.92
538.927	15.92
539.05	25.92
539.173	10.92
539.297	4.92
539.42	19.92
539.543	12.92
539.666	30.92
539.789	17.92
539.913	14.92
540.036	20.92
540.159	18.92
540.282	1.92
540.405	-11.08
540.528	13.92
540.651	19.92
540.775	9.92
540.898	-0.08
541.021	12.92
541.144	8.92
541.267	-4.08
541.39	-2.08
541.513	24.92
541.637	2.92
541.76	2.92
541.883	-1.08
542.006	36.92
542.129	31.92
542.252	7.92
542.375	3.92
542.498	-0.08
542.622	21.92
542.745	0.92
542.868	14.92
542.991	24.92
543.114	25.92
543.237	28.92
543.36	27.92
543.483	21.92
543.606	23.92
543.73	29.92
543.853	17.92
543.976	8.92
544.099	12.92
544.222	25.92
544.345	-2.08
544.468	-10.08
544.591	31.92
544.714	4.92
544.837	32.92
544.96	17.92
545.083	17.92
545.206	18.92
545.329	4.92
545.453	14.92
545.576	7.92
545.699	10.92
545.822	7.92
545.945	27.92
546.068	-1.08
546.191	16.92
546.314	18.92
546.437	26.92
546.56	28.92
546.683	23.92
546.806	26.92
546.929	6.92
547.052	-12.08
547.175	14.92
547.298	17.92
547.421	17.92
547.544	12.92
547.667	16.92
547.79	11.92
547.913	5.92
548.036	-1.08
548.159	12.92
548.282	4.92
548.405	-1.08
548.528	16.92
548.651	21.92
548.774	12.92
548.897	18.92
549.02	9.92
549.143	31.92
549.266	12.92
549.389	33.92
549.512	9.92
549.635	15.92
549.758	27.92
549.881	12.92
550.004	13.92
550.127	19.92
550.25	-2.08
550.373	-3.08
550.496	10.92
550.619	2.92
550.742	18.92
550.865	1.92
550.988	15.92
551.111	21.92
551.234	21.92
551.356	-4.08
551.479	-8.08
551.602	-4.08
551.725	22.92
551.848	15.92
551.971	19.92
552.094	10.92
552.217	7.92
552.34	3.92
552.463	11.92
552.586	0.92
552.709	9.92
552.832	12.92
552.955	13.92
553.077	9.92
553.2	5.92
553.323	-18.08
553.446	15.92
553.569	-13.08
553.692	5.92
553.815	14.92
553.938	25.92
554.061	33.92
554.184	21.92
554.306	23.92
554.429	23.92
554.552	7.92
554.675	-3.08
554.798	21.92
554.921	15.92
555.044	4.92
555.167	2.92
555.29	13.92
555.412	18.92
555.535	11.92
555.658	-3.08
555.781	11.92
555.904	3.92
556.027	13.92
556.15	11.92
556.272	-5.08
556.395	16.92
556.518	-2.08
556.641	21.92
556.764	19.92
556.887	23.92
557.01	5.92
557.132	3.92
557.255	10.92
557.378	13.92
557.501	23.92
557.624	45.92
557.747	-6.08
557.869	-5.08
557.992	24.92
558.115	22.92
558.238	10.92
558.361	24.92
558.483	41.92
558.606	3.92
558.729	6.92
558.852	34.92
558.975	33.92
559.098	20.92
559.22	26.92
559.343	21.92
559.466	11.92
559.589	0.92
559.712	13.92
559.834	27.92
559.957	22.92
560.08	3.92
560.203	22.92
560.325	33.92
560.448	40.92
560.571	-0.08
560.694	3.92
560.817	9.92
560.939	21.92
561.062	-15.08
561.185	3.92
561.308	-2.08
561.43	-7.08
561.553	7.92
561.676	3.92
561.799	19.92
561.921	-3.08
562.044	5.92
562.167	1.92
562.29	28.92
562.413	28.92
562.535	10.92
562.658	-1.08
562.781	15.92
562.903	19.92
563.026	6.92
563.149	43.92
563.272	17.92
563.394	6.92
563.517	6.92
563.64	-4.08
563.763	7.92
563.885	26.92
564.008	20.92
564.131	24.92
564.254	8.92
564.376	13.92
564.499	-1.08
564.622	-5.08
564.744	9.92
564.867	-8.08
564.99	5.92
565.113	26.92
565.235	16.92
565.358	1.92
565.481	-4.08
565.603	14.92
565.726	21.92
565.849	21.92
565.971	23.92
566.094	4.92
566.217	1.92
566.34	3.92
566.462	11.92
566.585	13.92
566.708	22.92
566.83	23.92
566.953	19.92
567.076	17.92
567.198	17.92
567.321	-0.08
567.444	10.92
567.566	12.92
567.689	-13.08
567.812	-11.08
567.934	14.92
568.057	1.92
568.18	11.92
568.302	2.92
568.425	-6.08
568.548	13.92
568.67	13.92
568.793	9.92
568.916	10.92
569.038	13.92
569.161	27.92
569.283	10.92
569.406	22.92
569.529	15.92
569.651	12.92
569.774	4.92
569.897	0.92
570.019	32.92
570.142	40.92
570.265	-1.08
570.387	9.92
570.51	25.92
570.632	30.92
570.755	8.92
570.878	4.92
571	28.92
571.123	6.92
571.246	43.92
571.368	19.92
571.491	8.92
571.613	-7.08
571.736	-4.08
571.859	25.92
571.981	5.92
572.104	-1.08
572.226	-2.08
572.349	-10.08
572.472	-12.08
572.594	18.92
572.717	14.92
572.839	2.92
572.962	20.92
573.085	15.92
573.207	22.92
573.33	14.92
573.452	24.92
573.575	32.92
573.697	18.92
573.82	4.92
573.943	5.92
574.065	7.92
574.188	19.92
574.31	22.92
574.433	26.92
574.555	25.92
574.678	-6.08
574.801	10.92
574.923	13.92
575.046	1.92
575.168	3.92
575.291	1.92
575.413	10.92
575.536	2.92
575.659	21.92
575.781	7.92
575.904	10.92
576.026	5.92
576.149	11.92
576.271	23.92
576.394	19.92
576.516	22.92
576.639	10.92
576.761	1.92
576.884	6.92
577.007	15.92
577.129	13.92
577.252	10.92
577.374	23.92
577.497	3.92
577.619	1.92
577.742	14.92
577.864	31.92
577.987	21.92
578.109	35.92
578.232	24.92
578.354	15.92
578.477	3.92
578.599	14.92
578.722	20.92
578.844	4.92
578.967	-4.08
579.089	26.92
579.212	-8.08
579.334	4.92
579.457	25.92
579.579	11.92
579.702	-6.08
579.824	15.92
579.947	8.92
580.069	13.92
580.192	8.92
580.314	18.92
580.437	4.92
580.559	37.92
580.682	27.92
580.804	37.92
580.927	21.92
581.049	36.92
581.172	23.92
581.294	22.92
581.417	24.92
581.539	13.92
581.662	20.92
581.784	18.92
581.907	11.92
582.029	18.92
582.152	-4.08
582.274	35.92
582.396	22.92
582.519	9.92
582.641	17.92
582.764	12.92
582.886	19.92
583.009	-0.08
583.131	-14.08
583.254	17.92
583.376	22.92
583.499	20.92
583.621	27.92
583.743	17.92
583.866	21.92
583.988	3.92
584.111	11.92
584.233	20.92
584.356	24.92
584.478	3.92
584.601	-5.08
584.723	1.92
584.845	25.92
584.968	9.92
585.09	17.92
585.213	4.92
585.335	-7.08
585.458	19.92
585.58	7.92
585.702	11.92
585.825	18.92
585.947	9.92
586.07	4.92
586.192	-8.08
586.315	23.92
586.437	8.92
586.559	4.92
586.682	13.92
586.804	29.92
586.927	14.92
587.049	11.92
587.171	16.92
587.294	18.92
587.416	32.92
587.539	14.92
587.661	10.92
587.783	-4.08
587.906	-4.08
588.028	25.92
588.151	21.92
588.273	27.92
588.395	-2.08
588.518	-0.08
588.64	-3.08
588.763	29.92
588.885	35.92
589.007	10.92
589.13	-4.08
589.252	-6.08
589.375	22.92
589.497	2.92
589.619	-2.08
589.742	14.92
589.864	15.92
589.986	0.92
590.109	-2.08
590.231	-4.08
590.354	10.92
590.476	-14.08
590.598	-7.08
590.721	-0.08
590.843	11.92
590.965	19.92
591.088	29.92
591.21	8.92
591.332	1.92
591.455	-2.08
591.577	22.92
591.7	24.92
591.822	1.92
591.944	-0.08
592.067	2.92
592.189	18.92
592.311	36.92
592.434	28.92
592.556	7.92
592.678	9.92
592.801	11.92
592.923	8.92
593.045	4.92
593.168	-14.08
593.29	6.92
593.412	12.92
593.535	6.92
593.657	-0.08
593.779	13.92
593.902	15.92
594.024	20.92
594.146	21.92
594.269	17.92
594.391	3.92
594.513	-3.08
594.636	7.92
594.758	-3.08
594.88	21.92
595.003	29.92
595.125	17.92
595.247	19.92
595.37	17.92
595.492	8.92
595.614	14.92
595.737	7.92
595.859	12.92
595.981	12.92
596.104	6.92
596.226	2.92
596.348	10.92
596.471	7.92
596.593	11.92
596.715	12.92
596.838	-2.08
596.96	15.92
597.082	18.92
597.204	15.92
597.327	6.92
597.449	33.92
597.571	32.92
597.694	24.92
597.816	17.92
597.938	6.92
598.061	18.92
598.183	4.92
598.305	22.92
598.427	25.92
598.55	11.92
598.672	22.92
598.794	12.92
598.917	-2.08
599.039	-6.08
599.161	18.92
599.283	24.92
599.406	15.92
599.528	26.92
599.65	45.92
599.773	17.92
599.895	11.92
600.017	25.92
600.139	-0.08
600.262	-4.08
600.384	14.92
600.506	10.92
600.628	9.92
600.751	43.92
600.873	27.92
600.995	8.92
601.118	34.92
601.24	17.92
601.362	41.92
601.484	32.92
601.607	45.92
601.729	4.92
601.851	5.92
601.973	14.92
602.096	14.92
602.218	32.92
602.34	46.92
602.462	27.92
602.585	14.92
602.707	0.92
602.829	22.92
602.951	-0.08
603.074	-13.08
603.196	9.92
603.318	2.92
603.44	22.92
603.563	20.92
603.685	-1.08
603.807	8.92
603.929	-0.08
604.052	26.92
604.174	15.92
604.296	10.92
604.418	15.92
604.541	41.92
604.663	-2.08
604.785	20.92
604.907	24.92
605.03	9.92
605.152	29.92
605.274	3.92
605.396	8.92
605.519	0.92
605.641	2.92
605.763	6.92
605.885	24.92
606.008	18.92
606.13	23.92
606.252	12.92
606.374	0.92
606.496	1.92
606.619	19.92
606.741	-4.08
606.863	29.92
606.985	31.92
607.108	13.92
607.23	8.92
607.352	21.92
607.474	15.92
607.596	15.92
607.719	-2.08
607.841	11.92
607.963	11.92
608.085	15.92
608.207	38.92
608.33	27.92
608.452	7.92
608.574	16.92
608.696	17.92
608.819	9.92
608.941	15.92
609.063	11.92
609.185	9.92
609.307	18.92
609.43	21.92
609.552	15.92
609.674	8.92
609.796	12.92
609.918	31.92
610.041	17.92
610.163	12.92
610.285	7.92
610.407	9.92
610.529	-3.08
610.652	10.92
610.774	19.92
610.896	11.92
611.018	17.92
611.14	12.92
611.263	2.92
611.385	22.92
611.507	6.92
611.629	-5.08
611.751	28.92
611.873	47.92
611.996	31.92
612.118	19.92
612.24	2.92
612.362	29.92
612.484	17.92
612.607	9.92
612.729	26.92
612.851	-5.08
612.973	2.92
613.095	-1.08
613.218	22.92
613.34	37.92
613.462	13.92
613.584	4.92
613.706	9.92
613.828	27.92
613.951	-19.08
614.073	6.92
614.195	9.92
614.317	36.92
614.439	38.92
614.561	14.92
614.684	20.92
614.806	12.92
614.928	15.92
615.05	18.92
615.172	27.92
615.294	28.92
615.417	13.92
615.539	7.92
615.661	-0.08
615.783	23.92
615.905	22.92
616.027	59.92
616.15	100.92
616.272	84.92
616.394	54.92
616.516	62.92
616.638	17.92
616.76	22.92
616.883	13.92
617.005	-3.08
617.127	21.92
617.249	0.92
617.371	22.92
617.493	24.92
617.615	8.92
617.738	13.92
617.86	1.92
617.982	5.92
618.104	-1.08
618.226	7.92
618.348	9.92
618.471	17.92
618.593	19.92
618.715	9.92
618.837	14.92
618.959	18.92
619.081	15.92
619.203	22.92
619.326	14.92
619.448	13.92
619.57	10.92
619.692	18.92
619.814	18.92
619.936	10.92
620.058	18.92
620.181	13.92
620.303	5.92
620.425	23.92
620.547	7.92
620.669	10.92
620.791	14.92
620.913	8.92
621.036	-5.08
621.158	16.92
621.28	6.92
621.402	-14.08
621.524	14.92
621.646	14.92
621.768	-11.08
621.891	-4.08
622.013	22.92
622.135	5.92
622.257	1.92
622.379	-1.08
622.501	20.92
622.623	3.92
622.745	4.92
622.868	26.92
622.99	15.92
623.112	9.92
623.234	-2.08
623.356	3.92
623.478	4.92
623.6	15.92
623.722	9.92
623.845	6.92
623.967	13.92
624.089	21.92
624.211	5.92
624.333	20.92
624.455	23.92
624.577	6.92
624.699	7.92
624.822	15.92
624.944	-10.08
625.066	-2.08
625.188	2.92
625.31	20.92
625.432	33.92
625.554	17.92
625.676	25.92
625.799	8.92
625.921	10.92
626.043	3.92
626.165	23.92
626.287	-2.08
626.409	11.92
626.531	14.92
626.653	11.92
626.775	21.92
626.898	7.92
627.02	7.92
627.142	43.92
627.264	6.92
627.386	2.92
627.508	17.92
627.63	15.92
627.752	21.92
627.874	13.92
627.997	19.92
628.119	14.92
628.241	13.92
628.363	17.92
628.485	35.92
628.607	9.92
628.729	9.92
628.851	-2.08
628.973	-0.08
629.096	10.92
629.218	7.92
629.34	15.92
629.462	-3.08
629.584	-0.08
629.706	5.92
629.828	25.92
629.95	5.92
630.072	5.92
630.195	9.92
630.317	27.92
630.439	24.92
630.561	13.92
630.683	15.92
630.805	17.92
630.927	7.92
631.049	6.92
631.171	15.92
631.293	2.92
631.416	7.92
631.538	1.92
631.66	-3.08
631.782	7.92
631.904	38.92
632.026	20.92
632.148	5.92
632.27	1.92
632.392	11.92
632.514	22.92
632.637	2.92
632.759	6.92
632.881	1.92
633.003	-0.08
633.125	1.92
633.247	5.92
633.369	27.92
633.491	2.92
633.613	30.92
633.735	13.92
633.858	1.92
633.98	19.92
634.102	11.92
634.224	14.92
634.346	9.92
634.468	18.92
634.59	21.92
634.712	8.92
634.834	20.92
634.956	5.92
635.078	1.92
635.201	-4.08
635.323	4.92
635.445	0.92
635.567	-1.08
635.689	5.92
635.811	17.92
635.933	15.92
636.055	8.92
636.177	8.92
636.299	21.92
636.421	-12.08
636.544	12.92
636.666	21.92
636.788	6.92
636.91	15.92
637.032	-5.08
637.154	-1.08
637.276	47.92
637.398	11.92
637.52	12.92
637.642	18.92
637.764	14.92
637.887	18.92
638.009	9.92
638.131	9.92
638.253	12.92
638.375	15.92
638.497	13.92
638.619	3.92
638.741	11.92
638.863	-0.08
638.985	-1.08
639.107	1.92
639.23	-9.08
639.352	21.92
639.474	2.92
639.596	7.92
639.718	6.92
639.84	20.92
639.962	23.92
640.084	5.92
640.206	19.92
640.328	4.92
640.45	8.92
640.573	9.92
640.695	5.92
640.817	1.92
640.939	20.92
641.061	11.92
641.183	18.92
641.305	10.92
641.427	14.92
641.549	24.92
641.671	13.92
641.793	2.92
641.915	26.92
642.038	6.92
642.16	7.92
642.282	12.92
642.404	3.92
642.526	15.92
642.648	17.92
642.77	29.92
642.892	19.92
643.014	20.92
643.136	21.92
643.258	17.92
643.381	27.92
643.503	18.92
643.625	9.92
643.747	5.92
643.869	4.92
643.991	20.92
644.113	23.92
644.235	-1.08
644.357	7.92
644.479	28.92
644.601	4.92
644.723	8.92
644.846	11.92
644.968	1.92
645.09	9.92
645.212	-4.08
645.334	25.92
645.456	16.92
645.578	29.92
645.7	20.92
645.822	-3.08
645.944	0.92
646.066	24.92
646.188	10.92
646.311	36.92
646.433	19.92
646.555	45.92
646.677	44.92
646.799	37.92
646.921	35.92
647.043	47.92
647.165	10.92
647.287	3.92
647.409	3.92
647.531	23.92
647.654	-14.08
647.776	20.92
647.898	28.92
648.02	1.92
648.142	11.92
648.264	6.92
648.386	-12.08
648.508	-0.08
648.63	0.92
648.752	17.92
648.874	21.92
648.997	13.92
649.119	17.92
649.241	5.92
649.363	18.92
649.485	23.92
649.607	9.92
649.729	1.92
649.851	-2.08
649.973	14.92
650.095	3.92
650.217	-4.08
650.34	3.92
650.462	30.92
650.584	21.92
650.706	24.92
650.828	20.92
650.95	-3.08
651.072	15.92
651.194	1.92
651.316	12.92
651.438	21.92
651.56	2.92
651.683	9.92
651.805	9.92
651.927	-4.08
652.049	19.92
652.171	0.92
652.293	4.92
652.415	7.92
652.537	1.92
652.659	0.92
652.781	11.92
652.903	14.92
653.026	24.92
653.148	17.92
653.27	11.92
653.392	9.92
653.514	7.92
653.636	10.92
653.758	19.92
653.88	-4.08
654.002	7.92
654.124	4.92
654.247	2.92
654.369	37.92
654.491	-6.08
654.613	11.92
654.735	5.92
654.857	22.92
654.979	15.92
655.101	28.92
655.223	35.92
655.345	25.92
655.468	31.92
655.59	20.92
655.712	25.92
655.834	22.92
655.956	34.92
656.078	33.92
656.2	44.92
656.322	30.92
656.444	15.92
656.566	55.92
656.689	59.92
656.811	50.92
656.933	111.92
657.055	80.92
657.177	158.92
657.299	250.92
657.421	515.92
657.543	1909.92
657.665	12631.92
657.787	15187.92
657.91	15293.92
658.032	15664.92
658.154	4679.92
658.276	3891.92
658.398	1270.92
658.52	1079.92
658.642	493.92
658.764	615.92
658.886	291.92
659.009	411.92
659.131	212.92
659.253	312.92
659.375	146.92
659.497	249.92
659.619	144.92
659.741	218.92
659.863	113.92
659.985	171.92
660.108	120.92
660.23	137.92
660.352	80.92
660.474	151.92
660.596	100.92
660.718	141.92
660.84	64.92
660.962	122.92
661.084	52.92
661.207	91.92
661.329	67.92
661.451	86.92
661.573	54.92
661.695	131.92
661.817	56.92
661.939	100.92
662.061	60.92
662.184	50.92
662.306	42.92
662.428	67.92
662.55	62.92
662.672	85.92
662.794	51.92
662.916	78.92
663.038	48.92
663.161	77.92
663.283	63.92
663.405	66.92
663.527	18.92
663.649	77.92
663.771	37.92
663.893	55.92
664.015	26.92
664.138	59.92
664.26	17.92
664.382	53.92
664.504	28.92
664.626	39.92
664.748	23.92
664.87	22.92
664.992	34.92
665.115	73.92
665.237	34.92
665.359	49.92
665.481	13.92
665.603	46.92
665.725	33.92
665.847	24.92
665.97	12.92
666.092	52.92
666.214	31.92
666.336	34.92
666.458	30.92
666.58	54.92
666.702	13.92
666.825	40.92
666.947	18.92
667.069	35.92
667.191	33.92
667.313	48.92
667.435	-9.08
667.557	26.92
667.68	15.92
667.802	24.92
667.924	13.92
668.046	52.92
668.168	19.92
668.29	59.92
668.412	19.92
668.535	32.92
668.657	10.92
668.779	5.92
668.901	17.92
669.023	45.92
669.145	10.92
669.267	41.92
669.39	16.92
669.512	36.92
669.634	5.92
669.756	14.92
669.878	25.92
670	29.92
670.123	18.92
670.245	33.92
670.367	33.92
670.489	32.92
670.611	9.92
670.733	18.92
670.856	21.92
670.978	38.92
671.1	24.92
671.222	31.92
671.344	1.92
671.466	29.92
671.589	6.92
671.711	16.92
671.833	11.92
671.955	21.92
672.077	6.92
672.199	53.92
672.322	29.92
672.444	29.92
672.566	25.92
672.688	21.92
672.81	16.92
672.932	39.92
673.055	24.92
673.177	6.92
673.299	15.92
673.421	17.92
673.543	20.92
673.665	23.92
673.788	21.92
673.91	18.92
674.032	7.92
674.154	24.92
674.276	24.92
674.399	8.92
674.521	9.92
674.643	27.92
674.765	-4.08
674.887	30.92
675.009	13.92
675.132	7.92
675.254	13.92
675.376	19.92
675.498	21.92
675.62	30.92
675.743	12.92
675.865	39.92
675.987	17.92
676.109	22.92
676.231	25.92
676.354	49.92
676.476	2.92
676.598	25.92
676.72	1.92
676.842	18.92
676.965	19.92
677.087	22.92
677.209	29.92
677.331	31.92
677.453	26.92
677.576	13.92
677.698	11.92
677.82	36.92
677.942	-0.08
678.064	8.92
678.187	-1.08
678.309	7.92
678.431	2.92
678.553	11.92
678.675	21.92
678.798	31.92
678.92	19.92
679.042	7.92
679.164	3.92
679.286	20.92
679.409	-2.08
679.531	0.92
679.653	7.92
679.775	11.92
679.898	-0.08
680.02	13.92
680.142	8.92
680.264	21.92
680.386	-14.08
680.509	21.92
680.631	6.92
680.753	29.92
680.875	17.92
680.998	10.92
681.12	21.92
681.242	12.92
681.364	-4.08
681.486	6.92
681.609	-3.08
681.731	-2.08
681.853	2.92
681.975	14.92
682.098	14.92
682.22	15.92
682.342	9.92
682.464	16.92
682.587	11.92
682.709	11.92
682.831	6.92
682.953	2.92
683.076	1.92
683.198	27.92
683.32	14.92
683.442	34.92
683.565	23.92
683.687	26.92
683.809	18.92
683.931	-1.08
684.054	9.92
684.176	23.92
684.298	19.92
684.42	6.92
684.543	4.92
684.665	23.92
684.787	5.92
684.909	-9.08
685.032	18.92
685.154	0.92
685.276	10.92
685.398	1.92
685.521	4.92
685.643	17.92
685.765	27.92
685.887	31.92
686.01	34.92
686.132	25.92
686.254	30.92
686.377	20.92
686.499	16.92
686.621	14.92
686.743	17.92
686.866	7.92
686.988	33.92
687.11	25.92
687.232	19.92
687.355	9.92
687.477	5.92
687.599	23.92
687.722	16.92
687.844	34.92
687.966	16.92
688.088	16.92
688.211	25.92
688.333	34.92
688.455	11.92
688.578	34.92
688.7	13.92
688.822	22.92
688.944	-12.08
689.067	60.92
689.189	20.92
689.311	5.92
689.434	4.92
689.556	21.92
689.678	14.92
689.801	8.92
689.923	11.92
690.045	33.92
690.167	32.92
690.29	21.92
690.412	12.92
690.534	20.92
690.657	9.92
690.779	9.92
690.901	35.92
691.024	5.92
691.146	-10.08
691.268	3.92
691.391	18.92
691.513	35.92
691.635	34.92
691.758	38.92
691.88	20.92
692.002	14.92
692.125	15.92
692.247	16.92
692.369	-2.08
692.492	3.92
692.614	6.92
692.736	15.92
692.859	5.92
692.981	-1.08
693.103	12.92
693.226	10.92
693.348	28.92
693.47	17.92
693.593	2.92
693.715	-7.08
693.837	16.92
693.96	21.92
694.082	-1.08
694.204	-9.08
694.327	18.92
694.449	2.92
694.571	12.92
694.694	16.92
694.816	15.92
694.938	10.92
695.061	12.92
695.183	15.92
695.305	15.92
695.428	24.92
695.55	-6.08
695.672	5.92
695.795	10.92
695.917	29.92
696.04	3.92
696.162	18.92
696.284	2.92
696.407	13.92
696.529	21.92
696.651	13.92
696.774	4.92
696.896	19.92
697.019	13.92
697.141	15.92
697.263	18.92
697.386	-9.08
697.508	6.92
697.63	6.92
697.753	33.92
697.875	30.92
697.998	-2.08
698.12	7.92
698.242	13.92
698.365	11.92
698.487	11.92
698.61	11.92
698.732	33.92
698.854	22.92
698.977	7.92
699.099	21.92
699.221	1.92
699.344	-4.08
699.466	14.92
699.589	-4.08
699.711	-2.08
699.834	9.92
699.956	18.92
700.078	2.92
700.201	2.92
700.323	12.92
700.446	16.92
700.568	2.92
700.69	18.92
700.813	10.92
700.935	-6.08
701.058	-0.08
701.18	-1.08
701.302	-2.08
701.425	-14.08
701.547	13.92
701.67	5.92
701.792	7.92
701.915	-2.08
702.037	15.92
702.159	13.92
702.282	26.92
702.404	0.92
702.527	15.92
702.649	28.92
702.772	34.92
702.894	21.92
703.017	13.92
703.139	17.92
703.261	28.92
703.384	25.92
703.506	18.92
703.629	-9.08
703.751	4.92
703.874	17.92
703.996	6.92
704.119	2.92
704.241	21.92
704.364	-3.08
704.486	13.92
704.608	12.92
704.731	7.92
704.853	33.92
704.976	5.92
705.098	4.92
705.221	-2.08
705.343	4.92
705.466	20.92
705.588	19.92
705.711	6.92
705.833	27.92
705.956	3.92
706.078	15.92
706.201	19.92
706.323	11.92
706.446	4.92
