Data from LowRes_H2_15_26_11_07_2024_HR4C61881__71__15-28-20-737.txt Node

Date: Thu Nov 07 15:28:20 EST 2024
User: crc00042
Spectrometer: HR4C6188
Trigger mode: 4
Integration Time (sec): 1.000000E-1
Scans to average: 1
Electric dark correction enabled: true
Nonlinearity correction enabled: false
Boxcar width: 0
XAxis mode: Wavelengths
Number of Pixels in Spectrum: 3648
>>>>>Begin Spectral Data<<<<<
245.66	-113.08
245.797	-113.08
245.934	-113.08
246.071	-50.08
246.208	13.92
246.344	10.92
246.481	-1.08
246.618	0.92
246.755	21.92
246.892	-7.08
247.029	-13.08
247.165	-4.08
247.302	9.92
247.439	2.92
247.576	4.92
247.713	-11.08
247.849	6.92
247.986	-22.08
248.123	20.92
248.26	-5.08
248.396	30.92
248.533	-11.08
248.67	-4.08
248.806	12.92
248.943	-5.08
249.08	11.92
249.216	16.92
249.353	-9.08
249.49	-5.08
249.626	10.92
249.763	-3.08
249.9	-3.08
250.036	-11.08
250.173	-0.08
250.309	3.92
250.446	16.92
250.582	5.92
250.719	-15.08
250.856	-9.08
250.992	-9.08
251.129	1.92
251.265	-4.08
251.402	0.92
251.538	-12.08
251.675	-21.08
251.811	23.92
251.948	26.92
252.084	19.92
252.221	-19.08
252.357	-9.08
252.493	28.92
252.63	10.92
252.766	8.92
252.903	6.92
253.039	1.92
253.175	1.92
253.312	8.92
253.448	-13.08
253.585	-17.08
253.721	-2.08
253.857	-8.08
253.994	10.92
254.13	12.92
254.266	-4.08
254.403	7.92
254.539	12.92
254.675	19.92
254.811	0.92
254.948	9.92
255.084	5.92
255.22	6.92
255.356	8.92
255.493	-8.08
255.629	-13.08
255.765	-10.08
255.901	25.92
256.037	7.92
256.174	-1.08
256.31	1.92
256.446	-16.08
256.582	-1.08
256.718	5.92
256.854	14.92
256.991	8.92
257.127	24.92
257.263	-0.08
257.399	4.92
257.535	-5.08
257.671	-7.08
257.807	-19.08
257.943	-16.08
258.079	-34.08
258.215	-2.08
258.351	11.92
258.487	6.92
258.623	38.92
258.759	13.92
258.895	-6.08
259.031	-1.08
259.167	-11.08
259.303	16.92
259.439	-15.08
259.575	4.92
259.711	1.92
259.847	-9.08
259.983	16.92
260.119	2.92
260.255	-4.08
260.391	7.92
260.527	8.92
260.663	9.92
260.799	6.92
260.934	-5.08
261.07	-11.08
261.206	-6.08
261.342	-9.08
261.478	12.92
261.614	7.92
261.749	8.92
261.885	-1.08
262.021	13.92
262.157	21.92
262.293	-2.08
262.428	10.92
262.564	-5.08
262.7	8.92
262.836	-9.08
262.971	11.92
263.107	22.92
263.243	11.92
263.378	10.92
263.514	-14.08
263.65	2.92
263.785	-10.08
263.921	-5.08
264.057	2.92
264.192	20.92
264.328	20.92
264.464	-9.08
264.599	6.92
264.735	4.92
264.871	0.92
265.006	7.92
265.142	11.92
265.277	13.92
265.413	10.92
265.548	23.92
265.684	10.92
265.819	1.92
265.955	-6.08
266.091	4.92
266.226	-7.08
266.362	8.92
266.497	18.92
266.633	7.92
266.768	-3.08
266.903	20.92
267.039	20.92
267.174	24.92
267.31	-4.08
267.445	-7.08
267.581	-5.08
267.716	28.92
267.851	12.92
267.987	12.92
268.122	16.92
268.258	-1.08
268.393	-11.08
268.528	16.92
268.664	-4.08
268.799	-17.08
268.934	6.92
269.07	4.92
269.205	11.92
269.34	34.92
269.476	10.92
269.611	-6.08
269.746	20.92
269.881	8.92
270.017	8.92
270.152	6.92
270.287	18.92
270.422	32.92
270.558	2.92
270.693	12.92
270.828	-5.08
270.963	-8.08
271.098	-0.08
271.234	16.92
271.369	14.92
271.504	-10.08
271.639	-1.08
271.774	11.92
271.909	0.92
272.045	-11.08
272.18	-13.08
272.315	3.92
272.45	28.92
272.585	-20.08
272.72	-20.08
272.855	7.92
272.99	24.92
273.125	-2.08
273.26	-13.08
273.395	-16.08
273.53	5.92
273.665	18.92
273.8	15.92
273.935	12.92
274.07	-21.08
274.205	-6.08
274.34	14.92
274.475	8.92
274.61	47.92
274.745	8.92
274.88	35.92
275.015	-4.08
275.15	1.92
275.285	26.92
275.42	5.92
275.555	15.92
275.69	9.92
275.825	11.92
275.959	16.92
276.094	1.92
276.229	6.92
276.364	-7.08
276.499	-0.08
276.634	-6.08
276.768	-6.08
276.903	17.92
277.038	-0.08
277.173	13.92
277.308	5.92
277.442	5.92
277.577	-5.08
277.712	-9.08
277.847	-5.08
277.981	9.92
278.116	-27.08
278.251	10.92
278.386	13.92
278.52	0.92
278.655	-4.08
278.79	26.92
278.924	7.92
279.059	25.92
279.194	-2.08
279.328	43.92
279.463	5.92
279.598	13.92
279.732	4.92
279.867	31.92
280.001	7.92
280.136	-7.08
280.271	13.92
280.405	6.92
280.54	-3.08
280.674	-2.08
280.809	33.92
280.943	9.92
281.078	12.92
281.213	15.92
281.347	17.92
281.482	13.92
281.616	1.92
281.751	-13.08
281.885	-6.08
282.02	2.92
282.154	5.92
282.288	-22.08
282.423	-20.08
282.557	-19.08
282.692	15.92
282.826	0.92
282.961	1.92
283.095	8.92
283.229	11.92
283.364	-2.08
283.498	23.92
283.633	23.92
283.767	10.92
283.901	17.92
284.036	1.92
284.17	-8.08
284.304	1.92
284.439	5.92
284.573	-12.08
284.707	11.92
284.842	-13.08
284.976	-8.08
285.11	-1.08
285.244	10.92
285.379	55.92
285.513	7.92
285.647	1.92
285.781	10.92
285.916	15.92
286.05	3.92
286.184	16.92
286.318	15.92
286.453	-1.08
286.587	-6.08
286.721	-7.08
286.855	13.92
286.989	18.92
287.123	-2.08
287.258	-6.08
287.392	-2.08
287.526	1.92
287.66	-8.08
287.794	7.92
287.928	1.92
288.062	-3.08
288.196	-10.08
288.33	13.92
288.464	15.92
288.598	18.92
288.733	24.92
288.867	6.92
289.001	-2.08
289.135	-9.08
289.269	-15.08
289.403	-11.08
289.537	4.92
289.671	5.92
289.805	0.92
289.939	7.92
290.073	6.92
290.207	27.92
290.34	2.92
290.474	17.92
290.608	12.92
290.742	12.92
290.876	9.92
291.01	1.92
291.144	24.92
291.278	28.92
291.412	3.92
291.546	-3.08
291.679	-10.08
291.813	-6.08
291.947	1.92
292.081	-5.08
292.215	0.92
292.349	23.92
292.482	10.92
292.616	16.92
292.75	-0.08
292.884	9.92
293.018	3.92
293.151	-14.08
293.285	12.92
293.419	-5.08
293.553	-2.08
293.686	-7.08
293.82	8.92
293.954	22.92
294.088	29.92
294.221	-12.08
294.355	3.92
294.489	1.92
294.622	-19.08
294.756	3.92
294.89	16.92
295.023	1.92
295.157	22.92
295.291	16.92
295.424	24.92
295.558	15.92
295.691	0.92
295.825	-5.08
295.959	9.92
296.092	6.92
296.226	0.92
296.359	4.92
296.493	6.92
296.627	2.92
296.76	15.92
296.894	-9.08
297.027	1.92
297.161	8.92
297.294	0.92
297.428	0.92
297.561	15.92
297.695	-0.08
297.828	-6.08
297.962	3.92
298.095	-4.08
298.229	-3.08
298.362	-4.08
298.495	-1.08
298.629	-4.08
298.762	0.92
298.896	0.92
299.029	-21.08
299.162	-2.08
299.296	-8.08
299.429	1.92
299.563	11.92
299.696	-1.08
299.829	9.92
299.963	22.92
300.096	7.92
300.229	17.92
300.363	-2.08
300.496	6.92
300.629	-10.08
300.763	-3.08
300.896	13.92
301.029	8.92
301.162	-1.08
301.296	8.92
301.429	12.92
301.562	-7.08
301.695	15.92
301.829	13.92
301.962	22.92
302.095	-2.08
302.228	-17.08
302.362	14.92
302.495	-14.08
302.628	6.92
302.761	-2.08
302.894	19.92
303.027	7.92
303.161	-17.08
303.294	-10.08
303.427	20.92
303.56	11.92
303.693	-2.08
303.826	-12.08
303.959	-1.08
304.092	-6.08
304.225	-19.08
304.359	-1.08
304.492	0.92
304.625	20.92
304.758	22.92
304.891	-12.08
305.024	4.92
305.157	1.92
305.29	-1.08
305.423	-8.08
305.556	23.92
305.689	16.92
305.822	-5.08
305.955	-9.08
306.088	0.92
306.221	5.92
306.354	-7.08
306.487	-7.08
306.62	-1.08
306.752	-17.08
306.885	1.92
307.018	3.92
307.151	15.92
307.284	13.92
307.417	-9.08
307.55	-2.08
307.683	-12.08
307.816	6.92
307.948	19.92
308.081	7.92
308.214	16.92
308.347	21.92
308.48	8.92
308.613	3.92
308.745	8.92
308.878	-4.08
309.011	-9.08
309.144	7.92
309.277	18.92
309.409	8.92
309.542	6.92
309.675	13.92
309.808	23.92
309.94	22.92
310.073	-7.08
310.206	-11.08
310.339	7.92
310.471	-10.08
310.604	18.92
310.737	-1.08
310.869	-10.08
311.002	2.92
311.135	1.92
311.267	-8.08
311.4	5.92
311.533	23.92
311.665	-1.08
311.798	20.92
311.93	5.92
312.063	29.92
312.196	12.92
312.328	-4.08
312.461	-22.08
312.593	-2.08
312.726	19.92
312.859	18.92
312.991	11.92
313.124	-8.08
313.256	9.92
313.389	15.92
313.521	3.92
313.654	-5.08
313.786	-9.08
313.919	-12.08
314.051	4.92
314.184	12.92
314.316	1.92
314.449	-22.08
314.581	-10.08
314.714	-3.08
314.846	9.92
314.978	-11.08
315.111	-0.08
315.243	11.92
315.376	11.92
315.508	11.92
315.641	12.92
315.773	7.92
315.905	11.92
316.038	-2.08
316.17	10.92
316.302	2.92
316.435	11.92
316.567	6.92
316.699	9.92
316.832	-4.08
316.964	-3.08
317.096	-3.08
317.229	-13.08
317.361	-26.08
317.493	-11.08
317.625	-5.08
317.758	0.92
317.89	11.92
318.022	21.92
318.155	-0.08
318.287	-0.08
318.419	-0.08
318.551	-8.08
318.683	5.92
318.816	-2.08
318.948	3.92
319.08	-17.08
319.212	4.92
319.344	4.92
319.477	8.92
319.609	18.92
319.741	24.92
319.873	-8.08
320.005	2.92
320.137	-2.08
320.269	4.92
320.401	5.92
320.534	2.92
320.666	-3.08
320.798	-2.08
320.93	-3.08
321.062	-10.08
321.194	-11.08
321.326	3.92
321.458	5.92
321.59	-2.08
321.722	-10.08
321.854	4.92
321.986	4.92
322.118	13.92
322.25	-0.08
322.382	-1.08
322.514	5.92
322.646	5.92
322.778	27.92
322.91	6.92
323.042	9.92
323.174	-2.08
323.306	-7.08
323.438	-17.08
323.57	-14.08
323.702	0.92
323.834	-18.08
323.966	-21.08
324.097	-9.08
324.229	11.92
324.361	12.92
324.493	36.92
324.625	-3.08
324.757	15.92
324.889	6.92
325.021	9.92
325.152	11.92
325.284	4.92
325.416	-7.08
325.548	18.92
325.68	1.92
325.811	30.92
325.943	16.92
326.075	1.92
326.207	1.92
326.339	3.92
326.47	2.92
326.602	5.92
326.734	11.92
326.866	9.92
326.997	-5.08
327.129	-15.08
327.261	-23.08
327.392	8.92
327.524	-3.08
327.656	-0.08
327.787	4.92
327.919	18.92
328.051	0.92
328.182	10.92
328.314	39.92
328.446	8.92
328.577	18.92
328.709	27.92
328.841	-12.08
328.972	-3.08
329.104	-14.08
329.235	4.92
329.367	4.92
329.499	0.92
329.63	11.92
329.762	10.92
329.893	28.92
330.025	-0.08
330.156	-9.08
330.288	0.92
330.419	19.92
330.551	12.92
330.683	4.92
330.814	4.92
330.946	9.92
331.077	1.92
331.208	-4.08
331.34	-5.08
331.471	-4.08
331.603	14.92
331.734	-0.08
331.866	7.92
331.997	13.92
332.129	14.92
332.26	6.92
332.392	28.92
332.523	12.92
332.654	-28.08
332.786	-11.08
332.917	-9.08
333.048	18.92
333.18	25.92
333.311	5.92
333.443	4.92
333.574	4.92
333.705	25.92
333.837	5.92
333.968	-3.08
334.099	17.92
334.231	13.92
334.362	-3.08
334.493	12.92
334.624	15.92
334.756	8.92
334.887	10.92
335.018	16.92
335.15	11.92
335.281	-1.08
335.412	13.92
335.543	29.92
335.675	2.92
335.806	11.92
335.937	-1.08
336.068	13.92
336.199	29.92
336.331	-3.08
336.462	-3.08
336.593	19.92
336.724	-7.08
336.855	2.92
336.986	19.92
337.118	9.92
337.249	16.92
337.38	0.92
337.511	15.92
337.642	-1.08
337.773	4.92
337.904	0.92
338.035	12.92
338.166	4.92
338.298	-4.08
338.429	-5.08
338.56	11.92
338.691	23.92
338.822	10.92
338.953	8.92
339.084	18.92
339.215	12.92
339.346	-2.08
339.477	-1.08
339.608	-4.08
339.739	-5.08
339.87	-4.08
340.001	11.92
340.132	21.92
340.263	8.92
340.394	17.92
340.525	2.92
340.656	5.92
340.787	-1.08
340.918	32.92
341.049	12.92
341.179	1.92
341.31	1.92
341.441	2.92
341.572	21.92
341.703	-0.08
341.834	9.92
341.965	17.92
342.096	10.92
342.227	-5.08
342.357	3.92
342.488	-0.08
342.619	5.92
342.75	1.92
342.881	2.92
343.012	20.92
343.142	25.92
343.273	9.92
343.404	14.92
343.535	37.92
343.666	21.92
343.796	-4.08
343.927	13.92
344.058	12.92
344.189	18.92
344.319	8.92
344.45	12.92
344.581	9.92
344.712	-15.08
344.842	-8.08
344.973	-8.08
345.104	13.92
345.234	3.92
345.365	-4.08
345.496	14.92
345.626	26.92
345.757	6.92
345.888	1.92
346.018	14.92
346.149	7.92
346.28	28.92
346.41	-4.08
346.541	7.92
346.672	11.92
346.802	10.92
346.933	17.92
347.063	8.92
347.194	1.92
347.325	4.92
347.455	23.92
347.586	13.92
347.716	-6.08
347.847	6.92
347.977	17.92
348.108	15.92
348.238	6.92
348.369	4.92
348.499	16.92
348.63	-2.08
348.76	1.92
348.891	7.92
349.021	21.92
349.152	8.92
349.282	5.92
349.413	-1.08
349.543	24.92
349.674	20.92
349.804	9.92
349.935	5.92
350.065	-18.08
350.196	-14.08
350.326	-2.08
350.456	-13.08
350.587	13.92
350.717	23.92
350.848	9.92
350.978	10.92
351.108	-3.08
351.239	12.92
351.369	1.92
351.499	-0.08
351.63	1.92
351.76	6.92
351.89	11.92
352.021	19.92
352.151	-9.08
352.281	-0.08
352.412	4.92
352.542	3.92
352.672	-16.08
352.803	1.92
352.933	4.92
353.063	10.92
353.193	14.92
353.324	0.92
353.454	26.92
353.584	21.92
353.714	9.92
353.845	4.92
353.975	4.92
354.105	1.92
354.235	8.92
354.365	19.92
354.496	5.92
354.626	14.92
354.756	8.92
354.886	2.92
355.016	2.92
355.146	-4.08
355.277	19.92
355.407	7.92
355.537	-6.08
355.667	19.92
355.797	1.92
355.927	6.92
356.057	30.92
356.187	-6.08
356.318	10.92
356.448	-6.08
356.578	16.92
356.708	25.92
356.838	9.92
356.968	11.92
357.098	3.92
357.228	15.92
357.358	-3.08
357.488	-1.08
357.618	42.92
357.748	9.92
357.878	9.92
358.008	22.92
358.138	6.92
358.268	-0.08
358.398	29.92
358.528	-22.08
358.658	11.92
358.788	-0.08
358.918	25.92
359.048	19.92
359.178	32.92
359.308	26.92
359.438	16.92
359.568	13.92
359.698	24.92
359.827	4.92
359.957	7.92
360.087	25.92
360.217	1.92
360.347	4.92
360.477	5.92
360.607	-2.08
360.737	13.92
360.866	5.92
360.996	-9.08
361.126	-13.08
361.256	25.92
361.386	17.92
361.516	25.92
361.645	-5.08
361.775	1.92
361.905	-4.08
362.035	16.92
362.165	10.92
362.294	4.92
362.424	32.92
362.554	20.92
362.684	-0.08
362.813	12.92
362.943	13.92
363.073	3.92
363.203	-6.08
363.332	8.92
363.462	-9.08
363.592	-8.08
363.721	14.92
363.851	-4.08
363.981	20.92
364.111	10.92
364.24	6.92
364.37	16.92
364.5	19.92
364.629	-7.08
364.759	-1.08
364.888	2.92
365.018	2.92
365.148	19.92
365.277	1.92
365.407	1.92
365.537	16.92
365.666	6.92
365.796	9.92
365.925	4.92
366.055	12.92
366.184	-1.08
366.314	14.92
366.444	19.92
366.573	7.92
366.703	-5.08
366.832	21.92
366.962	13.92
367.091	-3.08
367.221	8.92
367.35	5.92
367.48	45.92
367.609	22.92
367.739	-9.08
367.868	-1.08
367.998	27.92
368.127	35.92
368.257	19.92
368.386	20.92
368.516	7.92
368.645	2.92
368.775	-11.08
368.904	15.92
369.033	-5.08
369.163	-6.08
369.292	16.92
369.422	36.92
369.551	15.92
369.68	3.92
369.81	4.92
369.939	0.92
370.069	29.92
370.198	7.92
370.327	-18.08
370.457	-6.08
370.586	9.92
370.715	-6.08
370.845	-1.08
370.974	3.92
371.103	20.92
371.233	18.92
371.362	7.92
371.491	4.92
371.621	9.92
371.75	5.92
371.879	1.92
372.008	19.92
372.138	14.92
372.267	23.92
372.396	-7.08
372.525	19.92
372.655	18.92
372.784	25.92
372.913	-4.08
373.042	26.92
373.172	35.92
373.301	-2.08
373.43	-10.08
373.559	-4.08
373.688	16.92
373.818	26.92
373.947	9.92
374.076	5.92
374.205	0.92
374.334	10.92
374.463	-19.08
374.593	9.92
374.722	10.92
374.851	14.92
374.98	4.92
375.109	24.92
375.238	8.92
375.367	31.92
375.496	-1.08
375.625	-12.08
375.755	25.92
375.884	24.92
376.013	12.92
376.142	3.92
376.271	7.92
376.4	9.92
376.529	17.92
376.658	13.92
376.787	3.92
376.916	16.92
377.045	5.92
377.174	10.92
377.303	17.92
377.432	30.92
377.561	4.92
377.69	10.92
377.819	23.92
377.948	-1.08
378.077	-6.08
378.206	-2.08
378.335	-2.08
378.464	-2.08
378.593	-1.08
378.722	-8.08
378.851	-4.08
378.98	15.92
379.108	4.92
379.237	7.92
379.366	12.92
379.495	21.92
379.624	6.92
379.753	6.92
379.882	16.92
380.011	-12.08
380.14	-6.08
380.268	24.92
380.397	13.92
380.526	11.92
380.655	4.92
380.784	-5.08
380.913	10.92
381.041	-8.08
381.17	-2.08
381.299	7.92
381.428	7.92
381.557	-2.08
381.685	-2.08
381.814	0.92
381.943	-1.08
382.072	5.92
382.2	-0.08
382.329	2.92
382.458	-5.08
382.587	24.92
382.715	20.92
382.844	16.92
382.973	-11.08
383.102	-2.08
383.23	-11.08
383.359	-4.08
383.488	26.92
383.616	4.92
383.745	7.92
383.874	20.92
384.003	-5.08
384.131	-0.08
384.26	-16.08
384.389	15.92
384.517	-12.08
384.646	8.92
384.774	-4.08
384.903	8.92
385.032	20.92
385.16	17.92
385.289	-1.08
385.418	-16.08
385.546	16.92
385.675	18.92
385.803	6.92
385.932	-2.08
386.06	-17.08
386.189	0.92
386.318	20.92
386.446	-5.08
386.575	10.92
386.703	9.92
386.832	-0.08
386.96	1.92
387.089	20.92
387.217	7.92
387.346	-16.08
387.474	7.92
387.603	16.92
387.731	12.92
387.86	6.92
387.988	-10.08
388.117	9.92
388.245	6.92
388.374	-4.08
388.502	7.92
388.631	12.92
388.759	6.92
388.888	13.92
389.016	-6.08
389.144	-10.08
389.273	9.92
389.401	18.92
389.53	-22.08
389.658	7.92
389.786	1.92
389.915	-11.08
390.043	14.92
390.172	12.92
390.3	19.92
390.428	9.92
390.557	3.92
390.685	7.92
390.813	9.92
390.942	25.92
391.07	14.92
391.198	-6.08
391.327	-4.08
391.455	-9.08
391.583	5.92
391.712	-2.08
391.84	-0.08
391.968	-9.08
392.096	-0.08
392.225	1.92
392.353	-11.08
392.481	13.92
392.609	26.92
392.738	6.92
392.866	-2.08
392.994	-2.08
393.122	18.92
393.251	11.92
393.379	-2.08
393.507	-15.08
393.635	-4.08
393.764	10.92
393.892	27.92
394.02	10.92
394.148	11.92
394.276	10.92
394.404	18.92
394.533	-2.08
394.661	15.92
394.789	22.92
394.917	17.92
395.045	-0.08
395.173	-10.08
395.302	-3.08
395.43	12.92
395.558	27.92
395.686	27.92
395.814	14.92
395.942	-4.08
396.07	7.92
396.198	12.92
396.326	21.92
396.454	15.92
396.582	12.92
396.711	10.92
396.839	29.92
396.967	24.92
397.095	9.92
397.223	15.92
397.351	19.92
397.479	24.92
397.607	15.92
397.735	4.92
397.863	19.92
397.991	10.92
398.119	8.92
398.247	3.92
398.375	8.92
398.503	7.92
398.631	-1.08
398.759	0.92
398.887	9.92
399.015	-2.08
399.143	12.92
399.271	-5.08
399.399	2.92
399.526	18.92
399.654	8.92
399.782	-10.08
399.91	26.92
400.038	30.92
400.166	12.92
400.294	14.92
400.422	8.92
400.55	0.92
400.678	-5.08
400.805	8.92
400.933	15.92
401.061	20.92
401.189	21.92
401.317	25.92
401.445	24.92
401.573	9.92
401.7	-2.08
401.828	-8.08
401.956	-5.08
402.084	20.92
402.212	8.92
402.34	20.92
402.467	15.92
402.595	11.92
402.723	4.92
402.851	22.92
402.978	11.92
403.106	17.92
403.234	-7.08
403.362	35.92
403.489	10.92
403.617	14.92
403.745	8.92
403.873	2.92
404	26.92
404.128	5.92
404.256	25.92
404.384	19.92
404.511	18.92
404.639	-2.08
404.767	9.92
404.894	12.92
405.022	14.92
405.15	15.92
405.277	4.92
405.405	11.92
405.533	-2.08
405.66	7.92
405.788	7.92
405.916	1.92
406.043	-17.08
406.171	-1.08
406.299	17.92
406.426	9.92
406.554	45.92
406.681	42.92
406.809	13.92
406.937	26.92
407.064	6.92
407.192	30.92
407.319	5.92
407.447	22.92
407.574	22.92
407.702	28.92
407.83	12.92
407.957	-3.08
408.085	18.92
408.212	17.92
408.34	19.92
408.467	-0.08
408.595	11.92
408.722	18.92
408.85	23.92
408.977	-5.08
409.105	5.92
409.232	4.92
409.36	3.92
409.487	9.92
409.615	12.92
409.742	27.92
409.87	27.92
409.997	33.92
410.125	29.92
410.252	47.92
410.379	71.92
410.507	25.92
410.634	21.92
410.762	-0.08
410.889	12.92
411.017	13.92
411.144	14.92
411.271	13.92
411.399	14.92
411.526	2.92
411.653	8.92
411.781	35.92
411.908	16.92
412.036	-8.08
412.163	25.92
412.29	26.92
412.418	11.92
412.545	26.92
412.672	16.92
412.8	4.92
412.927	5.92
413.054	28.92
413.182	14.92
413.309	6.92
413.436	3.92
413.564	15.92
413.691	1.92
413.818	20.92
413.945	1.92
414.073	1.92
414.2	4.92
414.327	9.92
414.454	17.92
414.582	11.92
414.709	-7.08
414.836	2.92
414.963	-5.08
415.091	6.92
415.218	-3.08
415.345	4.92
415.472	-2.08
415.6	0.92
415.727	20.92
415.854	10.92
415.981	10.92
416.108	-0.08
416.236	14.92
416.363	22.92
416.49	12.92
416.617	-1.08
416.744	25.92
416.871	23.92
416.998	7.92
417.126	6.92
417.253	12.92
417.38	5.92
417.507	3.92
417.634	15.92
417.761	21.92
417.888	21.92
418.015	8.92
418.143	25.92
418.27	18.92
418.397	7.92
418.524	13.92
418.651	-6.08
418.778	19.92
418.905	26.92
419.032	14.92
419.159	-1.08
419.286	24.92
419.413	16.92
419.54	33.92
419.667	6.92
419.794	-7.08
419.921	-10.08
420.048	17.92
420.175	8.92
420.302	3.92
420.429	3.92
420.556	12.92
420.683	-4.08
420.81	-7.08
420.937	30.92
421.064	16.92
421.191	-6.08
421.318	12.92
421.445	29.92
421.572	3.92
421.699	28.92
421.826	4.92
421.953	5.92
422.08	7.92
422.207	8.92
422.334	-13.08
422.461	19.92
422.588	-7.08
422.714	18.92
422.841	33.92
422.968	23.92
423.095	27.92
423.222	1.92
423.349	7.92
423.476	16.92
423.603	15.92
423.729	5.92
423.856	0.92
423.983	17.92
424.11	1.92
424.237	21.92
424.364	17.92
424.491	4.92
424.617	-1.08
424.744	7.92
424.871	11.92
424.998	6.92
425.125	-13.08
425.251	6.92
425.378	10.92
425.505	11.92
425.632	13.92
425.758	1.92
425.885	14.92
426.012	14.92
426.139	8.92
426.266	11.92
426.392	11.92
426.519	27.92
426.646	18.92
426.772	10.92
426.899	1.92
427.026	16.92
427.153	12.92
427.279	36.92
427.406	22.92
427.533	2.92
427.659	-5.08
427.786	8.92
427.913	26.92
428.039	22.92
428.166	23.92
428.293	1.92
428.419	9.92
428.546	4.92
428.673	2.92
428.799	1.92
428.926	14.92
429.053	23.92
429.179	14.92
429.306	28.92
429.433	22.92
429.559	30.92
429.686	2.92
429.812	7.92
429.939	9.92
430.066	9.92
430.192	0.92
430.319	17.92
430.445	-2.08
430.572	1.92
430.699	-8.08
430.825	-18.08
430.952	22.92
431.078	20.92
431.205	24.92
431.331	6.92
431.458	23.92
431.584	23.92
431.711	9.92
431.837	7.92
431.964	16.92
432.09	29.92
432.217	-20.08
432.343	-4.08
432.47	27.92
432.596	9.92
432.723	10.92
432.849	21.92
432.976	12.92
433.102	9.92
433.229	14.92
433.355	24.92
433.482	82.92
433.608	147.92
433.735	138.92
433.861	117.92
433.987	150.92
434.114	226.92
434.24	189.92
434.367	69.92
434.493	7.92
434.62	18.92
434.746	15.92
434.872	6.92
434.999	22.92
435.125	7.92
435.252	-5.08
435.378	7.92
435.504	13.92
435.631	21.92
435.757	20.92
435.883	17.92
436.01	17.92
436.136	9.92
436.262	25.92
436.389	18.92
436.515	23.92
436.641	13.92
436.768	15.92
436.894	23.92
437.02	9.92
437.147	30.92
437.273	13.92
437.399	-3.08
437.526	23.92
437.652	0.92
437.778	16.92
437.904	6.92
438.031	21.92
438.157	4.92
438.283	19.92
438.409	-8.08
438.536	-9.08
438.662	33.92
438.788	19.92
438.914	12.92
439.041	17.92
439.167	28.92
439.293	5.92
439.419	7.92
439.546	31.92
439.672	-2.08
439.798	13.92
439.924	33.92
440.05	12.92
440.177	7.92
440.303	15.92
440.429	19.92
440.555	3.92
440.681	12.92
440.807	11.92
440.934	-12.08
441.06	11.92
441.186	4.92
441.312	7.92
441.438	14.92
441.564	7.92
441.69	11.92
441.816	23.92
441.943	1.92
442.069	12.92
442.195	20.92
442.321	20.92
442.447	7.92
442.573	7.92
442.699	-17.08
442.825	-12.08
442.951	20.92
443.077	24.92
443.203	37.92
443.33	6.92
443.456	-12.08
443.582	13.92
443.708	5.92
443.834	30.92
443.96	17.92
444.086	16.92
444.212	22.92
444.338	18.92
444.464	18.92
444.59	22.92
444.716	0.92
444.842	18.92
444.968	5.92
445.094	14.92
445.22	23.92
445.346	-1.08
445.472	3.92
445.598	7.92
445.724	12.92
445.85	9.92
445.976	8.92
446.102	10.92
446.228	12.92
446.354	7.92
446.48	-5.08
446.605	16.92
446.731	19.92
446.857	6.92
446.983	-4.08
447.109	-7.08
447.235	-0.08
447.361	-3.08
447.487	9.92
447.613	20.92
447.739	-0.08
447.865	19.92
447.99	15.92
448.116	10.92
448.242	13.92
448.368	-5.08
448.494	-8.08
448.62	12.92
448.746	9.92
448.872	13.92
448.997	10.92
449.123	6.92
449.249	24.92
449.375	38.92
449.501	22.92
449.627	7.92
449.752	31.92
449.878	-6.08
450.004	-5.08
450.13	4.92
450.256	9.92
450.381	3.92
450.507	5.92
450.633	19.92
450.759	30.92
450.884	-6.08
451.01	10.92
451.136	4.92
451.262	29.92
451.388	2.92
451.513	14.92
451.639	14.92
451.765	14.92
451.89	16.92
452.016	24.92
452.142	-2.08
452.268	25.92
452.393	24.92
452.519	-2.08
452.645	4.92
452.771	20.92
452.896	1.92
453.022	10.92
453.148	37.92
453.273	25.92
453.399	17.92
453.525	-11.08
453.65	3.92
453.776	27.92
453.902	20.92
454.027	12.92
454.153	1.92
454.279	24.92
454.404	12.92
454.53	20.92
454.656	41.92
454.781	26.92
454.907	6.92
455.032	9.92
455.158	32.92
455.284	23.92
455.409	16.92
455.535	15.92
455.66	15.92
455.786	28.92
455.912	15.92
456.037	2.92
456.163	9.92
456.288	18.92
456.414	-11.08
456.539	-9.08
456.665	26.92
456.791	26.92
456.916	23.92
457.042	18.92
457.167	-4.08
457.293	15.92
457.418	7.92
457.544	10.92
457.669	7.92
457.795	-2.08
457.92	13.92
458.046	13.92
458.171	30.92
458.297	15.92
458.422	7.92
458.548	7.92
458.673	4.92
458.799	6.92
458.924	3.92
459.05	3.92
459.175	3.92
459.301	11.92
459.426	36.92
459.552	25.92
459.677	-5.08
459.803	25.92
459.928	15.92
460.053	8.92
460.179	14.92
460.304	15.92
460.43	-22.08
460.555	5.92
460.681	3.92
460.806	16.92
460.931	5.92
461.057	13.92
461.182	11.92
461.308	34.92
461.433	41.92
461.558	3.92
461.684	30.92
461.809	17.92
461.934	10.92
462.06	18.92
462.185	2.92
462.311	16.92
462.436	9.92
462.561	15.92
462.687	-1.08
462.812	13.92
462.937	9.92
463.063	5.92
463.188	9.92
463.313	21.92
463.439	10.92
463.564	15.92
463.689	17.92
463.814	11.92
463.94	18.92
464.065	25.92
464.19	15.92
464.316	3.92
464.441	-13.08
464.566	-5.08
464.692	2.92
464.817	14.92
464.942	-0.08
465.067	13.92
465.193	-7.08
465.318	7.92
465.443	-1.08
465.568	3.92
465.694	2.92
465.819	22.92
465.944	18.92
466.069	15.92
466.194	8.92
466.32	14.92
466.445	2.92
466.57	10.92
466.695	11.92
466.82	18.92
466.946	18.92
467.071	13.92
467.196	2.92
467.321	10.92
467.446	6.92
467.572	-5.08
467.697	12.92
467.822	2.92
467.947	24.92
468.072	13.92
468.197	4.92
468.323	18.92
468.448	6.92
468.573	2.92
468.698	2.92
468.823	9.92
468.948	9.92
469.073	30.92
469.198	15.92
469.324	35.92
469.449	15.92
469.574	6.92
469.699	12.92
469.824	31.92
469.949	12.92
470.074	14.92
470.199	43.92
470.324	31.92
470.449	36.92
470.574	6.92
470.7	17.92
470.825	29.92
470.95	21.92
471.075	8.92
471.2	10.92
471.325	9.92
471.45	16.92
471.575	7.92
471.7	6.92
471.825	11.92
471.95	11.92
472.075	7.92
472.2	-3.08
472.325	23.92
472.45	9.92
472.575	18.92
472.7	7.92
472.825	24.92
472.95	19.92
473.075	12.92
473.2	-1.08
473.325	-1.08
473.45	-9.08
473.575	4.92
473.7	7.92
473.825	20.92
473.95	11.92
474.075	25.92
474.2	3.92
474.325	11.92
474.45	25.92
474.574	13.92
474.699	28.92
474.824	25.92
474.949	12.92
475.074	6.92
475.199	23.92
475.324	35.92
475.449	11.92
475.574	14.92
475.699	14.92
475.824	5.92
475.949	22.92
476.073	3.92
476.198	1.92
476.323	8.92
476.448	10.92
476.573	10.92
476.698	17.92
476.823	23.92
476.947	28.92
477.072	25.92
477.197	21.92
477.322	5.92
477.447	11.92
477.572	33.92
477.697	12.92
477.821	2.92
477.946	15.92
478.071	39.92
478.196	16.92
478.321	1.92
478.445	19.92
478.57	12.92
478.695	-0.08
478.82	19.92
478.945	36.92
479.069	26.92
479.194	-4.08
479.319	30.92
479.444	39.92
479.569	18.92
479.693	14.92
479.818	23.92
479.943	31.92
480.068	24.92
480.192	28.92
480.317	23.92
480.442	15.92
480.567	19.92
480.691	4.92
480.816	13.92
480.941	7.92
481.066	25.92
481.19	20.92
481.315	14.92
481.44	12.92
481.564	-3.08
481.689	26.92
481.814	16.92
481.938	17.92
482.063	16.92
482.188	10.92
482.313	39.92
482.437	16.92
482.562	21.92
482.687	31.92
482.811	33.92
482.936	18.92
483.061	27.92
483.185	17.92
483.31	34.92
483.435	14.92
483.559	22.92
483.684	20.92
483.808	32.92
483.933	14.92
484.058	23.92
484.182	25.92
484.307	28.92
484.432	18.92
484.556	1.92
484.681	34.92
484.805	44.92
484.93	35.92
485.055	35.92
485.179	80.92
485.304	111.92
485.428	370.92
485.553	1256.92
485.678	1764.92
485.802	1634.92
485.927	1819.92
486.051	2738.92
486.176	1661.92
486.3	465.92
486.425	137.92
486.549	79.92
486.674	51.92
486.799	36.92
486.923	23.92
487.048	14.92
487.172	22.92
487.297	35.92
487.421	39.92
487.546	38.92
487.67	39.92
487.795	11.92
487.919	21.92
488.044	34.92
488.168	30.92
488.293	38.92
488.417	-0.08
488.542	35.92
488.666	37.92
488.791	30.92
488.915	20.92
489.04	27.92
489.164	22.92
489.289	21.92
489.413	10.92
489.538	30.92
489.662	25.92
489.786	22.92
489.911	20.92
490.035	18.92
490.16	16.92
490.284	30.92
490.409	12.92
490.533	22.92
490.658	33.92
490.782	13.92
490.906	12.92
491.031	31.92
491.155	6.92
491.28	39.92
491.404	27.92
491.528	13.92
491.653	27.92
491.777	18.92
491.902	-8.08
492.026	24.92
492.15	21.92
492.275	51.92
492.399	34.92
492.524	19.92
492.648	43.92
492.772	18.92
492.897	34.92
493.021	24.92
493.145	20.92
493.27	45.92
493.394	4.92
493.518	17.92
493.643	17.92
493.767	27.92
493.891	-4.08
494.016	17.92
494.14	7.92
494.264	25.92
494.389	27.92
494.513	11.92
494.637	11.92
494.762	26.92
494.886	26.92
495.01	21.92
495.134	27.92
495.259	37.92
495.383	5.92
495.507	19.92
495.632	46.92
495.756	38.92
495.88	20.92
496.004	2.92
496.129	4.92
496.253	4.92
496.377	23.92
496.501	54.92
496.626	12.92
496.75	21.92
496.874	21.92
496.998	9.92
497.123	32.92
497.247	22.92
497.371	11.92
497.495	22.92
497.62	-1.08
497.744	15.92
497.868	15.92
497.992	9.92
498.116	-2.08
498.241	7.92
498.365	1.92
498.489	-3.08
498.613	10.92
498.737	14.92
498.862	13.92
498.986	9.92
499.11	23.92
499.234	13.92
499.358	12.92
499.482	9.92
499.607	8.92
499.731	18.92
499.855	41.92
499.979	10.92
500.103	5.92
500.227	24.92
500.351	23.92
500.476	26.92
500.6	-2.08
500.724	30.92
500.848	7.92
500.972	23.92
501.096	17.92
501.22	35.92
501.344	18.92
501.469	3.92
501.593	2.92
501.717	24.92
501.841	25.92
501.965	20.92
502.089	18.92
502.213	15.92
502.337	-1.08
502.461	3.92
502.585	-3.08
502.709	9.92
502.834	-4.08
502.958	18.92
503.082	11.92
503.206	15.92
503.33	43.92
503.454	21.92
503.578	18.92
503.702	33.92
503.826	25.92
503.95	27.92
504.074	12.92
504.198	9.92
504.322	-1.08
504.446	17.92
504.57	27.92
504.694	8.92
504.818	22.92
504.942	33.92
505.066	12.92
505.19	17.92
505.314	11.92
505.438	20.92
505.562	13.92
505.686	11.92
505.81	9.92
505.934	29.92
506.058	21.92
506.182	22.92
506.306	7.92
506.43	6.92
506.554	7.92
506.678	15.92
506.802	0.92
506.926	26.92
507.05	28.92
507.174	28.92
507.298	20.92
507.422	22.92
507.546	13.92
507.67	28.92
507.794	0.92
507.918	24.92
508.042	19.92
508.165	0.92
508.289	12.92
508.413	19.92
508.537	-2.08
508.661	27.92
508.785	33.92
508.909	26.92
509.033	6.92
509.157	28.92
509.281	11.92
509.405	18.92
509.528	25.92
509.652	23.92
509.776	13.92
509.9	30.92
510.024	9.92
510.148	25.92
510.272	15.92
510.396	2.92
510.519	5.92
510.643	29.92
510.767	17.92
510.891	17.92
511.015	-1.08
511.139	25.92
511.263	27.92
511.386	14.92
511.51	19.92
511.634	5.92
511.758	21.92
511.882	11.92
512.006	30.92
512.129	29.92
512.253	50.92
512.377	6.92
512.501	17.92
512.625	17.92
512.748	-1.08
512.872	10.92
512.996	14.92
513.12	37.92
513.244	8.92
513.367	14.92
513.491	11.92
513.615	9.92
513.739	15.92
513.862	17.92
513.986	18.92
514.11	27.92
514.234	-0.08
514.358	28.92
514.481	7.92
514.605	6.92
514.729	19.92
514.853	20.92
514.976	-1.08
515.1	-2.08
515.224	25.92
515.348	8.92
515.471	-4.08
515.595	27.92
515.719	14.92
515.842	39.92
515.966	15.92
516.09	22.92
516.214	20.92
516.337	44.92
516.461	24.92
516.585	19.92
516.708	30.92
516.832	21.92
516.956	26.92
517.08	16.92
517.203	-18.08
517.327	15.92
517.451	37.92
517.574	37.92
517.698	12.92
517.822	12.92
517.945	17.92
518.069	10.92
518.193	66.92
518.316	40.92
518.44	46.92
518.564	9.92
518.687	37.92
518.811	48.92
518.935	45.92
519.058	27.92
519.182	41.92
519.306	32.92
519.429	18.92
519.553	74.92
519.676	33.92
519.8	18.92
519.924	9.92
520.047	36.92
520.171	16.92
520.294	18.92
520.418	5.92
520.542	3.92
520.665	29.92
520.789	9.92
520.913	-0.08
521.036	4.92
521.16	21.92
521.283	17.92
521.407	11.92
521.53	15.92
521.654	-6.08
521.778	36.92
521.901	5.92
522.025	11.92
522.148	4.92
522.272	30.92
522.395	2.92
522.519	6.92
522.643	-3.08
522.766	23.92
522.89	9.92
523.013	25.92
523.137	-20.08
523.26	5.92
523.384	22.92
523.507	22.92
523.631	16.92
523.754	7.92
523.878	5.92
524.002	11.92
524.125	2.92
524.249	-10.08
524.372	5.92
524.496	6.92
524.619	12.92
524.743	5.92
524.866	4.92
524.99	12.92
525.113	-0.08
525.237	30.92
525.36	13.92
525.484	23.92
525.607	5.92
525.731	0.92
525.854	14.92
525.978	21.92
526.101	4.92
526.224	9.92
526.348	15.92
526.471	20.92
526.595	18.92
526.718	16.92
526.842	-6.08
526.965	29.92
527.089	1.92
527.212	9.92
527.336	14.92
527.459	32.92
527.582	19.92
527.706	25.92
527.829	27.92
527.953	27.92
528.076	-0.08
528.2	3.92
528.323	25.92
528.446	24.92
528.57	22.92
528.693	32.92
528.817	13.92
528.94	16.92
529.064	25.92
529.187	-2.08
529.31	2.92
529.434	19.92
529.557	15.92
529.68	2.92
529.804	9.92
529.927	16.92
530.051	0.92
530.174	-1.08
530.297	25.92
530.421	16.92
530.544	31.92
530.668	30.92
530.791	-0.08
530.914	29.92
531.038	-6.08
531.161	-5.08
531.284	23.92
531.408	15.92
531.531	4.92
531.654	1.92
531.778	22.92
531.901	-4.08
532.024	19.92
532.148	1.92
532.271	14.92
532.394	25.92
532.518	38.92
532.641	26.92
532.764	16.92
532.888	21.92
533.011	-2.08
533.134	5.92
533.258	28.92
533.381	-1.08
533.504	6.92
533.628	22.92
533.751	30.92
533.874	30.92
533.997	5.92
534.121	6.92
534.244	21.92
534.367	16.92
534.491	18.92
534.614	7.92
534.737	15.92
534.86	29.92
534.984	4.92
535.107	-14.08
535.23	10.92
535.354	11.92
535.477	-1.08
535.6	4.92
535.723	15.92
535.847	15.92
535.97	1.92
536.093	14.92
536.216	5.92
536.34	20.92
536.463	17.92
536.586	26.92
536.709	26.92
536.833	18.92
536.956	11.92
537.079	14.92
537.202	13.92
537.325	-4.08
537.449	7.92
537.572	17.92
537.695	1.92
537.818	9.92
537.941	22.92
538.065	9.92
538.188	7.92
538.311	33.92
538.434	19.92
538.558	7.92
538.681	15.92
538.804	19.92
538.927	15.92
539.05	32.92
539.173	10.92
539.297	12.92
539.42	34.92
539.543	11.92
539.666	18.92
539.789	13.92
539.913	18.92
540.036	17.92
540.159	11.92
540.282	-8.08
540.405	0.92
540.528	25.92
540.651	14.92
540.775	15.92
540.898	5.92
541.021	31.92
541.144	15.92
541.267	21.92
541.39	11.92
541.513	20.92
541.637	15.92
541.76	7.92
541.883	10.92
542.006	14.92
542.129	42.92
542.252	5.92
542.375	8.92
542.498	9.92
542.622	31.92
542.745	13.92
542.868	25.92
542.991	14.92
543.114	23.92
543.237	27.92
543.36	30.92
543.483	25.92
543.606	18.92
543.73	37.92
543.853	6.92
543.976	14.92
544.099	31.92
544.222	11.92
544.345	7.92
544.468	0.92
544.591	24.92
544.714	24.92
544.837	43.92
544.96	9.92
545.083	14.92
545.206	6.92
545.329	13.92
545.453	-4.08
545.576	16.92
545.699	13.92
545.822	12.92
545.945	25.92
546.068	20.92
546.191	31.92
546.314	9.92
546.437	34.92
546.56	21.92
546.683	-5.08
546.806	18.92
546.929	18.92
547.052	5.92
547.175	12.92
547.298	20.92
547.421	3.92
547.544	10.92
547.667	20.92
547.79	10.92
547.913	-10.08
548.036	-4.08
548.159	4.92
548.282	14.92
548.405	-1.08
548.528	-4.08
548.651	-0.08
548.774	2.92
548.897	24.92
549.02	24.92
549.143	18.92
549.266	13.92
549.389	30.92
549.512	19.92
549.635	29.92
549.758	24.92
549.881	-0.08
550.004	3.92
550.127	1.92
550.25	9.92
550.373	-13.08
550.496	16.92
550.619	14.92
550.742	2.92
550.865	5.92
550.988	29.92
551.111	25.92
551.234	18.92
551.356	7.92
551.479	9.92
551.602	10.92
551.725	5.92
551.848	28.92
551.971	19.92
552.094	15.92
552.217	7.92
552.34	14.92
552.463	-1.08
552.586	22.92
552.709	-5.08
552.832	15.92
552.955	12.92
553.077	22.92
553.2	34.92
553.323	7.92
553.446	7.92
553.569	-3.08
553.692	14.92
553.815	10.92
553.938	13.92
554.061	17.92
554.184	8.92
554.306	28.92
554.429	13.92
554.552	11.92
554.675	13.92
554.798	15.92
554.921	30.92
555.044	12.92
555.167	-4.08
555.29	-4.08
555.412	6.92
555.535	2.92
555.658	-6.08
555.781	27.92
555.904	10.92
556.027	21.92
556.15	16.92
556.272	11.92
556.395	21.92
556.518	11.92
556.641	5.92
556.764	27.92
556.887	16.92
557.01	3.92
557.132	-1.08
557.255	5.92
557.378	28.92
557.501	10.92
557.624	22.92
557.747	21.92
557.869	2.92
557.992	32.92
558.115	23.92
558.238	12.92
558.361	16.92
558.483	28.92
558.606	18.92
558.729	-7.08
558.852	32.92
558.975	21.92
559.098	12.92
559.22	31.92
559.343	13.92
559.466	23.92
559.589	1.92
559.712	18.92
559.834	11.92
559.957	-3.08
560.08	8.92
560.203	33.92
560.325	36.92
560.448	26.92
560.571	12.92
560.694	9.92
560.817	14.92
560.939	11.92
561.062	1.92
561.185	19.92
561.308	1.92
561.43	8.92
561.553	9.92
561.676	12.92
561.799	15.92
561.921	13.92
562.044	18.92
562.167	2.92
562.29	29.92
562.413	15.92
562.535	22.92
562.658	11.92
562.781	-12.08
562.903	18.92
563.026	14.92
563.149	31.92
563.272	-4.08
563.394	29.92
563.517	3.92
563.64	12.92
563.763	4.92
563.885	20.92
564.008	14.92
564.131	11.92
564.254	7.92
564.376	15.92
564.499	-9.08
564.622	17.92
564.744	18.92
564.867	1.92
564.99	2.92
565.113	29.92
565.235	20.92
565.358	-3.08
565.481	-4.08
565.603	18.92
565.726	1.92
565.849	41.92
565.971	3.92
566.094	1.92
566.217	11.92
566.34	24.92
566.462	13.92
566.585	29.92
566.708	28.92
566.83	18.92
566.953	18.92
567.076	8.92
567.198	1.92
567.321	-9.08
567.444	17.92
567.566	13.92
567.689	6.92
567.812	-0.08
567.934	2.92
568.057	20.92
568.18	8.92
568.302	2.92
568.425	-4.08
568.548	12.92
568.67	11.92
568.793	14.92
568.916	11.92
569.038	12.92
569.161	8.92
569.283	12.92
569.406	13.92
569.529	-0.08
569.651	10.92
569.774	11.92
569.897	4.92
570.019	19.92
570.142	31.92
570.265	28.92
570.387	20.92
570.51	17.92
570.632	14.92
570.755	2.92
570.878	11.92
571	18.92
571.123	5.92
571.246	16.92
571.368	8.92
571.491	15.92
571.613	-6.08
571.736	0.92
571.859	-2.08
571.981	4.92
572.104	-18.08
572.226	8.92
572.349	-6.08
572.472	9.92
572.594	10.92
572.717	21.92
572.839	-11.08
572.962	25.92
573.085	12.92
573.207	27.92
573.33	13.92
573.452	27.92
573.575	14.92
573.697	3.92
573.82	11.92
573.943	18.92
574.065	13.92
574.188	-7.08
574.31	19.92
574.433	14.92
574.555	14.92
574.678	-2.08
574.801	24.92
574.923	-6.08
575.046	10.92
575.168	-3.08
575.291	11.92
575.413	13.92
575.536	12.92
575.659	23.92
575.781	-0.08
575.904	5.92
576.026	3.92
576.149	4.92
576.271	15.92
576.394	31.92
576.516	2.92
576.639	13.92
576.761	2.92
576.884	-1.08
577.007	8.92
577.129	18.92
577.252	17.92
577.374	25.92
577.497	9.92
577.619	18.92
577.742	2.92
577.864	17.92
577.987	11.92
578.109	14.92
578.232	11.92
578.354	43.92
578.477	8.92
578.599	4.92
578.722	15.92
578.844	7.92
578.967	4.92
579.089	-6.08
579.212	4.92
579.334	30.92
579.457	10.92
579.579	19.92
579.702	-5.08
579.824	8.92
579.947	2.92
580.069	9.92
580.192	6.92
580.314	19.92
580.437	15.92
580.559	32.92
580.682	10.92
580.804	26.92
580.927	7.92
581.049	41.92
581.172	13.92
581.294	17.92
581.417	10.92
581.539	8.92
581.662	5.92
581.784	10.92
581.907	7.92
582.029	25.92
582.152	-1.08
582.274	19.92
582.396	10.92
582.519	21.92
582.641	-10.08
582.764	10.92
582.886	22.92
583.009	29.92
583.131	-0.08
583.254	10.92
583.376	28.92
583.499	36.92
583.621	30.92
583.743	47.92
583.866	20.92
583.988	8.92
584.111	26.92
584.233	15.92
584.356	40.92
584.478	29.92
584.601	-20.08
584.723	-3.08
584.845	16.92
584.968	14.92
585.09	6.92
585.213	20.92
585.335	2.92
585.458	-4.08
585.58	-5.08
585.702	17.92
585.825	19.92
585.947	1.92
586.07	1.92
586.192	-7.08
586.315	11.92
586.437	2.92
586.559	-16.08
586.682	8.92
586.804	4.92
586.927	-1.08
587.049	15.92
587.171	24.92
587.294	32.92
587.416	15.92
587.539	4.92
587.661	5.92
587.783	4.92
587.906	12.92
588.028	15.92
588.151	17.92
588.273	35.92
588.395	22.92
588.518	3.92
588.64	5.92
588.763	25.92
588.885	24.92
589.007	18.92
589.13	7.92
589.252	2.92
589.375	9.92
589.497	12.92
589.619	24.92
589.742	-0.08
589.864	29.92
589.986	27.92
590.109	3.92
590.231	-4.08
590.354	22.92
590.476	11.92
590.598	6.92
590.721	-2.08
590.843	9.92
590.965	3.92
591.088	7.92
591.21	14.92
591.332	15.92
591.455	-12.08
591.577	-8.08
591.7	1.92
591.822	-1.08
591.944	-5.08
592.067	11.92
592.189	16.92
592.311	33.92
592.434	8.92
592.556	13.92
592.678	9.92
592.801	10.92
592.923	14.92
593.045	12.92
593.168	17.92
593.29	23.92
593.412	9.92
593.535	-0.08
593.657	10.92
593.779	2.92
593.902	30.92
594.024	21.92
594.146	27.92
594.269	38.92
594.391	2.92
594.513	12.92
594.636	10.92
594.758	-10.08
594.88	22.92
595.003	15.92
595.125	3.92
595.247	17.92
595.37	-5.08
595.492	7.92
595.614	18.92
595.737	13.92
595.859	14.92
595.981	17.92
596.104	3.92
596.226	19.92
596.348	26.92
596.471	11.92
596.593	6.92
596.715	5.92
596.838	15.92
596.96	0.92
597.082	8.92
597.204	24.92
597.327	5.92
597.449	2.92
597.571	21.92
597.694	21.92
597.816	25.92
597.938	31.92
598.061	11.92
598.183	19.92
598.305	19.92
598.427	15.92
598.55	-1.08
598.672	19.92
598.794	25.92
598.917	18.92
599.039	14.92
599.161	18.92
599.283	7.92
599.406	32.92
599.528	29.92
599.65	45.92
599.773	9.92
599.895	39.92
600.017	27.92
600.139	18.92
600.262	17.92
600.384	11.92
600.506	14.92
600.628	27.92
600.751	24.92
600.873	8.92
600.995	6.92
601.118	23.92
601.24	1.92
601.362	14.92
601.484	7.92
601.607	15.92
601.729	13.92
601.851	-18.08
601.973	13.92
602.096	27.92
602.218	25.92
602.34	24.92
602.462	16.92
602.585	21.92
602.707	2.92
602.829	19.92
602.951	6.92
603.074	2.92
603.196	14.92
603.318	11.92
603.44	22.92
603.563	15.92
603.685	-1.08
603.807	22.92
603.929	23.92
604.052	31.92
604.174	22.92
604.296	12.92
604.418	26.92
604.541	35.92
604.663	10.92
604.785	5.92
604.907	-2.08
605.03	-6.08
605.152	47.92
605.274	22.92
605.396	9.92
605.519	17.92
605.641	12.92
605.763	16.92
605.885	15.92
606.008	19.92
606.13	29.92
606.252	29.92
606.374	-3.08
606.496	7.92
606.619	22.92
606.741	16.92
606.863	24.92
606.985	33.92
607.108	12.92
607.23	21.92
607.352	19.92
607.474	-7.08
607.596	12.92
607.719	4.92
607.841	23.92
607.963	26.92
608.085	8.92
608.207	32.92
608.33	5.92
608.452	15.92
608.574	10.92
608.696	29.92
608.819	-6.08
608.941	20.92
609.063	8.92
609.185	22.92
609.307	1.92
609.43	13.92
609.552	19.92
609.674	-5.08
609.796	17.92
609.918	27.92
610.041	11.92
610.163	29.92
610.285	7.92
610.407	15.92
610.529	-15.08
610.652	0.92
610.774	17.92
610.896	18.92
611.018	30.92
611.14	12.92
611.263	4.92
611.385	9.92
611.507	15.92
611.629	14.92
611.751	17.92
611.873	36.92
611.996	19.92
612.118	25.92
612.24	11.92
612.362	36.92
612.484	15.92
612.607	32.92
612.729	28.92
612.851	18.92
612.973	10.92
613.095	2.92
613.218	18.92
613.34	14.92
613.462	16.92
613.584	32.92
613.706	18.92
613.828	40.92
613.951	12.92
614.073	11.92
614.195	3.92
614.317	24.92
614.439	26.92
614.561	29.92
614.684	8.92
614.806	35.92
614.928	7.92
615.05	14.92
615.172	14.92
615.294	7.92
615.417	9.92
615.539	21.92
615.661	24.92
615.783	21.92
615.905	18.92
616.027	61.92
616.15	97.92
616.272	89.92
616.394	78.92
616.516	33.92
616.638	13.92
616.76	16.92
616.883	14.92
617.005	24.92
617.127	1.92
617.249	12.92
617.371	23.92
617.493	5.92
617.615	19.92
617.738	19.92
617.86	22.92
617.982	14.92
618.104	25.92
618.226	2.92
618.348	0.92
618.471	27.92
618.593	20.92
618.715	9.92
618.837	10.92
618.959	19.92
619.081	22.92
619.203	1.92
619.326	28.92
619.448	22.92
619.57	24.92
619.692	18.92
619.814	15.92
619.936	19.92
620.058	21.92
620.181	20.92
620.303	9.92
620.425	18.92
620.547	2.92
620.669	-22.08
620.791	9.92
620.913	13.92
621.036	9.92
621.158	9.92
621.28	11.92
621.402	0.92
621.524	8.92
621.646	17.92
621.768	15.92
621.891	-6.08
622.013	15.92
622.135	8.92
622.257	-2.08
622.379	8.92
622.501	7.92
622.623	22.92
622.745	15.92
622.868	19.92
622.99	6.92
623.112	0.92
623.234	5.92
623.356	6.92
623.478	-6.08
623.6	21.92
623.722	18.92
623.845	18.92
623.967	11.92
624.089	22.92
624.211	11.92
624.333	27.92
624.455	9.92
624.577	11.92
624.699	-1.08
624.822	-3.08
624.944	10.92
625.066	9.92
625.188	14.92
625.31	13.92
625.432	13.92
625.554	10.92
625.676	27.92
625.799	10.92
625.921	22.92
626.043	11.92
626.165	27.92
626.287	-3.08
626.409	18.92
626.531	5.92
626.653	11.92
626.775	19.92
626.898	14.92
627.02	10.92
627.142	22.92
627.264	27.92
627.386	6.92
627.508	-6.08
627.63	-3.08
627.752	27.92
627.874	24.92
627.997	20.92
628.119	29.92
628.241	27.92
628.363	30.92
628.485	29.92
628.607	17.92
628.729	14.92
628.851	3.92
628.973	8.92
629.096	1.92
629.218	31.92
629.34	28.92
629.462	11.92
629.584	2.92
629.706	10.92
629.828	9.92
629.95	13.92
630.072	-13.08
630.195	5.92
630.317	25.92
630.439	20.92
630.561	17.92
630.683	-7.08
630.805	30.92
630.927	19.92
631.049	0.92
631.171	2.92
631.293	7.92
631.416	23.92
631.538	-0.08
631.66	16.92
631.782	7.92
631.904	37.92
632.026	14.92
632.148	12.92
632.27	3.92
632.392	6.92
632.514	1.92
632.637	-2.08
632.759	20.92
632.881	-9.08
633.003	-7.08
633.125	10.92
633.247	12.92
633.369	9.92
633.491	29.92
633.613	18.92
633.735	17.92
633.858	3.92
633.98	12.92
634.102	2.92
634.224	18.92
634.346	4.92
634.468	3.92
634.59	25.92
634.712	9.92
634.834	20.92
634.956	5.92
635.078	-6.08
635.201	-6.08
635.323	18.92
635.445	-2.08
635.567	-10.08
635.689	18.92
635.811	21.92
635.933	26.92
636.055	18.92
636.177	11.92
636.299	17.92
636.421	1.92
636.544	-3.08
636.666	20.92
636.788	7.92
636.91	5.92
637.032	-6.08
637.154	15.92
637.276	23.92
637.398	5.92
637.52	17.92
637.642	26.92
637.764	11.92
637.887	15.92
638.009	5.92
638.131	8.92
638.253	6.92
638.375	17.92
638.497	-2.08
638.619	3.92
638.741	7.92
638.863	13.92
638.985	9.92
639.107	-8.08
639.23	-2.08
639.352	10.92
639.474	25.92
639.596	9.92
639.718	3.92
639.84	14.92
639.962	20.92
640.084	22.92
640.206	31.92
640.328	8.92
640.45	17.92
640.573	6.92
640.695	15.92
640.817	8.92
640.939	24.92
641.061	14.92
641.183	2.92
641.305	4.92
641.427	-7.08
641.549	2.92
641.671	5.92
641.793	9.92
641.915	2.92
642.038	4.92
642.16	13.92
642.282	-3.08
642.404	-4.08
642.526	18.92
642.648	18.92
642.77	26.92
642.892	5.92
643.014	17.92
643.136	1.92
643.258	27.92
643.381	19.92
643.503	26.92
643.625	9.92
643.747	-1.08
643.869	21.92
643.991	29.92
644.113	1.92
644.235	15.92
644.357	27.92
644.479	24.92
644.601	12.92
644.723	-6.08
644.846	10.92
644.968	-3.08
645.09	18.92
645.212	17.92
645.334	22.92
645.456	16.92
645.578	25.92
645.7	18.92
645.822	19.92
645.944	17.92
646.066	30.92
646.188	2.92
646.311	29.92
646.433	-3.08
646.555	49.92
646.677	47.92
646.799	46.92
646.921	32.92
647.043	38.92
647.165	-9.08
647.287	14.92
647.409	4.92
647.531	10.92
647.654	4.92
647.776	15.92
647.898	24.92
648.02	4.92
648.142	7.92
648.264	14.92
648.386	28.92
648.508	-8.08
648.63	-8.08
648.752	19.92
648.874	-3.08
648.997	14.92
649.119	9.92
649.241	15.92
649.363	15.92
649.485	18.92
649.607	2.92
649.729	-1.08
649.851	4.92
649.973	14.92
650.095	19.92
650.217	-6.08
650.34	-23.08
650.462	18.92
650.584	5.92
650.706	7.92
650.828	15.92
650.95	-12.08
651.072	13.92
651.194	-7.08
651.316	15.92
651.438	1.92
651.56	-2.08
651.683	-8.08
651.805	-0.08
651.927	10.92
652.049	-2.08
652.171	6.92
652.293	13.92
652.415	2.92
652.537	-5.08
652.659	-24.08
652.781	13.92
652.903	32.92
653.026	37.92
653.148	5.92
653.27	2.92
653.392	17.92
653.514	11.92
653.636	12.92
653.758	17.92
653.88	-6.08
654.002	-11.08
654.124	8.92
654.247	23.92
654.369	28.92
654.491	10.92
654.613	11.92
654.735	14.92
654.857	21.92
654.979	28.92
655.101	8.92
655.223	45.92
655.345	22.92
655.468	29.92
655.59	29.92
655.712	13.92
655.834	35.92
655.956	53.92
656.078	31.92
656.2	51.92
656.322	38.92
656.444	26.92
656.566	29.92
656.689	61.92
656.811	57.92
656.933	89.92
657.055	95.92
657.177	163.92
657.299	261.92
657.421	506.92
657.543	1909.92
657.665	12602.92
657.787	15173.92
657.91	15305.92
658.032	15664.92
658.154	4698.92
658.276	3862.92
658.398	1224.92
658.52	1034.92
658.642	490.92
658.764	609.92
658.886	290.92
659.009	411.92
659.131	220.92
659.253	322.92
659.375	173.92
659.497	248.92
659.619	150.92
659.741	212.92
659.863	89.92
659.985	166.92
660.108	115.92
660.23	147.92
660.352	93.92
660.474	146.92
660.596	69.92
660.718	127.92
660.84	77.92
660.962	99.92
661.084	61.92
661.207	109.92
661.329	60.92
661.451	103.92
661.573	37.92
661.695	114.92
661.817	61.92
661.939	90.92
662.061	61.92
662.184	66.92
662.306	47.92
662.428	69.92
662.55	58.92
662.672	63.92
662.794	38.92
662.916	65.92
663.038	47.92
663.161	84.92
663.283	49.92
663.405	70.92
663.527	18.92
663.649	60.92
663.771	27.92
663.893	65.92
664.015	23.92
664.138	49.92
664.26	52.92
664.382	65.92
664.504	44.92
664.626	38.92
664.748	9.92
664.87	37.92
664.992	25.92
665.115	65.92
665.237	19.92
665.359	39.92
665.481	28.92
665.603	41.92
665.725	18.92
665.847	23.92
665.97	16.92
666.092	43.92
666.214	40.92
666.336	35.92
666.458	43.92
666.58	27.92
666.702	5.92
666.825	37.92
666.947	10.92
667.069	40.92
667.191	36.92
667.313	56.92
667.435	6.92
667.557	29.92
667.68	15.92
667.802	14.92
667.924	10.92
668.046	33.92
668.168	35.92
668.29	58.92
668.412	29.92
668.535	41.92
668.657	13.92
668.779	28.92
668.901	21.92
669.023	51.92
669.145	13.92
669.267	33.92
669.39	4.92
669.512	25.92
669.634	24.92
669.756	37.92
669.878	25.92
670	20.92
670.123	18.92
670.245	27.92
670.367	18.92
670.489	36.92
670.611	-0.08
670.733	26.92
670.856	4.92
670.978	23.92
671.1	37.92
671.222	47.92
671.344	22.92
671.466	28.92
671.589	3.92
671.711	15.92
671.833	9.92
671.955	36.92
672.077	10.92
672.199	25.92
672.322	23.92
672.444	40.92
672.566	20.92
672.688	26.92
672.81	31.92
672.932	19.92
673.055	19.92
673.177	21.92
673.299	4.92
673.421	3.92
673.543	4.92
673.665	48.92
673.788	17.92
673.91	26.92
674.032	1.92
674.154	22.92
674.276	0.92
674.399	12.92
674.521	14.92
674.643	30.92
674.765	-2.08
674.887	21.92
675.009	8.92
675.132	6.92
675.254	6.92
675.376	16.92
675.498	19.92
675.62	45.92
675.743	7.92
675.865	35.92
675.987	6.92
676.109	16.92
676.231	27.92
676.354	27.92
676.476	6.92
676.598	27.92
676.72	13.92
676.842	32.92
676.965	12.92
677.087	26.92
677.209	14.92
677.331	37.92
677.453	28.92
677.576	18.92
677.698	21.92
677.82	14.92
677.942	-0.08
678.064	28.92
678.187	10.92
678.309	29.92
678.431	12.92
678.553	10.92
678.675	23.92
678.798	40.92
678.92	-5.08
679.042	11.92
679.164	7.92
679.286	30.92
679.409	20.92
679.531	14.92
679.653	8.92
679.775	9.92
679.898	4.92
680.02	24.92
680.142	5.92
680.264	12.92
680.386	1.92
680.509	31.92
680.631	11.92
680.753	23.92
680.875	-5.08
680.998	17.92
681.12	19.92
681.242	33.92
681.364	-7.08
681.486	2.92
681.609	1.92
681.731	6.92
681.853	4.92
681.975	-3.08
682.098	5.92
682.22	37.92
682.342	6.92
682.464	42.92
682.587	10.92
682.709	7.92
682.831	-14.08
682.953	10.92
683.076	8.92
683.198	29.92
683.32	19.92
683.442	22.92
683.565	1.92
683.687	1.92
683.809	8.92
683.931	4.92
684.054	19.92
684.176	7.92
684.298	22.92
684.42	12.92
684.543	3.92
684.665	12.92
684.787	4.92
684.909	22.92
685.032	33.92
685.154	5.92
685.276	2.92
685.398	5.92
685.521	0.92
685.643	19.92
685.765	8.92
685.887	20.92
686.01	11.92
686.132	16.92
686.254	18.92
686.377	19.92
686.499	4.92
686.621	25.92
686.743	14.92
686.866	-0.08
686.988	37.92
687.11	27.92
687.232	3.92
687.355	-2.08
687.477	5.92
687.599	24.92
687.722	-3.08
687.844	2.92
687.966	17.92
688.088	19.92
688.211	35.92
688.333	25.92
688.455	12.92
688.578	29.92
688.7	9.92
688.822	16.92
688.944	-6.08
689.067	32.92
689.189	15.92
689.311	-3.08
689.434	25.92
689.556	18.92
689.678	10.92
689.801	22.92
689.923	13.92
690.045	24.92
690.167	22.92
690.29	21.92
690.412	11.92
690.534	7.92
690.657	13.92
690.779	5.92
690.901	1.92
691.024	14.92
691.146	11.92
691.268	9.92
691.391	22.92
691.513	20.92
691.635	26.92
691.758	14.92
691.88	21.92
692.002	-2.08
692.125	9.92
692.247	1.92
692.369	-4.08
692.492	12.92
692.614	-1.08
692.736	-6.08
692.859	8.92
692.981	35.92
693.103	-0.08
693.226	23.92
693.348	31.92
693.47	20.92
693.593	4.92
693.715	12.92
693.837	3.92
693.96	6.92
694.082	2.92
694.204	13.92
694.327	24.92
694.449	3.92
694.571	14.92
694.694	34.92
694.816	5.92
694.938	8.92
695.061	5.92
695.183	10.92
695.305	13.92
695.428	24.92
695.55	-7.08
695.672	-7.08
695.795	12.92
695.917	16.92
696.04	17.92
696.162	18.92
696.284	9.92
696.407	10.92
696.529	18.92
696.651	20.92
696.774	17.92
696.896	21.92
697.019	25.92
697.141	32.92
697.263	19.92
697.386	3.92
697.508	6.92
697.63	17.92
697.753	13.92
697.875	15.92
697.998	-5.08
698.12	-7.08
698.242	15.92
698.365	4.92
698.487	41.92
698.61	21.92
698.732	13.92
698.854	28.92
698.977	-5.08
699.099	20.92
699.221	-2.08
699.344	-8.08
699.466	8.92
699.589	15.92
699.711	4.92
699.834	6.92
699.956	-5.08
700.078	13.92
700.201	-8.08
700.323	18.92
700.446	16.92
700.568	5.92
700.69	17.92
700.813	16.92
700.935	-0.08
701.058	-1.08
701.18	14.92
701.302	18.92
701.425	5.92
701.547	12.92
701.67	6.92
701.792	7.92
701.915	6.92
702.037	-6.08
702.159	18.92
702.282	7.92
702.404	0.92
702.527	24.92
702.649	20.92
702.772	18.92
702.894	9.92
703.017	9.92
703.139	13.92
703.261	25.92
703.384	16.92
703.506	-7.08
703.629	10.92
703.751	21.92
703.874	2.92
703.996	-1.08
704.119	-7.08
704.241	21.92
704.364	-8.08
704.486	8.92
704.608	35.92
704.731	-1.08
704.853	22.92
704.976	7.92
705.098	25.92
705.221	18.92
705.343	20.92
705.466	8.92
705.588	23.92
705.711	9.92
705.833	24.92
705.956	15.92
706.078	-0.08
706.201	4.92
706.323	0.92
706.446	-4.08
