Data from LowRes_H2_15_26_11_07_2024_HR4C61881__63__15-28-19-936.txt Node

Date: Thu Nov 07 15:28:19 EST 2024
User: crc00042
Spectrometer: HR4C6188
Trigger mode: 4
Integration Time (sec): 1.000000E-1
Scans to average: 1
Electric dark correction enabled: true
Nonlinearity correction enabled: false
Boxcar width: 0
XAxis mode: Wavelengths
Number of Pixels in Spectrum: 3648
>>>>>Begin Spectral Data<<<<<
245.66	-98.08
245.797	-98.08
245.934	-98.08
246.071	-73.08
246.208	4.92
246.344	15.92
246.481	-9.08
246.618	-9.08
246.755	2.92
246.892	-11.08
247.029	-2.08
247.165	-2.08
247.302	13.92
247.439	-1.08
247.576	6.92
247.713	-6.08
247.849	10.92
247.986	-10.08
248.123	0.92
248.26	7.92
248.396	15.92
248.533	17.92
248.67	-15.08
248.806	-6.08
248.943	-17.08
249.08	-4.08
249.216	2.92
249.353	-1.08
249.49	10.92
249.626	10.92
249.763	-1.08
249.9	8.92
250.036	-13.08
250.173	-11.08
250.309	1.92
250.446	5.92
250.582	-11.08
250.719	-9.08
250.856	1.92
250.992	-11.08
251.129	-2.08
251.265	-2.08
251.402	-4.08
251.538	-10.08
251.675	-8.08
251.811	0.92
251.948	9.92
252.084	4.92
252.221	-8.08
252.357	1.92
252.493	36.92
252.63	4.92
252.766	5.92
252.903	-14.08
253.039	-2.08
253.175	-24.08
253.312	17.92
253.448	0.92
253.585	-23.08
253.721	18.92
253.857	-7.08
253.994	0.92
254.13	-4.08
254.266	1.92
254.403	4.92
254.539	5.92
254.675	26.92
254.811	4.92
254.948	8.92
255.084	9.92
255.22	0.92
255.356	-18.08
255.493	-2.08
255.629	14.92
255.765	16.92
255.901	-0.08
256.037	14.92
256.174	15.92
256.31	7.92
256.446	2.92
256.582	10.92
256.718	15.92
256.854	10.92
256.991	-2.08
257.127	14.92
257.263	1.92
257.399	-1.08
257.535	-16.08
257.671	4.92
257.807	16.92
257.943	9.92
258.079	-9.08
258.215	6.92
258.351	13.92
258.487	-14.08
258.623	27.92
258.759	-1.08
258.895	2.92
259.031	-11.08
259.167	-18.08
259.303	22.92
259.439	9.92
259.575	-9.08
259.711	0.92
259.847	-11.08
259.983	4.92
260.119	-11.08
260.255	-4.08
260.391	8.92
260.527	11.92
260.663	9.92
260.799	-9.08
260.934	-8.08
261.07	1.92
261.206	-8.08
261.342	-10.08
261.478	16.92
261.614	13.92
261.749	4.92
261.885	-2.08
262.021	-4.08
262.157	16.92
262.293	-1.08
262.428	4.92
262.564	0.92
262.7	20.92
262.836	-7.08
262.971	21.92
263.107	4.92
263.243	20.92
263.378	5.92
263.514	-14.08
263.65	2.92
263.785	-20.08
263.921	-21.08
264.057	-15.08
264.192	-0.08
264.328	3.92
264.464	-14.08
264.599	9.92
264.735	20.92
264.871	-10.08
265.006	8.92
265.142	10.92
265.277	18.92
265.413	14.92
265.548	19.92
265.684	6.92
265.819	-4.08
265.955	-10.08
266.091	0.92
266.226	-7.08
266.362	6.92
266.497	18.92
266.633	-2.08
266.768	-6.08
266.903	17.92
267.039	5.92
267.174	33.92
267.31	-22.08
267.445	-5.08
267.581	1.92
267.716	3.92
267.851	13.92
267.987	13.92
268.122	20.92
268.258	4.92
268.393	-5.08
268.528	2.92
268.664	-4.08
268.799	-22.08
268.934	5.92
269.07	-12.08
269.205	10.92
269.34	26.92
269.476	-0.08
269.611	-1.08
269.746	13.92
269.881	11.92
270.017	13.92
270.152	13.92
270.287	1.92
270.422	18.92
270.558	-3.08
270.693	-1.08
270.828	3.92
270.963	-12.08
271.098	-7.08
271.234	9.92
271.369	6.92
271.504	2.92
271.639	-10.08
271.774	-3.08
271.909	2.92
272.045	5.92
272.18	-1.08
272.315	-11.08
272.45	14.92
272.585	-19.08
272.72	-6.08
272.855	9.92
272.99	24.92
273.125	-4.08
273.26	-13.08
273.395	12.92
273.53	19.92
273.665	2.92
273.8	11.92
273.935	8.92
274.07	4.92
274.205	-4.08
274.34	3.92
274.475	14.92
274.61	19.92
274.745	-19.08
274.88	21.92
275.015	-1.08
275.15	13.92
275.285	13.92
275.42	-5.08
275.555	17.92
275.69	9.92
275.825	6.92
275.959	-5.08
276.094	-2.08
276.229	-4.08
276.364	-2.08
276.499	6.92
276.634	13.92
276.768	-9.08
276.903	13.92
277.038	11.92
277.173	15.92
277.308	-7.08
277.442	-8.08
277.577	-4.08
277.712	4.92
277.847	9.92
277.981	10.92
278.116	-30.08
278.251	-9.08
278.386	-3.08
278.52	5.92
278.655	-7.08
278.79	9.92
278.924	1.92
279.059	10.92
279.194	-2.08
279.328	35.92
279.463	10.92
279.598	28.92
279.732	17.92
279.867	26.92
280.001	6.92
280.136	-7.08
280.271	-5.08
280.405	5.92
280.54	6.92
280.674	-7.08
280.809	13.92
280.943	-1.08
281.078	9.92
281.213	29.92
281.347	14.92
281.482	10.92
281.616	10.92
281.751	-3.08
281.885	-2.08
282.02	-7.08
282.154	20.92
282.288	-1.08
282.423	-6.08
282.557	-11.08
282.692	11.92
282.826	5.92
282.961	14.92
283.095	-5.08
283.229	-10.08
283.364	-18.08
283.498	-4.08
283.633	24.92
283.767	10.92
283.901	6.92
284.036	-2.08
284.17	26.92
284.304	7.92
284.439	-0.08
284.573	-8.08
284.707	8.92
284.842	-5.08
284.976	2.92
285.11	-11.08
285.244	6.92
285.379	47.92
285.513	-6.08
285.647	3.92
285.781	-2.08
285.916	1.92
286.05	8.92
286.184	36.92
286.318	21.92
286.453	-8.08
286.587	-7.08
286.721	-1.08
286.855	11.92
286.989	9.92
287.123	2.92
287.258	-5.08
287.392	5.92
287.526	8.92
287.66	-14.08
287.794	-0.08
287.928	-2.08
288.062	8.92
288.196	-9.08
288.33	-11.08
288.464	11.92
288.598	5.92
288.733	8.92
288.867	28.92
289.001	-5.08
289.135	-5.08
289.269	-1.08
289.403	-6.08
289.537	1.92
289.671	15.92
289.805	7.92
289.939	12.92
290.073	-8.08
290.207	8.92
290.34	0.92
290.474	15.92
290.608	19.92
290.742	-1.08
290.876	-4.08
291.01	-9.08
291.144	23.92
291.278	25.92
291.412	-5.08
291.546	-10.08
291.679	-9.08
291.813	4.92
291.947	10.92
292.081	-8.08
292.215	7.92
292.349	6.92
292.482	0.92
292.616	-9.08
292.75	13.92
292.884	6.92
293.018	1.92
293.151	-21.08
293.285	1.92
293.419	-8.08
293.553	-4.08
293.686	-3.08
293.82	8.92
293.954	6.92
294.088	25.92
294.221	7.92
294.355	-2.08
294.489	9.92
294.622	-21.08
294.756	-1.08
294.89	12.92
295.023	27.92
295.157	10.92
295.291	6.92
295.424	20.92
295.558	14.92
295.691	3.92
295.825	-3.08
295.959	17.92
296.092	-5.08
296.226	4.92
296.359	-6.08
296.493	8.92
296.627	9.92
296.76	-5.08
296.894	12.92
297.027	0.92
297.161	12.92
297.294	-25.08
297.428	12.92
297.561	34.92
297.695	0.92
297.828	-3.08
297.962	8.92
298.095	-3.08
298.229	12.92
298.362	-3.08
298.495	1.92
298.629	12.92
298.762	-2.08
298.896	1.92
299.029	-3.08
299.162	-8.08
299.296	7.92
299.429	7.92
299.563	8.92
299.696	6.92
299.829	-1.08
299.963	27.92
300.096	14.92
300.229	8.92
300.363	2.92
300.496	0.92
300.629	-25.08
300.763	15.92
300.896	-7.08
301.029	13.92
301.162	16.92
301.296	-21.08
301.429	4.92
301.562	-7.08
301.695	25.92
301.829	11.92
301.962	12.92
302.095	4.92
302.228	-14.08
302.362	10.92
302.495	-11.08
302.628	13.92
302.761	-0.08
302.894	-4.08
303.027	20.92
303.161	-22.08
303.294	-9.08
303.427	28.92
303.56	12.92
303.693	-2.08
303.826	-0.08
303.959	-7.08
304.092	0.92
304.225	0.92
304.359	2.92
304.492	11.92
304.625	-9.08
304.758	-6.08
304.891	-4.08
305.024	9.92
305.157	-2.08
305.29	-7.08
305.423	-2.08
305.556	17.92
305.689	15.92
305.822	-11.08
305.955	4.92
306.088	4.92
306.221	-4.08
306.354	1.92
306.487	-1.08
306.62	-7.08
306.752	1.92
306.885	5.92
307.018	-7.08
307.151	9.92
307.284	0.92
307.417	-12.08
307.55	-9.08
307.683	-7.08
307.816	6.92
307.948	14.92
308.081	20.92
308.214	13.92
308.347	24.92
308.48	-5.08
308.613	-17.08
308.745	2.92
308.878	-9.08
309.011	7.92
309.144	-2.08
309.277	7.92
309.409	1.92
309.542	-13.08
309.675	20.92
309.808	9.92
309.94	23.92
310.073	-11.08
310.206	-2.08
310.339	7.92
310.471	-25.08
310.604	2.92
310.737	-19.08
310.869	5.92
311.002	3.92
311.135	5.92
311.267	-25.08
311.4	-10.08
311.533	15.92
311.665	3.92
311.798	-14.08
311.93	8.92
312.063	12.92
312.196	11.92
312.328	-13.08
312.461	4.92
312.593	12.92
312.726	19.92
312.859	5.92
312.991	12.92
313.124	-27.08
313.256	-3.08
313.389	9.92
313.521	-11.08
313.654	-8.08
313.786	-10.08
313.919	-9.08
314.051	2.92
314.184	9.92
314.316	4.92
314.449	-10.08
314.581	-5.08
314.714	-7.08
314.846	20.92
314.978	-7.08
315.111	-11.08
315.243	-2.08
315.376	1.92
315.508	1.92
315.641	-0.08
315.773	11.92
315.905	3.92
316.038	-8.08
316.17	8.92
316.302	13.92
316.435	19.92
316.567	4.92
316.699	28.92
316.832	-3.08
316.964	-1.08
317.096	1.92
317.229	-6.08
317.361	-26.08
317.493	-5.08
317.625	-1.08
317.758	13.92
317.89	13.92
318.022	17.92
318.155	14.92
318.287	22.92
318.419	11.92
318.551	0.92
318.683	-10.08
318.816	-5.08
318.948	5.92
319.08	-11.08
319.212	9.92
319.344	9.92
319.477	-0.08
319.609	18.92
319.741	7.92
319.873	8.92
320.005	-0.08
320.137	-5.08
320.269	18.92
320.401	7.92
320.534	15.92
320.666	-11.08
320.798	-7.08
320.93	6.92
321.062	-15.08
321.194	3.92
321.326	11.92
321.458	7.92
321.59	6.92
321.722	-5.08
321.854	14.92
321.986	-3.08
322.118	19.92
322.25	-9.08
322.382	-2.08
322.514	-3.08
322.646	-2.08
322.778	13.92
322.91	-18.08
323.042	0.92
323.174	14.92
323.306	-15.08
323.438	-7.08
323.57	10.92
323.702	-7.08
323.834	14.92
323.966	-26.08
324.097	7.92
324.229	19.92
324.361	-2.08
324.493	2.92
324.625	0.92
324.757	-0.08
324.889	-3.08
325.021	9.92
325.152	23.92
325.284	3.92
325.416	-11.08
325.548	6.92
325.68	5.92
325.811	0.92
325.943	-7.08
326.075	-12.08
326.207	9.92
326.339	30.92
326.47	4.92
326.602	0.92
326.734	4.92
326.866	26.92
326.997	4.92
327.129	-4.08
327.261	-15.08
327.392	-14.08
327.524	9.92
327.656	11.92
327.787	27.92
327.919	-10.08
328.051	-7.08
328.182	20.92
328.314	20.92
328.446	-2.08
328.577	22.92
328.709	24.92
328.841	1.92
328.972	-10.08
329.104	-19.08
329.235	-1.08
329.367	-0.08
329.499	1.92
329.63	-0.08
329.762	19.92
329.893	13.92
330.025	23.92
330.156	-17.08
330.288	3.92
330.419	29.92
330.551	12.92
330.683	-1.08
330.814	3.92
330.946	18.92
331.077	-14.08
331.208	-1.08
331.34	-6.08
331.471	-19.08
331.603	-3.08
331.734	-7.08
331.866	-0.08
331.997	9.92
332.129	13.92
332.26	-10.08
332.392	20.92
332.523	7.92
332.654	-22.08
332.786	2.92
332.917	-24.08
333.048	15.92
333.18	-1.08
333.311	-9.08
333.443	6.92
333.574	4.92
333.705	33.92
333.837	5.92
333.968	26.92
334.099	19.92
334.231	18.92
334.362	-4.08
334.493	11.92
334.624	19.92
334.756	21.92
334.887	10.92
335.018	14.92
335.15	7.92
335.281	8.92
335.412	21.92
335.543	22.92
335.675	4.92
335.806	8.92
335.937	5.92
336.068	19.92
336.199	56.92
336.331	11.92
336.462	10.92
336.593	1.92
336.724	16.92
336.855	2.92
336.986	-1.08
337.118	7.92
337.249	16.92
337.38	-8.08
337.511	12.92
337.642	4.92
337.773	9.92
337.904	17.92
338.035	31.92
338.166	-2.08
338.298	3.92
338.429	-1.08
338.56	14.92
338.691	13.92
338.822	6.92
338.953	12.92
339.084	21.92
339.215	25.92
339.346	-1.08
339.477	3.92
339.608	-5.08
339.739	-3.08
339.87	1.92
340.001	-17.08
340.132	5.92
340.263	-8.08
340.394	-4.08
340.525	10.92
340.656	-6.08
340.787	-9.08
340.918	19.92
341.049	35.92
341.179	1.92
341.31	15.92
341.441	14.92
341.572	9.92
341.703	18.92
341.834	-6.08
341.965	14.92
342.096	0.92
342.227	-13.08
342.357	11.92
342.488	0.92
342.619	5.92
342.75	16.92
342.881	-9.08
343.012	14.92
343.142	24.92
343.273	-2.08
343.404	18.92
343.535	36.92
343.666	15.92
343.796	18.92
343.927	24.92
344.058	14.92
344.189	19.92
344.319	1.92
344.45	4.92
344.581	-0.08
344.712	-10.08
344.842	2.92
344.973	5.92
345.104	5.92
345.234	0.92
345.365	-6.08
345.496	0.92
345.626	0.92
345.757	9.92
345.888	-8.08
346.018	11.92
346.149	8.92
346.28	30.92
346.41	-19.08
346.541	8.92
346.672	-4.08
346.802	7.92
346.933	-3.08
347.063	-6.08
347.194	-2.08
347.325	15.92
347.455	7.92
347.586	-2.08
347.716	-4.08
347.847	-2.08
347.977	5.92
348.108	17.92
348.238	15.92
348.369	-9.08
348.499	-1.08
348.63	-1.08
348.76	-0.08
348.891	0.92
349.021	10.92
349.152	1.92
349.282	0.92
349.413	-19.08
349.543	9.92
349.674	-3.08
349.804	11.92
349.935	7.92
350.065	2.92
350.196	6.92
350.326	17.92
350.456	-4.08
350.587	24.92
350.717	16.92
350.848	10.92
350.978	4.92
351.108	-2.08
351.239	31.92
351.369	-8.08
351.499	9.92
351.63	17.92
351.76	18.92
351.89	12.92
352.021	10.92
352.151	9.92
352.281	6.92
352.412	3.92
352.542	15.92
352.672	2.92
352.803	11.92
352.933	13.92
353.063	8.92
353.193	15.92
353.324	-9.08
353.454	31.92
353.584	34.92
353.714	2.92
353.845	25.92
353.975	13.92
354.105	-1.08
354.235	18.92
354.365	5.92
354.496	2.92
354.626	6.92
354.756	23.92
354.886	-4.08
355.016	14.92
355.146	-4.08
355.277	18.92
355.407	-0.08
355.537	-17.08
355.667	-5.08
355.797	-7.08
355.927	-8.08
356.057	-7.08
356.187	1.92
356.318	-13.08
356.448	4.92
356.578	5.92
356.708	18.92
356.838	3.92
356.968	-18.08
357.098	21.92
357.228	9.92
357.358	-0.08
357.488	3.92
357.618	21.92
357.748	6.92
357.878	5.92
358.008	6.92
358.138	9.92
358.268	11.92
358.398	17.92
358.528	-6.08
358.658	23.92
358.788	14.92
358.918	15.92
359.048	-0.08
359.178	18.92
359.308	20.92
359.438	28.92
359.568	20.92
359.698	2.92
359.827	-12.08
359.957	5.92
360.087	6.92
360.217	-0.08
360.347	10.92
360.477	24.92
360.607	-7.08
360.737	28.92
360.866	-7.08
360.996	1.92
361.126	-3.08
361.256	27.92
361.386	21.92
361.516	28.92
361.645	0.92
361.775	10.92
361.905	-8.08
362.035	6.92
362.165	13.92
362.294	14.92
362.424	7.92
362.554	26.92
362.684	2.92
362.813	0.92
362.943	8.92
363.073	19.92
363.203	3.92
363.332	5.92
363.462	-11.08
363.592	-5.08
363.721	-6.08
363.851	-2.08
363.981	6.92
364.111	4.92
364.24	-6.08
364.37	2.92
364.5	7.92
364.629	10.92
364.759	4.92
364.888	-18.08
365.018	11.92
365.148	-16.08
365.277	-3.08
365.407	5.92
365.537	15.92
365.666	10.92
365.796	25.92
365.925	-9.08
366.055	1.92
366.184	-5.08
366.314	14.92
366.444	5.92
366.573	5.92
366.703	3.92
366.832	9.92
366.962	27.92
367.091	29.92
367.221	17.92
367.35	-1.08
367.48	25.92
367.609	12.92
367.739	10.92
367.868	-8.08
367.998	13.92
368.127	37.92
368.257	26.92
368.386	40.92
368.516	7.92
368.645	3.92
368.775	18.92
368.904	7.92
369.033	-0.08
369.163	-11.08
369.292	-0.08
369.422	26.92
369.551	19.92
369.68	24.92
369.81	27.92
369.939	-9.08
370.069	30.92
370.198	24.92
370.327	-4.08
370.457	10.92
370.586	33.92
370.715	-0.08
370.845	-16.08
370.974	0.92
371.103	18.92
371.233	11.92
371.362	16.92
371.491	0.92
371.621	4.92
371.75	12.92
371.879	-18.08
372.008	0.92
372.138	6.92
372.267	11.92
372.396	-6.08
372.525	1.92
372.655	3.92
372.784	6.92
372.913	6.92
373.042	8.92
373.172	33.92
373.301	-7.08
373.43	2.92
373.559	2.92
373.688	8.92
373.818	34.92
373.947	22.92
374.076	11.92
374.205	6.92
374.334	-11.08
374.463	-14.08
374.593	13.92
374.722	29.92
374.851	28.92
374.98	3.92
375.109	10.92
375.238	9.92
375.367	15.92
375.496	-9.08
375.625	-7.08
375.755	9.92
375.884	15.92
376.013	11.92
376.142	-9.08
376.271	10.92
376.4	25.92
376.529	3.92
376.658	14.92
376.787	-7.08
376.916	10.92
377.045	3.92
377.174	11.92
377.303	10.92
377.432	30.92
377.561	18.92
377.69	-4.08
377.819	21.92
377.948	11.92
378.077	3.92
378.206	-4.08
378.335	11.92
378.464	-1.08
378.593	15.92
378.722	4.92
378.851	6.92
378.98	26.92
379.108	-1.08
379.237	-6.08
379.366	11.92
379.495	20.92
379.624	9.92
379.753	7.92
379.882	4.92
380.011	2.92
380.14	-6.08
380.268	-8.08
380.397	5.92
380.526	19.92
380.655	-18.08
380.784	-35.08
380.913	-18.08
381.041	10.92
381.17	-26.08
381.299	-18.08
381.428	19.92
381.557	15.92
381.685	-2.08
381.814	11.92
381.943	-8.08
382.072	-9.08
382.2	-2.08
382.329	2.92
382.458	2.92
382.587	22.92
382.715	26.92
382.844	9.92
382.973	6.92
383.102	7.92
383.23	2.92
383.359	-11.08
383.488	8.92
383.616	2.92
383.745	-18.08
383.874	11.92
384.003	11.92
384.131	7.92
384.26	-5.08
384.389	0.92
384.517	-28.08
384.646	-21.08
384.774	1.92
384.903	19.92
385.032	32.92
385.16	10.92
385.289	7.92
385.418	7.92
385.546	8.92
385.675	15.92
385.803	5.92
385.932	5.92
386.06	-4.08
386.189	-0.08
386.318	16.92
386.446	-6.08
386.575	-8.08
386.703	0.92
386.832	1.92
386.96	-13.08
387.089	24.92
387.217	16.92
387.346	1.92
387.474	0.92
387.603	-5.08
387.731	12.92
387.86	29.92
387.988	13.92
388.117	14.92
388.245	-4.08
388.374	11.92
388.502	3.92
388.631	7.92
388.759	-7.08
388.888	-3.08
389.016	5.92
389.144	18.92
389.273	15.92
389.401	-3.08
389.53	-31.08
389.658	12.92
389.786	-3.08
389.915	-14.08
390.043	-5.08
390.172	5.92
390.3	32.92
390.428	17.92
390.557	-3.08
390.685	16.92
390.813	21.92
390.942	21.92
391.07	-7.08
391.198	-1.08
391.327	15.92
391.455	-9.08
391.583	22.92
391.712	10.92
391.84	-10.08
391.968	2.92
392.096	3.92
392.225	9.92
392.353	11.92
392.481	2.92
392.609	6.92
392.738	-2.08
392.866	-3.08
392.994	-7.08
393.122	33.92
393.251	6.92
393.379	7.92
393.507	-23.08
393.635	-5.08
393.764	9.92
393.892	18.92
394.02	12.92
394.148	14.92
394.276	10.92
394.404	16.92
394.533	-11.08
394.661	8.92
394.789	1.92
394.917	12.92
395.045	-4.08
395.173	6.92
395.302	8.92
395.43	20.92
395.558	26.92
395.686	17.92
395.814	-13.08
395.942	-10.08
396.07	5.92
396.198	19.92
396.326	8.92
396.454	38.92
396.582	2.92
396.711	-7.08
396.839	24.92
396.967	-10.08
397.095	-9.08
397.223	10.92
397.351	26.92
397.479	27.92
397.607	5.92
397.735	8.92
397.863	2.92
397.991	7.92
398.119	5.92
398.247	-9.08
398.375	-8.08
398.503	9.92
398.631	8.92
398.759	1.92
398.887	9.92
399.015	0.92
399.143	-4.08
399.271	7.92
399.399	14.92
399.526	23.92
399.654	24.92
399.782	-4.08
399.91	24.92
400.038	20.92
400.166	-10.08
400.294	2.92
400.422	7.92
400.55	9.92
400.678	17.92
400.805	10.92
400.933	1.92
401.061	16.92
401.189	3.92
401.317	24.92
401.445	35.92
401.573	22.92
401.7	2.92
401.828	-4.08
401.956	2.92
402.084	8.92
402.212	19.92
402.34	7.92
402.467	13.92
402.595	8.92
402.723	14.92
402.851	35.92
402.978	17.92
403.106	31.92
403.234	12.92
403.362	31.92
403.489	29.92
403.617	19.92
403.745	2.92
403.873	-5.08
404	6.92
404.128	2.92
404.256	25.92
404.384	33.92
404.511	16.92
404.639	12.92
404.767	19.92
404.894	15.92
405.022	11.92
405.15	7.92
405.277	6.92
405.405	4.92
405.533	12.92
405.66	-3.08
405.788	-6.08
405.916	-13.08
406.043	9.92
406.171	-12.08
406.299	28.92
406.426	30.92
406.554	6.92
406.681	22.92
406.809	14.92
406.937	6.92
407.064	9.92
407.192	3.92
407.319	4.92
407.447	15.92
407.574	31.92
407.702	16.92
407.83	-8.08
407.957	-29.08
408.085	-2.08
408.212	4.92
408.34	2.92
408.467	3.92
408.595	11.92
408.722	0.92
408.85	21.92
408.977	4.92
409.105	1.92
409.232	14.92
409.36	1.92
409.487	14.92
409.615	5.92
409.742	26.92
409.87	30.92
409.997	36.92
410.125	37.92
410.252	39.92
410.379	54.92
410.507	32.92
410.634	5.92
410.762	11.92
410.889	17.92
411.017	1.92
411.144	19.92
411.271	0.92
411.399	9.92
411.526	5.92
411.653	37.92
411.781	37.92
411.908	1.92
412.036	8.92
412.163	32.92
412.29	17.92
412.418	8.92
412.545	14.92
412.672	-5.08
412.8	43.92
412.927	20.92
413.054	11.92
413.182	30.92
413.309	3.92
413.436	4.92
413.564	5.92
413.691	22.92
413.818	15.92
413.945	12.92
414.073	-9.08
414.2	7.92
414.327	14.92
414.454	5.92
414.582	10.92
414.709	2.92
414.836	-0.08
414.963	15.92
415.091	11.92
415.218	-16.08
415.345	15.92
415.472	1.92
415.6	-4.08
415.727	7.92
415.854	13.92
415.981	18.92
416.108	-11.08
416.236	6.92
416.363	4.92
416.49	18.92
416.617	6.92
416.744	18.92
416.871	5.92
416.998	10.92
417.126	9.92
417.253	-2.08
417.38	15.92
417.507	15.92
417.634	14.92
417.761	24.92
417.888	11.92
418.015	6.92
418.143	6.92
418.27	6.92
418.397	9.92
418.524	10.92
418.651	0.92
418.778	12.92
418.905	33.92
419.032	19.92
419.159	23.92
419.286	24.92
419.413	31.92
419.54	32.92
419.667	8.92
419.794	-0.08
419.921	11.92
420.048	-6.08
420.175	1.92
420.302	-8.08
420.429	10.92
420.556	18.92
420.683	-4.08
420.81	-5.08
420.937	13.92
421.064	20.92
421.191	-10.08
421.318	12.92
421.445	16.92
421.572	-3.08
421.699	11.92
421.826	20.92
421.953	7.92
422.08	5.92
422.207	-11.08
422.334	1.92
422.461	31.92
422.588	15.92
422.714	41.92
422.841	27.92
422.968	7.92
423.095	0.92
423.222	-6.08
423.349	3.92
423.476	2.92
423.603	-1.08
423.729	-4.08
423.856	16.92
423.983	38.92
424.11	-5.08
424.237	3.92
424.364	17.92
424.491	-8.08
424.617	-7.08
424.744	0.92
424.871	5.92
424.998	3.92
425.125	17.92
425.251	-9.08
425.378	-0.08
425.505	16.92
425.632	14.92
425.758	8.92
425.885	22.92
426.012	14.92
426.139	32.92
426.266	13.92
426.392	20.92
426.519	8.92
426.646	6.92
426.772	19.92
426.899	17.92
427.026	13.92
427.153	8.92
427.279	24.92
427.406	27.92
427.533	6.92
427.659	12.92
427.786	4.92
427.913	23.92
428.039	15.92
428.166	-1.08
428.293	-3.08
428.419	24.92
428.546	-0.08
428.673	4.92
428.799	-8.08
428.926	-12.08
429.053	37.92
429.179	28.92
429.306	10.92
429.433	28.92
429.559	22.92
429.686	-0.08
429.812	1.92
429.939	13.92
430.066	18.92
430.192	0.92
430.319	5.92
430.445	-18.08
430.572	-20.08
430.699	-28.08
430.825	3.92
430.952	4.92
431.078	-2.08
431.205	8.92
431.331	8.92
431.458	11.92
431.584	11.92
431.711	13.92
431.837	10.92
431.964	4.92
432.09	8.92
432.217	-8.08
432.343	12.92
432.47	20.92
432.596	8.92
432.723	6.92
432.849	4.92
432.976	10.92
433.102	3.92
433.229	11.92
433.355	40.92
433.482	71.92
433.608	170.92
433.735	157.92
433.861	144.92
433.987	158.92
434.114	232.92
434.24	197.92
434.367	73.92
434.493	14.92
434.62	16.92
434.746	18.92
434.872	1.92
434.999	16.92
435.125	15.92
435.252	4.92
435.378	16.92
435.504	16.92
435.631	18.92
435.757	17.92
435.883	33.92
436.01	9.92
436.136	7.92
436.262	10.92
436.389	6.92
436.515	5.92
436.641	30.92
436.768	29.92
436.894	16.92
437.02	9.92
437.147	33.92
437.273	10.92
437.399	5.92
437.526	21.92
437.652	9.92
437.778	10.92
437.904	-22.08
438.031	15.92
438.157	3.92
438.283	22.92
438.409	0.92
438.536	-2.08
438.662	14.92
438.788	16.92
438.914	20.92
439.041	20.92
439.167	16.92
439.293	2.92
439.419	14.92
439.546	25.92
439.672	10.92
439.798	9.92
439.924	12.92
440.05	18.92
440.177	18.92
440.303	19.92
440.429	10.92
440.555	6.92
440.681	6.92
440.807	18.92
440.934	5.92
441.06	8.92
441.186	-13.08
441.312	5.92
441.438	17.92
441.564	16.92
441.69	26.92
441.816	6.92
441.943	8.92
442.069	5.92
442.195	32.92
442.321	15.92
442.447	-3.08
442.573	3.92
442.699	-8.08
442.825	2.92
442.951	29.92
443.077	17.92
443.203	27.92
443.33	11.92
443.456	-21.08
443.582	4.92
443.708	1.92
443.834	25.92
443.96	20.92
444.086	16.92
444.212	26.92
444.338	28.92
444.464	18.92
444.59	30.92
444.716	7.92
444.842	17.92
444.968	-9.08
445.094	6.92
445.22	1.92
445.346	-3.08
445.472	14.92
445.598	21.92
445.724	-3.08
445.85	14.92
445.976	11.92
446.102	23.92
446.228	21.92
446.354	15.92
446.48	13.92
446.605	12.92
446.731	27.92
446.857	8.92
446.983	17.92
447.109	-4.08
447.235	-4.08
447.361	5.92
447.487	27.92
447.613	20.92
447.739	1.92
447.865	-4.08
447.99	2.92
448.116	22.92
448.242	15.92
448.368	13.92
448.494	-4.08
448.62	0.92
448.746	7.92
448.872	1.92
448.997	-6.08
449.123	19.92
449.249	30.92
449.375	31.92
449.501	-1.08
449.627	1.92
449.752	24.92
449.878	5.92
450.004	-17.08
450.13	14.92
450.256	5.92
450.381	8.92
450.507	7.92
450.633	15.92
450.759	18.92
450.884	21.92
451.01	22.92
451.136	17.92
451.262	-5.08
451.388	-7.08
451.513	-9.08
451.639	20.92
451.765	16.92
451.89	20.92
452.016	8.92
452.142	21.92
452.268	15.92
452.393	8.92
452.519	0.92
452.645	18.92
452.771	-9.08
452.896	-18.08
453.022	5.92
453.148	17.92
453.273	10.92
453.399	4.92
453.525	-0.08
453.65	2.92
453.776	16.92
453.902	1.92
454.027	19.92
454.153	10.92
454.279	18.92
454.404	-0.08
454.53	17.92
454.656	23.92
454.781	-4.08
454.907	4.92
455.032	-5.08
455.158	18.92
455.284	18.92
455.409	25.92
455.535	27.92
455.66	11.92
455.786	10.92
455.912	12.92
456.037	-5.08
456.163	26.92
456.288	29.92
456.414	1.92
456.539	-2.08
456.665	20.92
456.791	21.92
456.916	12.92
457.042	12.92
457.167	5.92
457.293	13.92
457.418	2.92
457.544	-6.08
457.669	22.92
457.795	16.92
457.92	21.92
458.046	22.92
458.171	22.92
458.297	18.92
458.422	15.92
458.548	1.92
458.673	29.92
458.799	10.92
458.924	2.92
459.05	20.92
459.175	0.92
459.301	17.92
459.426	26.92
459.552	2.92
459.677	-7.08
459.803	11.92
459.928	29.92
460.053	13.92
460.179	13.92
460.304	31.92
460.43	-4.08
460.555	9.92
460.681	3.92
460.806	23.92
460.931	17.92
461.057	25.92
461.182	11.92
461.308	29.92
461.433	17.92
461.558	10.92
461.684	28.92
461.809	23.92
461.934	8.92
462.06	22.92
462.185	-3.08
462.311	5.92
462.436	28.92
462.561	4.92
462.687	-2.08
462.812	8.92
462.937	2.92
463.063	-7.08
463.188	0.92
463.313	26.92
463.439	23.92
463.564	4.92
463.689	13.92
463.814	21.92
463.94	-1.08
464.065	15.92
464.19	8.92
464.316	2.92
464.441	0.92
464.566	9.92
464.692	-1.08
464.817	16.92
464.942	7.92
465.067	7.92
465.193	2.92
465.318	-6.08
465.443	0.92
465.568	13.92
465.694	11.92
465.819	31.92
465.944	12.92
466.069	15.92
466.194	29.92
466.32	32.92
466.445	8.92
466.57	0.92
466.695	-20.08
466.82	17.92
466.946	21.92
467.071	21.92
467.196	7.92
467.321	17.92
467.446	3.92
467.572	-6.08
467.697	-4.08
467.822	18.92
467.947	24.92
468.072	21.92
468.197	8.92
468.323	6.92
468.448	13.92
468.573	2.92
468.698	23.92
468.823	2.92
468.948	13.92
469.073	30.92
469.198	20.92
469.324	30.92
469.449	5.92
469.574	32.92
469.699	24.92
469.824	35.92
469.949	31.92
470.074	12.92
470.199	36.92
470.324	44.92
470.449	31.92
470.574	23.92
470.7	-8.08
470.825	0.92
470.95	30.92
471.075	20.92
471.2	26.92
471.325	21.92
471.45	4.92
471.575	1.92
471.7	18.92
471.825	1.92
471.95	0.92
472.075	11.92
472.2	9.92
472.325	6.92
472.45	11.92
472.575	6.92
472.7	9.92
472.825	27.92
472.95	9.92
473.075	12.92
473.2	13.92
473.325	26.92
473.45	11.92
473.575	-10.08
473.7	-5.08
473.825	15.92
473.95	5.92
474.075	8.92
474.2	8.92
474.325	7.92
474.45	23.92
474.574	13.92
474.699	19.92
474.824	6.92
474.949	-8.08
475.074	-4.08
475.199	17.92
475.324	17.92
475.449	4.92
475.574	17.92
475.699	22.92
475.824	21.92
475.949	35.92
476.073	24.92
476.198	11.92
476.323	-3.08
476.448	15.92
476.573	25.92
476.698	24.92
476.823	20.92
476.947	7.92
477.072	10.92
477.197	1.92
477.322	11.92
477.447	-4.08
477.572	18.92
477.697	18.92
477.821	5.92
477.946	9.92
478.071	21.92
478.196	23.92
478.321	13.92
478.445	7.92
478.57	8.92
478.695	3.92
478.82	18.92
478.945	12.92
479.069	10.92
479.194	7.92
479.319	21.92
479.444	28.92
479.569	22.92
479.693	14.92
479.818	8.92
479.943	20.92
480.068	22.92
480.192	13.92
480.317	22.92
480.442	1.92
480.567	9.92
480.691	19.92
480.816	11.92
480.941	9.92
481.066	12.92
481.19	22.92
481.315	13.92
481.44	-5.08
481.564	-17.08
481.689	21.92
481.814	28.92
481.938	31.92
482.063	13.92
482.188	15.92
482.313	38.92
482.437	6.92
482.562	19.92
482.687	26.92
482.811	36.92
482.936	24.92
483.061	40.92
483.185	10.92
483.31	19.92
483.435	16.92
483.559	27.92
483.684	6.92
483.808	25.92
483.933	22.92
484.058	17.92
484.182	11.92
484.307	24.92
484.432	7.92
484.556	8.92
484.681	25.92
484.805	26.92
484.93	35.92
485.055	38.92
485.179	68.92
485.304	112.92
485.428	372.92
485.553	1278.92
485.678	1763.92
485.802	1640.92
485.927	1802.92
486.051	2694.92
486.176	1631.92
486.3	440.92
486.425	171.92
486.549	89.92
486.674	62.92
486.799	56.92
486.923	24.92
487.048	21.92
487.172	20.92
487.297	34.92
487.421	16.92
487.546	29.92
487.67	16.92
487.795	-1.08
487.919	24.92
488.044	31.92
488.168	11.92
488.293	13.92
488.417	-9.08
488.542	24.92
488.666	32.92
488.791	33.92
488.915	20.92
489.04	38.92
489.164	30.92
489.289	34.92
489.413	17.92
489.538	37.92
489.662	42.92
489.786	8.92
489.911	18.92
490.035	27.92
490.16	15.92
490.284	-1.08
490.409	-1.08
490.533	-0.08
490.658	41.92
490.782	18.92
490.906	28.92
491.031	20.92
491.155	13.92
491.28	34.92
491.404	9.92
491.528	18.92
491.653	13.92
491.777	38.92
491.902	12.92
492.026	30.92
492.15	13.92
492.275	29.92
492.399	32.92
492.524	16.92
492.648	25.92
492.772	13.92
492.897	36.92
493.021	15.92
493.145	31.92
493.27	28.92
493.394	15.92
493.518	6.92
493.643	-10.08
493.767	28.92
493.891	4.92
494.016	1.92
494.14	14.92
494.264	19.92
494.389	17.92
494.513	20.92
494.637	3.92
494.762	12.92
494.886	24.92
495.01	15.92
495.134	5.92
495.259	48.92
495.383	21.92
495.507	21.92
495.632	26.92
495.756	33.92
495.88	15.92
496.004	11.92
496.129	18.92
496.253	28.92
496.377	19.92
496.501	41.92
496.626	-1.08
496.75	32.92
496.874	25.92
496.998	-0.08
497.123	30.92
497.247	25.92
497.371	13.92
497.495	5.92
497.62	6.92
497.744	16.92
497.868	2.92
497.992	18.92
498.116	16.92
498.241	31.92
498.365	-1.08
498.489	5.92
498.613	34.92
498.737	8.92
498.862	10.92
498.986	-8.08
499.11	0.92
499.234	27.92
499.358	4.92
499.482	5.92
499.607	20.92
499.731	23.92
499.855	26.92
499.979	36.92
500.103	26.92
500.227	26.92
500.351	26.92
500.476	10.92
500.6	10.92
500.724	32.92
500.848	12.92
500.972	17.92
501.096	22.92
501.22	23.92
501.344	26.92
501.469	9.92
501.593	3.92
501.717	2.92
501.841	2.92
501.965	8.92
502.089	6.92
502.213	22.92
502.337	13.92
502.461	19.92
502.585	20.92
502.709	15.92
502.834	15.92
502.958	14.92
503.082	21.92
503.206	25.92
503.33	44.92
503.454	22.92
503.578	26.92
503.702	21.92
503.826	10.92
503.95	34.92
504.074	-3.08
504.198	-5.08
504.322	3.92
504.446	22.92
504.57	34.92
504.694	26.92
504.818	18.92
504.942	38.92
505.066	41.92
505.19	13.92
505.314	27.92
505.438	32.92
505.562	-1.08
505.686	19.92
505.81	32.92
505.934	23.92
506.058	9.92
506.182	4.92
506.306	27.92
506.43	9.92
506.554	18.92
506.678	16.92
506.802	4.92
506.926	8.92
507.05	35.92
507.174	42.92
507.298	30.92
507.422	9.92
507.546	13.92
507.67	22.92
507.794	1.92
507.918	18.92
508.042	28.92
508.165	3.92
508.289	-8.08
508.413	0.92
508.537	18.92
508.661	36.92
508.785	15.92
508.909	11.92
509.033	12.92
509.157	6.92
509.281	14.92
509.405	12.92
509.528	30.92
509.652	25.92
509.776	4.92
509.9	24.92
510.024	-0.08
510.148	10.92
510.272	14.92
510.396	13.92
510.519	-12.08
510.643	37.92
510.767	13.92
510.891	13.92
511.015	16.92
511.139	10.92
511.263	34.92
511.386	28.92
511.51	24.92
511.634	8.92
511.758	5.92
511.882	1.92
512.006	6.92
512.129	29.92
512.253	39.92
512.377	-5.08
512.501	22.92
512.625	26.92
512.748	5.92
512.872	11.92
512.996	2.92
513.12	14.92
513.244	0.92
513.367	20.92
513.491	13.92
513.615	-7.08
513.739	21.92
513.862	30.92
513.986	16.92
514.11	21.92
514.234	0.92
514.358	29.92
514.481	26.92
514.605	16.92
514.729	24.92
514.853	-1.08
514.976	-6.08
515.1	4.92
515.224	23.92
515.348	-2.08
515.471	-3.08
515.595	17.92
515.719	23.92
515.842	18.92
515.966	9.92
516.09	30.92
516.214	14.92
516.337	41.92
516.461	19.92
516.585	24.92
516.708	34.92
516.832	22.92
516.956	8.92
517.08	0.92
517.203	5.92
517.327	13.92
517.451	18.92
517.574	25.92
517.698	1.92
517.822	10.92
517.945	15.92
518.069	35.92
518.193	60.92
518.316	33.92
518.44	7.92
518.564	14.92
518.687	15.92
518.811	42.92
518.935	56.92
519.058	29.92
519.182	34.92
519.306	40.92
519.429	19.92
519.553	43.92
519.676	32.92
519.8	18.92
519.924	4.92
520.047	17.92
520.171	-10.08
520.294	16.92
520.418	15.92
520.542	23.92
520.665	20.92
520.789	10.92
520.913	-9.08
521.036	-16.08
521.16	9.92
521.283	19.92
521.407	5.92
521.53	10.92
521.654	-13.08
521.778	22.92
521.901	11.92
522.025	7.92
522.148	0.92
522.272	20.92
522.395	5.92
522.519	15.92
522.643	5.92
522.766	24.92
522.89	-3.08
523.013	12.92
523.137	6.92
523.26	10.92
523.384	18.92
523.507	17.92
523.631	8.92
523.754	-2.08
523.878	18.92
524.002	11.92
524.125	17.92
524.249	9.92
524.372	12.92
524.496	14.92
524.619	13.92
524.743	7.92
524.866	15.92
524.99	5.92
525.113	-22.08
525.237	17.92
525.36	-1.08
525.484	2.92
525.607	-2.08
525.731	-3.08
525.854	5.92
525.978	35.92
526.101	10.92
526.224	2.92
526.348	7.92
526.471	9.92
526.595	19.92
526.718	30.92
526.842	4.92
526.965	-3.08
527.089	5.92
527.212	28.92
527.336	18.92
527.459	19.92
527.582	19.92
527.706	5.92
527.829	17.92
527.953	9.92
528.076	-3.08
528.2	-3.08
528.323	29.92
528.446	33.92
528.57	8.92
528.693	21.92
528.817	7.92
528.94	11.92
529.064	37.92
529.187	15.92
529.31	19.92
529.434	10.92
529.557	16.92
529.68	6.92
529.804	3.92
529.927	29.92
530.051	25.92
530.174	-1.08
530.297	12.92
530.421	21.92
530.544	37.92
530.668	24.92
530.791	2.92
530.914	29.92
531.038	-5.08
531.161	13.92
531.284	0.92
531.408	4.92
531.531	16.92
531.654	6.92
531.778	1.92
531.901	-3.08
532.024	17.92
532.148	-8.08
532.271	16.92
532.394	20.92
532.518	21.92
532.641	36.92
532.764	19.92
532.888	18.92
533.011	9.92
533.134	-3.08
533.258	17.92
533.381	14.92
533.504	6.92
533.628	11.92
533.751	13.92
533.874	16.92
533.997	1.92
534.121	-4.08
534.244	5.92
534.367	2.92
534.491	-6.08
534.614	7.92
534.737	14.92
534.86	3.92
534.984	10.92
535.107	-9.08
535.23	0.92
535.354	13.92
535.477	-14.08
535.6	7.92
535.723	18.92
535.847	8.92
535.97	-3.08
536.093	17.92
536.216	-2.08
536.34	10.92
536.463	1.92
536.586	25.92
536.709	5.92
536.833	19.92
536.956	12.92
537.079	1.92
537.202	14.92
537.325	1.92
537.449	-10.08
537.572	19.92
537.695	-7.08
537.818	-7.08
537.941	17.92
538.065	41.92
538.188	5.92
538.311	35.92
538.434	22.92
538.558	12.92
538.681	16.92
538.804	6.92
538.927	8.92
539.05	8.92
539.173	6.92
539.297	-2.08
539.42	15.92
539.543	5.92
539.666	9.92
539.789	25.92
539.913	10.92
540.036	4.92
540.159	16.92
540.282	-15.08
540.405	-11.08
540.528	3.92
540.651	15.92
540.775	5.92
540.898	-1.08
541.021	26.92
541.144	18.92
541.267	11.92
541.39	20.92
541.513	22.92
541.637	10.92
541.76	10.92
541.883	10.92
542.006	22.92
542.129	40.92
542.252	18.92
542.375	19.92
542.498	6.92
542.622	26.92
542.745	4.92
542.868	15.92
542.991	17.92
543.114	37.92
543.237	34.92
543.36	35.92
543.483	23.92
543.606	13.92
543.73	27.92
543.853	16.92
543.976	7.92
544.099	11.92
544.222	7.92
544.345	-10.08
544.468	1.92
544.591	14.92
544.714	27.92
544.837	33.92
544.96	15.92
545.083	15.92
545.206	15.92
545.329	33.92
545.453	20.92
545.576	11.92
545.699	4.92
545.822	-0.08
545.945	10.92
546.068	7.92
546.191	27.92
546.314	16.92
546.437	30.92
546.56	12.92
546.683	2.92
546.806	11.92
546.929	11.92
547.052	7.92
547.175	25.92
547.298	16.92
547.421	4.92
547.544	2.92
547.667	6.92
547.79	9.92
547.913	15.92
548.036	-4.08
548.159	9.92
548.282	12.92
548.405	18.92
548.528	18.92
548.651	-1.08
548.774	32.92
548.897	25.92
549.02	25.92
549.143	27.92
549.266	2.92
549.389	31.92
549.512	-9.08
549.635	20.92
549.758	-5.08
549.881	5.92
550.004	3.92
550.127	5.92
550.25	11.92
550.373	4.92
550.496	9.92
550.619	10.92
550.742	9.92
550.865	-2.08
550.988	25.92
551.111	21.92
551.234	9.92
551.356	12.92
551.479	-1.08
551.602	19.92
551.725	22.92
551.848	13.92
551.971	4.92
552.094	11.92
552.217	23.92
552.34	12.92
552.463	-16.08
552.586	18.92
552.709	2.92
552.832	2.92
552.955	4.92
553.077	16.92
553.2	0.92
553.323	-7.08
553.446	1.92
553.569	5.92
553.692	14.92
553.815	4.92
553.938	18.92
554.061	10.92
554.184	20.92
554.306	17.92
554.429	6.92
554.552	14.92
554.675	-6.08
554.798	13.92
554.921	19.92
555.044	-4.08
555.167	-0.08
555.29	12.92
555.412	14.92
555.535	0.92
555.658	9.92
555.781	12.92
555.904	-1.08
556.027	12.92
556.15	18.92
556.272	-2.08
556.395	25.92
556.518	-4.08
556.641	7.92
556.764	13.92
556.887	9.92
557.01	22.92
557.132	4.92
557.255	16.92
557.378	7.92
557.501	1.92
557.624	15.92
557.747	11.92
557.869	16.92
557.992	25.92
558.115	26.92
558.238	26.92
558.361	11.92
558.483	32.92
558.606	16.92
558.729	23.92
558.852	39.92
558.975	30.92
559.098	8.92
559.22	10.92
559.343	16.92
559.466	13.92
559.589	5.92
559.712	7.92
559.834	6.92
559.957	6.92
560.08	13.92
560.203	14.92
560.325	21.92
560.448	22.92
560.571	8.92
560.694	9.92
560.817	27.92
560.939	0.92
561.062	-8.08
561.185	22.92
561.308	11.92
561.43	1.92
561.553	-10.08
561.676	0.92
561.799	16.92
561.921	11.92
562.044	2.92
562.167	-4.08
562.29	33.92
562.413	15.92
562.535	15.92
562.658	3.92
562.781	0.92
562.903	4.92
563.026	26.92
563.149	39.92
563.272	-4.08
563.394	13.92
563.517	4.92
563.64	15.92
563.763	6.92
563.885	25.92
564.008	19.92
564.131	27.92
564.254	-0.08
564.376	13.92
564.499	-11.08
564.622	0.92
564.744	9.92
564.867	5.92
564.99	-2.08
565.113	8.92
565.235	2.92
565.358	16.92
565.481	-6.08
565.603	-0.08
565.726	8.92
565.849	18.92
565.971	25.92
566.094	2.92
566.217	8.92
566.34	19.92
566.462	0.92
566.585	4.92
566.708	25.92
566.83	11.92
566.953	20.92
567.076	6.92
567.198	18.92
567.321	3.92
567.444	10.92
567.566	7.92
567.689	-6.08
567.812	5.92
567.934	5.92
568.057	17.92
568.18	10.92
568.302	7.92
568.425	-10.08
568.548	7.92
568.67	12.92
568.793	11.92
568.916	10.92
569.038	17.92
569.161	18.92
569.283	8.92
569.406	3.92
569.529	21.92
569.651	-11.08
569.774	4.92
569.897	-9.08
570.019	27.92
570.142	14.92
570.265	6.92
570.387	20.92
570.51	25.92
570.632	24.92
570.755	20.92
570.878	18.92
571	4.92
571.123	2.92
571.246	18.92
571.368	9.92
571.491	21.92
571.613	8.92
571.736	-6.08
571.859	-7.08
571.981	-1.08
572.104	-1.08
572.226	20.92
572.349	-7.08
572.472	10.92
572.594	13.92
572.717	10.92
572.839	0.92
572.962	4.92
573.085	17.92
573.207	24.92
573.33	7.92
573.452	11.92
573.575	19.92
573.697	5.92
573.82	5.92
573.943	-11.08
574.065	9.92
574.188	22.92
574.31	21.92
574.433	7.92
574.555	21.92
574.678	-2.08
574.801	23.92
574.923	4.92
575.046	11.92
575.168	2.92
575.291	2.92
575.413	12.92
575.536	20.92
575.659	32.92
575.781	2.92
575.904	2.92
576.026	12.92
576.149	11.92
576.271	23.92
576.394	18.92
576.516	-2.08
576.639	14.92
576.761	-15.08
576.884	-7.08
577.007	10.92
577.129	12.92
577.252	26.92
577.374	33.92
577.497	-8.08
577.619	2.92
577.742	17.92
577.864	27.92
577.987	11.92
578.109	33.92
578.232	29.92
578.354	20.92
578.477	11.92
578.599	24.92
578.722	10.92
578.844	13.92
578.967	19.92
579.089	-1.08
579.212	-4.08
579.334	26.92
579.457	17.92
579.579	19.92
579.702	-3.08
579.824	28.92
579.947	-0.08
580.069	8.92
580.192	-1.08
580.314	26.92
580.437	17.92
580.559	45.92
580.682	-4.08
580.804	19.92
580.927	29.92
581.049	45.92
581.172	21.92
581.294	13.92
581.417	24.92
581.539	18.92
581.662	17.92
581.784	30.92
581.907	27.92
582.029	7.92
582.152	1.92
582.274	6.92
582.396	10.92
582.519	12.92
582.641	-3.08
582.764	7.92
582.886	26.92
583.009	1.92
583.131	17.92
583.254	14.92
583.376	22.92
583.499	25.92
583.621	12.92
583.743	29.92
583.866	11.92
583.988	21.92
584.111	18.92
584.233	10.92
584.356	25.92
584.478	8.92
584.601	-13.08
584.723	-4.08
584.845	37.92
584.968	-2.08
585.09	-17.08
585.213	18.92
585.335	-7.08
585.458	5.92
585.58	14.92
585.702	18.92
585.825	7.92
585.947	14.92
586.07	-14.08
586.192	-8.08
586.315	16.92
586.437	-16.08
586.559	0.92
586.682	-14.08
586.804	19.92
586.927	9.92
587.049	4.92
587.171	14.92
587.294	20.92
587.416	21.92
587.539	12.92
587.661	20.92
587.783	4.92
587.906	-1.08
588.028	5.92
588.151	2.92
588.273	29.92
588.395	12.92
588.518	12.92
588.64	-4.08
588.763	18.92
588.885	26.92
589.007	27.92
589.13	0.92
589.252	9.92
589.375	14.92
589.497	6.92
589.619	8.92
589.742	7.92
589.864	19.92
589.986	-6.08
590.109	-14.08
590.231	6.92
590.354	22.92
590.476	-7.08
590.598	13.92
590.721	8.92
590.843	19.92
590.965	-0.08
591.088	18.92
591.21	12.92
591.332	33.92
591.455	-3.08
591.577	3.92
591.7	-3.08
591.822	14.92
591.944	-2.08
592.067	16.92
592.189	-9.08
592.311	7.92
592.434	7.92
592.556	16.92
592.678	14.92
592.801	-4.08
592.923	5.92
593.045	3.92
593.168	28.92
593.29	6.92
593.412	40.92
593.535	23.92
593.657	14.92
593.779	-2.08
593.902	18.92
594.024	9.92
594.146	30.92
594.269	23.92
594.391	-6.08
594.513	26.92
594.636	26.92
594.758	22.92
594.88	17.92
595.003	26.92
595.125	9.92
595.247	10.92
595.37	25.92
595.492	-4.08
595.614	42.92
595.737	-7.08
595.859	5.92
595.981	12.92
596.104	18.92
596.226	9.92
596.348	26.92
596.471	15.92
596.593	25.92
596.715	16.92
596.838	5.92
596.96	-19.08
597.082	13.92
597.204	4.92
597.327	19.92
597.449	15.92
597.571	17.92
597.694	16.92
597.816	11.92
597.938	22.92
598.061	6.92
598.183	3.92
598.305	28.92
598.427	24.92
598.55	9.92
598.672	20.92
598.794	11.92
598.917	9.92
599.039	14.92
599.161	3.92
599.283	15.92
599.406	18.92
599.528	11.92
599.65	41.92
599.773	13.92
599.895	23.92
600.017	30.92
600.139	6.92
600.262	12.92
600.384	15.92
600.506	12.92
600.628	21.92
600.751	22.92
600.873	10.92
600.995	4.92
601.118	31.92
601.24	18.92
601.362	23.92
601.484	20.92
601.607	1.92
601.729	19.92
601.851	9.92
601.973	-4.08
602.096	30.92
602.218	25.92
602.34	28.92
602.462	43.92
602.585	6.92
602.707	1.92
602.829	16.92
602.951	14.92
603.074	2.92
603.196	45.92
603.318	21.92
603.44	25.92
603.563	12.92
603.685	11.92
603.807	18.92
603.929	14.92
604.052	22.92
604.174	11.92
604.296	17.92
604.418	20.92
604.541	22.92
604.663	16.92
604.785	6.92
604.907	7.92
605.03	-7.08
605.152	37.92
605.274	17.92
605.396	16.92
605.519	12.92
605.641	-3.08
605.763	4.92
605.885	2.92
606.008	11.92
606.13	18.92
606.252	22.92
606.374	-7.08
606.496	22.92
606.619	30.92
606.741	21.92
606.863	54.92
606.985	30.92
607.108	10.92
607.23	5.92
607.352	-1.08
607.474	10.92
607.596	4.92
607.719	11.92
607.841	26.92
607.963	11.92
608.085	8.92
608.207	48.92
608.33	34.92
608.452	16.92
608.574	5.92
608.696	19.92
608.819	20.92
608.941	6.92
609.063	-3.08
609.185	10.92
609.307	16.92
609.43	13.92
609.552	-0.08
609.674	-4.08
609.796	-1.08
609.918	23.92
610.041	6.92
610.163	20.92
610.285	12.92
610.407	25.92
610.529	7.92
610.652	11.92
610.774	18.92
610.896	8.92
611.018	3.92
611.14	-10.08
611.263	1.92
611.385	-2.08
611.507	21.92
611.629	8.92
611.751	21.92
611.873	36.92
611.996	14.92
612.118	39.92
612.24	6.92
612.362	24.92
612.484	25.92
612.607	37.92
612.729	28.92
612.851	24.92
612.973	-2.08
613.095	2.92
613.218	15.92
613.34	31.92
613.462	34.92
613.584	11.92
613.706	24.92
613.828	31.92
613.951	6.92
614.073	6.92
614.195	-8.08
614.317	6.92
614.439	19.92
614.561	28.92
614.684	27.92
614.806	18.92
614.928	14.92
615.05	14.92
615.172	30.92
615.294	26.92
615.417	9.92
615.539	6.92
615.661	17.92
615.783	29.92
615.905	21.92
616.027	72.92
616.15	123.92
616.272	89.92
616.394	64.92
616.516	43.92
616.638	27.92
616.76	22.92
616.883	20.92
617.005	9.92
617.127	8.92
617.249	10.92
617.371	20.92
617.493	21.92
617.615	21.92
617.738	9.92
617.86	18.92
617.982	4.92
618.104	17.92
618.226	-1.08
618.348	9.92
618.471	4.92
618.593	30.92
618.715	-14.08
618.837	8.92
618.959	22.92
619.081	13.92
619.203	9.92
619.326	9.92
619.448	18.92
619.57	16.92
619.692	20.92
619.814	19.92
619.936	12.92
620.058	7.92
620.181	9.92
620.303	9.92
620.425	23.92
620.547	1.92
620.669	-6.08
620.791	-1.08
620.913	11.92
621.036	3.92
621.158	10.92
621.28	24.92
621.402	8.92
621.524	6.92
621.646	12.92
621.768	7.92
621.891	-9.08
622.013	17.92
622.135	0.92
622.257	0.92
622.379	5.92
622.501	1.92
622.623	-2.08
622.745	7.92
622.868	-5.08
622.99	3.92
623.112	4.92
623.234	10.92
623.356	22.92
623.478	8.92
623.6	24.92
623.722	2.92
623.845	6.92
623.967	-4.08
624.089	14.92
624.211	8.92
624.333	6.92
624.455	12.92
624.577	27.92
624.699	14.92
624.822	14.92
624.944	10.92
625.066	5.92
625.188	6.92
625.31	10.92
625.432	29.92
625.554	3.92
625.676	29.92
625.799	0.92
625.921	10.92
626.043	9.92
626.165	12.92
626.287	-11.08
626.409	17.92
626.531	-10.08
626.653	0.92
626.775	26.92
626.898	-2.08
627.02	-0.08
627.142	27.92
627.264	22.92
627.386	2.92
627.508	15.92
627.63	5.92
627.752	16.92
627.874	20.92
627.997	18.92
628.119	19.92
628.241	27.92
628.363	29.92
628.485	6.92
628.607	13.92
628.729	13.92
628.851	10.92
628.973	18.92
629.096	12.92
629.218	3.92
629.34	19.92
629.462	26.92
629.584	4.92
629.706	-2.08
629.828	17.92
629.95	13.92
630.072	8.92
630.195	13.92
630.317	-2.08
630.439	13.92
630.561	18.92
630.683	1.92
630.805	20.92
630.927	12.92
631.049	2.92
631.171	12.92
631.293	11.92
631.416	13.92
631.538	7.92
631.66	8.92
631.782	14.92
631.904	28.92
632.026	1.92
632.148	13.92
632.27	12.92
632.392	18.92
632.514	15.92
632.637	17.92
632.759	-1.08
632.881	11.92
633.003	2.92
633.125	1.92
633.247	1.92
633.369	10.92
633.491	13.92
633.613	35.92
633.735	6.92
633.858	15.92
633.98	6.92
634.102	5.92
634.224	12.92
634.346	8.92
634.468	24.92
634.59	13.92
634.712	8.92
634.834	3.92
634.956	-10.08
635.078	8.92
635.201	-0.08
635.323	21.92
635.445	-0.08
635.567	2.92
635.689	3.92
635.811	11.92
635.933	11.92
636.055	16.92
636.177	10.92
636.299	19.92
636.421	8.92
636.544	-5.08
636.666	1.92
636.788	8.92
636.91	15.92
637.032	-4.08
637.154	15.92
637.276	42.92
637.398	19.92
637.52	31.92
637.642	12.92
637.764	16.92
637.887	6.92
638.009	7.92
638.131	0.92
638.253	5.92
638.375	19.92
638.497	20.92
638.619	14.92
638.741	10.92
638.863	-21.08
638.985	6.92
639.107	11.92
639.23	-6.08
639.352	19.92
639.474	12.92
639.596	-5.08
639.718	-8.08
639.84	9.92
639.962	16.92
640.084	17.92
640.206	20.92
640.328	-4.08
640.45	9.92
640.573	9.92
640.695	10.92
640.817	4.92
640.939	15.92
641.061	3.92
641.183	-5.08
641.305	10.92
641.427	7.92
641.549	24.92
641.671	27.92
641.793	10.92
641.915	17.92
642.038	-2.08
642.16	7.92
642.282	-5.08
642.404	2.92
642.526	15.92
642.648	-1.08
642.77	9.92
642.892	22.92
643.014	11.92
643.136	19.92
643.258	10.92
643.381	25.92
643.503	32.92
643.625	3.92
643.747	-5.08
643.869	8.92
643.991	26.92
644.113	19.92
644.235	0.92
644.357	9.92
644.479	14.92
644.601	-1.08
644.723	20.92
644.846	13.92
644.968	-6.08
645.09	-3.08
645.212	-6.08
645.334	-0.08
645.456	-2.08
645.578	9.92
645.7	12.92
645.822	10.92
645.944	8.92
646.066	12.92
646.188	0.92
646.311	39.92
646.433	16.92
646.555	48.92
646.677	40.92
646.799	32.92
646.921	17.92
647.043	30.92
647.165	-1.08
647.287	8.92
647.409	11.92
647.531	3.92
647.654	-15.08
647.776	18.92
647.898	0.92
648.02	16.92
648.142	-9.08
648.264	9.92
648.386	1.92
648.508	14.92
648.63	8.92
648.752	22.92
648.874	-4.08
648.997	2.92
649.119	17.92
649.241	8.92
649.363	27.92
649.485	24.92
649.607	0.92
649.729	10.92
649.851	-5.08
649.973	5.92
650.095	11.92
650.217	-0.08
650.34	2.92
650.462	16.92
650.584	13.92
650.706	21.92
650.828	27.92
650.95	-4.08
651.072	8.92
651.194	-5.08
651.316	1.92
651.438	25.92
651.56	1.92
651.683	-9.08
651.805	6.92
651.927	2.92
652.049	0.92
652.171	1.92
652.293	-5.08
652.415	-1.08
652.537	-3.08
652.659	-7.08
652.781	24.92
652.903	7.92
653.026	44.92
653.148	37.92
653.27	10.92
653.392	18.92
653.514	7.92
653.636	8.92
653.758	11.92
653.88	6.92
654.002	-1.08
654.124	5.92
654.247	10.92
654.369	24.92
654.491	10.92
654.613	16.92
654.735	14.92
654.857	17.92
654.979	8.92
655.101	48.92
655.223	48.92
655.345	36.92
655.468	37.92
655.59	24.92
655.712	17.92
655.834	18.92
655.956	5.92
656.078	24.92
656.2	24.92
656.322	33.92
656.444	37.92
656.566	53.92
656.689	37.92
656.811	64.92
656.933	85.92
657.055	91.92
657.177	153.92
657.299	263.92
657.421	520.92
657.543	1927.92
657.665	12570.92
657.787	15175.92
657.91	15281.92
658.032	15663.92
658.154	4676.92
658.276	3781.92
658.398	1208.92
658.52	1051.92
658.642	506.92
658.764	628.92
658.886	276.92
659.009	422.92
659.131	244.92
659.253	358.92
659.375	159.92
659.497	240.92
659.619	126.92
659.741	205.92
659.863	113.92
659.985	170.92
660.108	109.92
660.23	141.92
660.352	80.92
660.474	136.92
660.596	92.92
660.718	160.92
660.84	75.92
660.962	107.92
661.084	38.92
661.207	103.92
661.329	48.92
661.451	93.92
661.573	38.92
661.695	94.92
661.817	49.92
661.939	108.92
662.061	78.92
662.184	84.92
662.306	35.92
662.428	81.92
662.55	65.92
662.672	66.92
662.794	38.92
662.916	57.92
663.038	32.92
663.161	91.92
663.283	43.92
663.405	72.92
663.527	29.92
663.649	64.92
663.771	28.92
663.893	46.92
664.015	29.92
664.138	46.92
664.26	23.92
664.382	61.92
664.504	18.92
664.626	44.92
664.748	12.92
664.87	39.92
664.992	30.92
665.115	59.92
665.237	25.92
665.359	46.92
665.481	22.92
665.603	53.92
665.725	29.92
665.847	31.92
665.97	26.92
666.092	57.92
666.214	28.92
666.336	38.92
666.458	23.92
666.58	21.92
666.702	-2.08
666.825	31.92
666.947	7.92
667.069	38.92
667.191	19.92
667.313	33.92
667.435	-6.08
667.557	32.92
667.68	15.92
667.802	39.92
667.924	24.92
668.046	23.92
668.168	20.92
668.29	52.92
668.412	1.92
668.535	44.92
668.657	2.92
668.779	14.92
668.901	14.92
669.023	46.92
669.145	9.92
669.267	39.92
669.39	27.92
669.512	48.92
669.634	34.92
669.756	11.92
669.878	16.92
670	20.92
670.123	13.92
670.245	29.92
670.367	10.92
670.489	29.92
670.611	1.92
670.733	8.92
670.856	7.92
670.978	32.92
671.1	32.92
671.222	33.92
671.344	10.92
671.466	8.92
671.589	7.92
671.711	18.92
671.833	12.92
671.955	39.92
672.077	5.92
672.199	43.92
672.322	30.92
672.444	33.92
672.566	14.92
672.688	22.92
672.81	23.92
672.932	27.92
673.055	28.92
673.177	14.92
673.299	14.92
673.421	11.92
673.543	1.92
673.665	21.92
673.788	25.92
673.91	8.92
674.032	-1.08
674.154	22.92
674.276	14.92
674.399	17.92
674.521	10.92
674.643	28.92
674.765	19.92
674.887	20.92
675.009	21.92
675.132	15.92
675.254	2.92
675.376	16.92
675.498	13.92
675.62	30.92
675.743	6.92
675.865	30.92
675.987	-12.08
676.109	20.92
676.231	16.92
676.354	40.92
676.476	13.92
676.598	26.92
676.72	6.92
676.842	34.92
676.965	6.92
677.087	31.92
677.209	24.92
677.331	23.92
677.453	8.92
677.576	4.92
677.698	21.92
677.82	29.92
677.942	4.92
678.064	38.92
678.187	11.92
678.309	18.92
678.431	10.92
678.553	9.92
678.675	20.92
678.798	24.92
678.92	21.92
679.042	16.92
679.164	14.92
679.286	19.92
679.409	0.92
679.531	8.92
679.653	2.92
679.775	15.92
679.898	-2.08
680.02	13.92
680.142	-1.08
680.264	4.92
680.386	-11.08
680.509	16.92
680.631	27.92
680.753	31.92
680.875	-6.08
680.998	23.92
681.12	20.92
681.242	21.92
681.364	-4.08
681.486	9.92
681.609	5.92
681.731	4.92
681.853	14.92
681.975	3.92
682.098	17.92
682.22	25.92
682.342	17.92
682.464	24.92
682.587	6.92
682.709	-2.08
682.831	-20.08
682.953	10.92
683.076	20.92
683.198	9.92
683.32	6.92
683.442	28.92
683.565	24.92
683.687	8.92
683.809	-1.08
683.931	12.92
684.054	32.92
684.176	32.92
684.298	20.92
684.42	21.92
684.543	3.92
684.665	18.92
684.787	9.92
684.909	0.92
685.032	-2.08
685.154	-1.08
685.276	3.92
685.398	5.92
685.521	4.92
685.643	17.92
685.765	13.92
685.887	16.92
686.01	7.92
686.132	11.92
686.254	24.92
686.377	21.92
686.499	13.92
686.621	9.92
686.743	14.92
686.866	7.92
686.988	35.92
687.11	29.92
687.232	16.92
687.355	-3.08
687.477	8.92
687.599	16.92
687.722	-10.08
687.844	20.92
687.966	28.92
688.088	-2.08
688.211	33.92
688.333	7.92
688.455	5.92
688.578	12.92
688.7	10.92
688.822	25.92
688.944	-5.08
689.067	31.92
689.189	6.92
689.311	6.92
689.434	-1.08
689.556	27.92
689.678	14.92
689.801	-4.08
689.923	-1.08
690.045	29.92
690.167	17.92
690.29	24.92
690.412	13.92
690.534	19.92
690.657	-0.08
690.779	9.92
690.901	22.92
691.024	14.92
691.146	4.92
691.268	-4.08
691.391	27.92
691.513	17.92
691.635	10.92
691.758	35.92
691.88	17.92
692.002	-3.08
692.125	16.92
692.247	-3.08
692.369	-6.08
692.492	10.92
692.614	0.92
692.736	13.92
692.859	4.92
692.981	2.92
693.103	-6.08
693.226	20.92
693.348	17.92
693.47	15.92
693.593	-1.08
693.715	-6.08
693.837	-1.08
693.96	9.92
694.082	-1.08
694.204	9.92
694.327	-4.08
694.449	-2.08
694.571	6.92
694.694	19.92
694.816	29.92
694.938	11.92
695.061	10.92
695.183	13.92
695.305	10.92
695.428	27.92
695.55	-14.08
695.672	-14.08
695.795	20.92
695.917	27.92
696.04	12.92
696.162	2.92
696.284	0.92
696.407	6.92
696.529	14.92
696.651	25.92
696.774	7.92
696.896	38.92
697.019	11.92
697.141	10.92
697.263	9.92
697.386	12.92
697.508	17.92
697.63	22.92
697.753	28.92
697.875	21.92
697.998	-2.08
698.12	40.92
698.242	10.92
698.365	12.92
698.487	11.92
698.61	14.92
698.732	8.92
698.854	24.92
698.977	-4.08
699.099	28.92
699.221	-12.08
699.344	11.92
699.466	0.92
699.589	10.92
699.711	0.92
699.834	8.92
699.956	-4.08
700.078	7.92
700.201	-4.08
700.323	31.92
700.446	19.92
700.568	6.92
700.69	6.92
700.813	7.92
700.935	-14.08
701.058	9.92
701.18	8.92
701.302	16.92
701.425	-4.08
701.547	17.92
701.67	-10.08
701.792	21.92
701.915	6.92
702.037	-5.08
702.159	7.92
702.282	28.92
702.404	6.92
702.527	31.92
702.649	19.92
702.772	6.92
702.894	33.92
703.017	34.92
703.139	13.92
703.261	27.92
703.384	12.92
703.506	4.92
703.629	-6.08
703.751	9.92
703.874	10.92
703.996	-3.08
704.119	5.92
704.241	8.92
704.364	-9.08
704.486	14.92
704.608	15.92
704.731	14.92
704.853	16.92
704.976	3.92
705.098	16.92
705.221	16.92
705.343	0.92
705.466	16.92
705.588	6.92
705.711	24.92
705.833	14.92
705.956	17.92
706.078	17.92
706.201	18.92
706.323	13.92
706.446	-4.08
