Data from LowRes_H2_15_26_11_07_2024_HR4C61881__58__15-28-19-437.txt Node

Date: Thu Nov 07 15:28:19 EST 2024
User: crc00042
Spectrometer: HR4C6188
Trigger mode: 4
Integration Time (sec): 1.000000E-1
Scans to average: 1
Electric dark correction enabled: true
Nonlinearity correction enabled: false
Boxcar width: 0
XAxis mode: Wavelengths
Number of Pixels in Spectrum: 3648
>>>>>Begin Spectral Data<<<<<
245.66	-105.62
245.797	-105.62
245.934	-105.62
246.071	-72.62
246.208	16.38
246.344	-4.62
246.481	-5.62
246.618	16.38
246.755	20.38
246.892	-7.62
247.029	-10.62
247.165	-0.62
247.302	14.38
247.439	2.38
247.576	-5.62
247.713	-10.62
247.849	18.38
247.986	-26.62
248.123	6.38
248.26	-5.62
248.396	10.38
248.533	2.38
248.67	-3.62
248.806	-1.62
248.943	-17.62
249.08	-7.62
249.216	15.38
249.353	-9.62
249.49	7.38
249.626	2.38
249.763	-1.62
249.9	9.38
250.036	3.38
250.173	8.38
250.309	16.38
250.446	-0.62
250.582	10.38
250.719	-16.62
250.856	-5.62
250.992	-9.62
251.129	1.38
251.265	-20.62
251.402	6.38
251.538	1.38
251.675	-9.62
251.811	-6.62
251.948	10.38
252.084	1.38
252.221	12.38
252.357	0.38
252.493	35.38
252.63	10.38
252.766	11.38
252.903	2.38
253.039	1.38
253.175	-3.62
253.312	10.38
253.448	-2.62
253.585	-20.62
253.721	6.38
253.857	-4.62
253.994	8.38
254.13	10.38
254.266	-4.62
254.403	10.38
254.539	-10.62
254.675	7.38
254.811	10.38
254.948	-11.62
255.084	-14.62
255.22	-7.62
255.356	25.38
255.493	9.38
255.629	3.38
255.765	6.38
255.901	0.38
256.037	8.38
256.174	1.38
256.31	-15.62
256.446	-9.62
256.582	4.38
256.718	12.38
256.854	16.38
256.991	20.38
257.127	13.38
257.263	-3.62
257.399	22.38
257.535	-14.62
257.671	-6.62
257.807	-13.62
257.943	-7.62
258.079	-4.62
258.215	-6.62
258.351	26.38
258.487	11.38
258.623	34.38
258.759	11.38
258.895	-0.62
259.031	1.38
259.167	-9.62
259.303	20.38
259.439	-3.62
259.575	-10.62
259.711	-11.62
259.847	-13.62
259.983	12.38
260.119	-12.62
260.255	-18.62
260.391	5.38
260.527	5.38
260.663	10.38
260.799	6.38
260.934	-10.62
261.07	-2.62
261.206	-12.62
261.342	-15.62
261.478	5.38
261.614	4.38
261.749	9.38
261.885	2.38
262.021	7.38
262.157	23.38
262.293	4.38
262.428	-8.62
262.564	6.38
262.7	22.38
262.836	-18.62
262.971	19.38
263.107	11.38
263.243	30.38
263.378	7.38
263.514	-22.62
263.65	15.38
263.785	11.38
263.921	2.38
264.057	7.38
264.192	15.38
264.328	23.38
264.464	-16.62
264.599	25.38
264.735	9.38
264.871	-8.62
265.006	1.38
265.142	-2.62
265.277	1.38
265.413	25.38
265.548	19.38
265.684	10.38
265.819	9.38
265.955	-9.62
266.091	-20.62
266.226	-9.62
266.362	-2.62
266.497	9.38
266.633	-8.62
266.768	5.38
266.903	19.38
267.039	24.38
267.174	13.38
267.31	-24.62
267.445	-14.62
267.581	6.38
267.716	21.38
267.851	4.38
267.987	8.38
268.122	9.38
268.258	5.38
268.393	3.38
268.528	10.38
268.664	-0.62
268.799	-0.62
268.934	6.38
269.07	-7.62
269.205	5.38
269.34	9.38
269.476	-7.62
269.611	9.38
269.746	9.38
269.881	-5.62
270.017	18.38
270.152	-0.62
270.287	5.38
270.422	22.38
270.558	-2.62
270.693	12.38
270.828	5.38
270.963	5.38
271.098	-6.62
271.234	-4.62
271.369	29.38
271.504	-6.62
271.639	-15.62
271.774	-1.62
271.909	1.38
272.045	-14.62
272.18	-3.62
272.315	-3.62
272.45	14.38
272.585	-14.62
272.72	6.38
272.855	17.38
272.99	19.38
273.125	0.38
273.26	-31.62
273.395	-5.62
273.53	-19.62
273.665	26.38
273.8	-4.62
273.935	10.38
274.07	4.38
274.205	-3.62
274.34	-5.62
274.475	1.38
274.61	23.38
274.745	4.38
274.88	17.38
275.015	2.38
275.15	-3.62
275.285	15.38
275.42	11.38
275.555	20.38
275.69	17.38
275.825	12.38
275.959	26.38
276.094	5.38
276.229	-31.62
276.364	-20.62
276.499	1.38
276.634	2.38
276.768	-11.62
276.903	-5.62
277.038	24.38
277.173	4.38
277.308	-9.62
277.442	0.38
277.577	-12.62
277.712	-14.62
277.847	0.38
277.981	1.38
278.116	-26.62
278.251	-6.62
278.386	0.38
278.52	23.38
278.655	5.38
278.79	16.38
278.924	13.38
279.059	20.38
279.194	-8.62
279.328	19.38
279.463	10.38
279.598	20.38
279.732	18.38
279.867	9.38
280.001	11.38
280.136	4.38
280.271	6.38
280.405	22.38
280.54	-5.62
280.674	-3.62
280.809	23.38
280.943	10.38
281.078	-7.62
281.213	15.38
281.347	24.38
281.482	26.38
281.616	0.38
281.751	4.38
281.885	-18.62
282.02	4.38
282.154	16.38
282.288	-4.62
282.423	-5.62
282.557	-16.62
282.692	3.38
282.826	5.38
282.961	2.38
283.095	3.38
283.229	-17.62
283.364	-6.62
283.498	11.38
283.633	2.38
283.767	1.38
283.901	1.38
284.036	-11.62
284.17	-3.62
284.304	-12.62
284.439	-14.62
284.573	-14.62
284.707	17.38
284.842	13.38
284.976	4.38
285.11	-8.62
285.244	13.38
285.379	43.38
285.513	-17.62
285.647	-2.62
285.781	8.38
285.916	6.38
286.05	6.38
286.184	39.38
286.318	17.38
286.453	-0.62
286.587	-12.62
286.721	-10.62
286.855	6.38
286.989	15.38
287.123	-6.62
287.258	-21.62
287.392	-0.62
287.526	4.38
287.66	9.38
287.794	5.38
287.928	5.38
288.062	-1.62
288.196	-0.62
288.33	-5.62
288.464	18.38
288.598	0.38
288.733	17.38
288.867	16.38
289.001	17.38
289.135	13.38
289.269	-0.62
289.403	10.38
289.537	8.38
289.671	1.38
289.805	2.38
289.939	-2.62
290.073	14.38
290.207	0.38
290.34	6.38
290.474	9.38
290.608	-4.62
290.742	8.38
290.876	-27.62
291.01	4.38
291.144	9.38
291.278	16.38
291.412	18.38
291.546	10.38
291.679	-2.62
291.813	9.38
291.947	19.38
292.081	19.38
292.215	-5.62
292.349	30.38
292.482	4.38
292.616	0.38
292.75	14.38
292.884	2.38
293.018	-6.62
293.151	-11.62
293.285	14.38
293.419	-15.62
293.553	10.38
293.686	10.38
293.82	2.38
293.954	30.38
294.088	24.38
294.221	7.38
294.355	-4.62
294.489	6.38
294.622	5.38
294.756	17.38
294.89	24.38
295.023	22.38
295.157	6.38
295.291	3.38
295.424	23.38
295.558	0.38
295.691	7.38
295.825	-4.62
295.959	1.38
296.092	19.38
296.226	18.38
296.359	8.38
296.493	1.38
296.627	-8.62
296.76	0.38
296.894	-19.62
297.027	19.38
297.161	10.38
297.294	-6.62
297.428	6.38
297.561	28.38
297.695	-7.62
297.828	3.38
297.962	-9.62
298.095	6.38
298.229	25.38
298.362	-10.62
298.495	-7.62
298.629	-12.62
298.762	-16.62
298.896	2.38
299.029	-9.62
299.162	5.38
299.296	7.38
299.429	-10.62
299.563	-0.62
299.696	12.38
299.829	-1.62
299.963	16.38
300.096	-3.62
300.229	0.38
300.363	-11.62
300.496	-0.62
300.629	-13.62
300.763	8.38
300.896	-2.62
301.029	5.38
301.162	-1.62
301.296	-8.62
301.429	11.38
301.562	-10.62
301.695	7.38
301.829	18.38
301.962	18.38
302.095	4.38
302.228	-8.62
302.362	14.38
302.495	-23.62
302.628	8.38
302.761	13.38
302.894	3.38
303.027	18.38
303.161	-0.62
303.294	-6.62
303.427	26.38
303.56	12.38
303.693	-9.62
303.826	7.38
303.959	2.38
304.092	5.38
304.225	-8.62
304.359	1.38
304.492	29.38
304.625	-1.62
304.758	5.38
304.891	-21.62
305.024	0.38
305.157	2.38
305.29	-5.62
305.423	7.38
305.556	0.38
305.689	23.38
305.822	8.38
305.955	5.38
306.088	6.38
306.221	8.38
306.354	0.38
306.487	-13.62
306.62	-7.62
306.752	-9.62
306.885	-4.62
307.018	-9.62
307.151	9.38
307.284	25.38
307.417	2.38
307.55	5.38
307.683	-0.62
307.816	16.38
307.948	12.38
308.081	3.38
308.214	28.38
308.347	20.38
308.48	-10.62
308.613	-15.62
308.745	11.38
308.878	-12.62
309.011	10.38
309.144	17.38
309.277	8.38
309.409	13.38
309.542	2.38
309.675	-7.62
309.808	11.38
309.94	15.38
310.073	0.38
310.206	-11.62
310.339	11.38
310.471	-6.62
310.604	15.38
310.737	-1.62
310.869	-2.62
311.002	-5.62
311.135	9.38
311.267	-21.62
311.4	2.38
311.533	18.38
311.665	-7.62
311.798	-11.62
311.93	5.38
312.063	16.38
312.196	23.38
312.328	-4.62
312.461	9.38
312.593	7.38
312.726	18.38
312.859	-2.62
312.991	13.38
313.124	-13.62
313.256	17.38
313.389	3.38
313.521	2.38
313.654	-17.62
313.786	-25.62
313.919	-7.62
314.051	9.38
314.184	-4.62
314.316	2.38
314.449	-25.62
314.581	5.38
314.714	6.38
314.846	22.38
314.978	-5.62
315.111	-8.62
315.243	-6.62
315.376	2.38
315.508	8.38
315.641	10.38
315.773	28.38
315.905	2.38
316.038	-1.62
316.17	2.38
316.302	-3.62
316.435	-18.62
316.567	-7.62
316.699	12.38
316.832	-10.62
316.964	10.38
317.096	-4.62
317.229	-8.62
317.361	-36.62
317.493	-0.62
317.625	-11.62
317.758	7.38
317.89	17.38
318.022	25.38
318.155	14.38
318.287	6.38
318.419	1.38
318.551	4.38
318.683	1.38
318.816	-14.62
318.948	-2.62
319.08	7.38
319.212	4.38
319.344	11.38
319.477	16.38
319.609	19.38
319.741	15.38
319.873	2.38
320.005	-4.62
320.137	-0.62
320.269	10.38
320.401	13.38
320.534	-7.62
320.666	-20.62
320.798	-6.62
320.93	-4.62
321.062	-13.62
321.194	-12.62
321.326	12.38
321.458	14.38
321.59	-0.62
321.722	-13.62
321.854	-7.62
321.986	-1.62
322.118	4.38
322.25	15.38
322.382	-10.62
322.514	-6.62
322.646	-2.62
322.778	24.38
322.91	1.38
323.042	-2.62
323.174	4.38
323.306	-18.62
323.438	-8.62
323.57	-5.62
323.702	4.38
323.834	-9.62
323.966	-4.62
324.097	10.38
324.229	29.38
324.361	-2.62
324.493	-4.62
324.625	-13.62
324.757	0.38
324.889	0.38
325.021	14.38
325.152	26.38
325.284	6.38
325.416	-19.62
325.548	3.38
325.68	-25.62
325.811	13.38
325.943	4.38
326.075	-1.62
326.207	9.38
326.339	5.38
326.47	-1.62
326.602	8.38
326.734	9.38
326.866	-9.62
326.997	-17.62
327.129	-4.62
327.261	-7.62
327.392	10.38
327.524	8.38
327.656	4.38
327.787	31.38
327.919	-2.62
328.051	-5.62
328.182	1.38
328.314	43.38
328.446	10.38
328.577	11.38
328.709	11.38
328.841	7.38
328.972	-9.62
329.104	-17.62
329.235	-4.62
329.367	-2.62
329.499	2.38
329.63	1.38
329.762	0.38
329.893	17.38
330.025	2.38
330.156	-10.62
330.288	13.38
330.419	7.38
330.551	19.38
330.683	14.38
330.814	4.38
330.946	10.38
331.077	-7.62
331.208	-7.62
331.34	1.38
331.471	-7.62
331.603	15.38
331.734	-5.62
331.866	16.38
331.997	8.38
332.129	7.38
332.26	-6.62
332.392	14.38
332.523	9.38
332.654	-20.62
332.786	2.38
332.917	-7.62
333.048	34.38
333.18	6.38
333.311	0.38
333.443	6.38
333.574	-1.62
333.705	14.38
333.837	-27.62
333.968	8.38
334.099	13.38
334.231	6.38
334.362	13.38
334.493	-3.62
334.624	23.38
334.756	3.38
334.887	1.38
335.018	13.38
335.15	27.38
335.281	3.38
335.412	12.38
335.543	22.38
335.675	10.38
335.806	-1.62
335.937	2.38
336.068	-11.62
336.199	41.38
336.331	5.38
336.462	-7.62
336.593	10.38
336.724	-26.62
336.855	-14.62
336.986	0.38
337.118	-7.62
337.249	5.38
337.38	11.38
337.511	11.38
337.642	5.38
337.773	-4.62
337.904	1.38
338.035	7.38
338.166	1.38
338.298	14.38
338.429	-8.62
338.56	11.38
338.691	16.38
338.822	0.38
338.953	14.38
339.084	21.38
339.215	21.38
339.346	-4.62
339.477	-3.62
339.608	-12.62
339.739	12.38
339.87	-1.62
340.001	-3.62
340.132	19.38
340.263	17.38
340.394	5.38
340.525	10.38
340.656	-5.62
340.787	-7.62
340.918	8.38
341.049	9.38
341.179	3.38
341.31	-5.62
341.441	10.38
341.572	9.38
341.703	17.38
341.834	-4.62
341.965	2.38
342.096	-2.62
342.227	-2.62
342.357	-9.62
342.488	5.38
342.619	3.38
342.75	15.38
342.881	-14.62
343.012	20.38
343.142	14.38
343.273	0.38
343.404	14.38
343.535	27.38
343.666	17.38
343.796	15.38
343.927	14.38
344.058	7.38
344.189	10.38
344.319	3.38
344.45	20.38
344.581	12.38
344.712	-3.62
344.842	7.38
344.973	0.38
345.104	-4.62
345.234	-15.62
345.365	-26.62
345.496	7.38
345.626	12.38
345.757	30.38
345.888	12.38
346.018	8.38
346.149	5.38
346.28	24.38
346.41	-9.62
346.541	11.38
346.672	15.38
346.802	13.38
346.933	2.38
347.063	-5.62
347.194	-2.62
347.325	-9.62
347.455	11.38
347.586	1.38
347.716	-25.62
347.847	-0.62
347.977	21.38
348.108	22.38
348.238	2.38
348.369	11.38
348.499	18.38
348.63	13.38
348.76	1.38
348.891	-2.62
349.021	19.38
349.152	0.38
349.282	17.38
349.413	12.38
349.543	13.38
349.674	-6.62
349.804	11.38
349.935	11.38
350.065	-11.62
350.196	-14.62
350.326	23.38
350.456	-2.62
350.587	7.38
350.717	17.38
350.848	20.38
350.978	27.38
351.108	-9.62
351.239	15.38
351.369	-12.62
351.499	-5.62
351.63	-9.62
351.76	4.38
351.89	-2.62
352.021	8.38
352.151	-7.62
352.281	19.38
352.412	21.38
352.542	1.38
352.672	-4.62
352.803	15.38
352.933	11.38
353.063	25.38
353.193	9.38
353.324	6.38
353.454	21.38
353.584	23.38
353.714	-7.62
353.845	10.38
353.975	0.38
354.105	5.38
354.235	0.38
354.365	11.38
354.496	-15.62
354.626	11.38
354.756	24.38
354.886	1.38
355.016	13.38
355.146	-11.62
355.277	14.38
355.407	-0.62
355.537	7.38
355.667	8.38
355.797	-18.62
355.927	7.38
356.057	-13.62
356.187	-12.62
356.318	-10.62
356.448	3.38
356.578	6.38
356.708	19.38
356.838	27.38
356.968	6.38
357.098	23.38
357.228	14.38
357.358	16.38
357.488	-2.62
357.618	36.38
357.748	23.38
357.878	8.38
358.008	-15.62
358.138	-8.62
358.268	2.38
358.398	7.38
358.528	-4.62
358.658	8.38
358.788	-0.62
358.918	17.38
359.048	0.38
359.178	17.38
359.308	2.38
359.438	12.38
359.568	23.38
359.698	-3.62
359.827	1.38
359.957	17.38
360.087	17.38
360.217	24.38
360.347	12.38
360.477	6.38
360.607	4.38
360.737	30.38
360.866	-3.62
360.996	-3.62
361.126	1.38
361.256	26.38
361.386	23.38
361.516	37.38
361.645	-8.62
361.775	17.38
361.905	-7.62
362.035	18.38
362.165	11.38
362.294	17.38
362.424	20.38
362.554	-6.62
362.684	-5.62
362.813	-3.62
362.943	3.38
363.073	7.38
363.203	7.38
363.332	19.38
363.462	9.38
363.592	3.38
363.721	-2.62
363.851	-2.62
363.981	29.38
364.111	-2.62
364.24	-21.62
364.37	20.38
364.5	13.38
364.629	9.38
364.759	-15.62
364.888	-4.62
365.018	14.38
365.148	-3.62
365.277	0.38
365.407	21.38
365.537	5.38
365.666	9.38
365.796	-3.62
365.925	11.38
366.055	5.38
366.184	10.38
366.314	5.38
366.444	12.38
366.573	6.38
366.703	14.38
366.832	27.38
366.962	9.38
367.091	38.38
367.221	10.38
367.35	-7.62
367.48	28.38
367.609	17.38
367.739	10.38
367.868	4.38
367.998	23.38
368.127	8.38
368.257	27.38
368.386	12.38
368.516	30.38
368.645	-0.62
368.775	12.38
368.904	17.38
369.033	-0.62
369.163	-19.62
369.292	22.38
369.422	16.38
369.551	18.38
369.68	20.38
369.81	12.38
369.939	-2.62
370.069	28.38
370.198	16.38
370.327	-17.62
370.457	5.38
370.586	14.38
370.715	-1.62
370.845	7.38
370.974	3.38
371.103	18.38
371.233	23.38
371.362	19.38
371.491	-0.62
371.621	26.38
371.75	9.38
371.879	-7.62
372.008	-4.62
372.138	-9.62
372.267	15.38
372.396	8.38
372.525	7.38
372.655	-2.62
372.784	16.38
372.913	12.38
373.042	29.38
373.172	29.38
373.301	-4.62
373.43	-9.62
373.559	1.38
373.688	10.38
373.818	19.38
373.947	25.38
374.076	2.38
374.205	23.38
374.334	13.38
374.463	-4.62
374.593	2.38
374.722	9.38
374.851	20.38
374.98	-2.62
375.109	15.38
375.238	6.38
375.367	38.38
375.496	-9.62
375.625	-11.62
375.755	7.38
375.884	24.38
376.013	22.38
376.142	-1.62
376.271	2.38
376.4	4.38
376.529	14.38
376.658	9.38
376.787	-1.62
376.916	-14.62
377.045	5.38
377.174	-2.62
377.303	0.38
377.432	10.38
377.561	13.38
377.69	-8.62
377.819	13.38
377.948	8.38
378.077	-2.62
378.206	-0.62
378.335	3.38
378.464	1.38
378.593	15.38
378.722	0.38
378.851	-7.62
378.98	27.38
379.108	1.38
379.237	-10.62
379.366	20.38
379.495	25.38
379.624	0.38
379.753	14.38
379.882	19.38
380.011	-8.62
380.14	4.38
380.268	-13.62
380.397	8.38
380.526	19.38
380.655	2.38
380.784	-8.62
380.913	1.38
381.041	8.38
381.17	4.38
381.299	12.38
381.428	25.38
381.557	8.38
381.685	25.38
381.814	3.38
381.943	1.38
382.072	-19.62
382.2	-10.62
382.329	-5.62
382.458	-10.62
382.587	30.38
382.715	34.38
382.844	8.38
382.973	3.38
383.102	-1.62
383.23	8.38
383.359	-18.62
383.488	4.38
383.616	4.38
383.745	-11.62
383.874	-6.62
384.003	0.38
384.131	-20.62
384.26	-13.62
384.389	10.38
384.517	0.38
384.646	5.38
384.774	-13.62
384.903	9.38
385.032	27.38
385.16	5.38
385.289	-13.62
385.418	5.38
385.546	15.38
385.675	13.38
385.803	1.38
385.932	17.38
386.06	6.38
386.189	8.38
386.318	7.38
386.446	20.38
386.575	13.38
386.703	22.38
386.832	-5.62
386.96	-20.62
387.089	16.38
387.217	1.38
387.346	-6.62
387.474	2.38
387.603	16.38
387.731	6.38
387.86	13.38
387.988	0.38
388.117	15.38
388.245	-5.62
388.374	24.38
388.502	29.38
388.631	-7.62
388.759	-5.62
388.888	-2.62
389.016	1.38
389.144	11.38
389.273	-8.62
389.401	-17.62
389.53	-16.62
389.658	18.38
389.786	-10.62
389.915	-5.62
390.043	-3.62
390.172	17.38
390.3	35.38
390.428	12.38
390.557	4.38
390.685	26.38
390.813	12.38
390.942	3.38
391.07	18.38
391.198	5.38
391.327	14.38
391.455	-6.62
391.583	35.38
391.712	15.38
391.84	2.38
391.968	-6.62
392.096	8.38
392.225	23.38
392.353	9.38
392.481	2.38
392.609	18.38
392.738	7.38
392.866	27.38
392.994	-17.62
393.122	9.38
393.251	0.38
393.379	-10.62
393.507	-10.62
393.635	-17.62
393.764	5.38
393.892	17.38
394.02	10.38
394.148	-0.62
394.276	3.38
394.404	27.38
394.533	4.38
394.661	13.38
394.789	12.38
394.917	23.38
395.045	4.38
395.173	-14.62
395.302	6.38
395.43	11.38
395.558	5.38
395.686	25.38
395.814	18.38
395.942	2.38
396.07	19.38
396.198	2.38
396.326	4.38
396.454	15.38
396.582	13.38
396.711	3.38
396.839	10.38
396.967	9.38
397.095	-20.62
397.223	24.38
397.351	27.38
397.479	16.38
397.607	-4.62
397.735	12.38
397.863	26.38
397.991	12.38
398.119	-10.62
398.247	11.38
398.375	-5.62
398.503	5.38
398.631	13.38
398.759	1.38
398.887	18.38
399.015	-10.62
399.143	-2.62
399.271	6.38
399.399	16.38
399.526	15.38
399.654	13.38
399.782	-12.62
399.91	18.38
400.038	10.38
400.166	-2.62
400.294	15.38
400.422	-5.62
400.55	4.38
400.678	-0.62
400.805	8.38
400.933	2.38
401.061	1.38
401.189	-5.62
401.317	18.38
401.445	40.38
401.573	24.38
401.7	-9.62
401.828	-3.62
401.956	15.38
402.084	9.38
402.212	5.38
402.34	0.38
402.467	21.38
402.595	17.38
402.723	5.38
402.851	31.38
402.978	7.38
403.106	14.38
403.234	20.38
403.362	22.38
403.489	21.38
403.617	22.38
403.745	6.38
403.873	16.38
404	30.38
404.128	24.38
404.256	18.38
404.384	13.38
404.511	16.38
404.639	0.38
404.767	1.38
404.894	19.38
405.022	15.38
405.15	11.38
405.277	5.38
405.405	3.38
405.533	19.38
405.66	15.38
405.788	-2.62
405.916	-11.62
406.043	-7.62
406.171	-3.62
406.299	9.38
406.426	28.38
406.554	14.38
406.681	18.38
406.809	17.38
406.937	11.38
407.064	5.38
407.192	3.38
407.319	7.38
407.447	16.38
407.574	42.38
407.702	2.38
407.83	-0.62
407.957	-25.62
408.085	5.38
408.212	-3.62
408.34	-13.62
408.467	-1.62
408.595	8.38
408.722	7.38
408.85	28.38
408.977	3.38
409.105	2.38
409.232	9.38
409.36	12.38
409.487	4.38
409.615	25.38
409.742	40.38
409.87	39.38
409.997	39.38
410.125	36.38
410.252	49.38
410.379	71.38
410.507	39.38
410.634	6.38
410.762	1.38
410.889	29.38
411.017	22.38
411.144	22.38
411.271	14.38
411.399	21.38
411.526	6.38
411.653	11.38
411.781	13.38
411.908	17.38
412.036	10.38
412.163	27.38
412.29	13.38
412.418	23.38
412.545	12.38
412.672	2.38
412.8	37.38
412.927	21.38
413.054	16.38
413.182	17.38
413.309	-2.62
413.436	-5.62
413.564	-16.62
413.691	12.38
413.818	27.38
413.945	4.38
414.073	-6.62
414.2	13.38
414.327	11.38
414.454	25.38
414.582	6.38
414.709	-14.62
414.836	11.38
414.963	6.38
415.091	18.38
415.218	4.38
415.345	-0.62
415.472	16.38
415.6	0.38
415.727	21.38
415.854	-3.62
415.981	17.38
416.108	2.38
416.236	5.38
416.363	7.38
416.49	25.38
416.617	4.38
416.744	32.38
416.871	25.38
416.998	28.38
417.126	19.38
417.253	8.38
417.38	18.38
417.507	16.38
417.634	13.38
417.761	27.38
417.888	22.38
418.015	33.38
418.143	1.38
418.27	21.38
418.397	2.38
418.524	5.38
418.651	-8.62
418.778	20.38
418.905	12.38
419.032	-4.62
419.159	2.38
419.286	34.38
419.413	11.38
419.54	27.38
419.667	18.38
419.794	1.38
419.921	7.38
420.048	12.38
420.175	16.38
420.302	-5.62
420.429	1.38
420.556	1.38
420.683	-17.62
420.81	10.38
420.937	7.38
421.064	6.38
421.191	2.38
421.318	26.38
421.445	41.38
421.572	-4.62
421.699	9.38
421.826	21.38
421.953	3.38
422.08	10.38
422.207	-8.62
422.334	0.38
422.461	16.38
422.588	-1.62
422.714	4.38
422.841	14.38
422.968	16.38
423.095	7.38
423.222	1.38
423.349	2.38
423.476	-0.62
423.603	-3.62
423.729	4.38
423.856	16.38
423.983	14.38
424.11	-3.62
424.237	18.38
424.364	6.38
424.491	14.38
424.617	-10.62
424.744	-5.62
424.871	2.38
424.998	-5.62
425.125	0.38
425.251	5.38
425.378	11.38
425.505	0.38
425.632	10.38
425.758	6.38
425.885	-2.62
426.012	25.38
426.139	18.38
426.266	-12.62
426.392	10.38
426.519	11.38
426.646	-6.62
426.772	9.38
426.899	2.38
427.026	14.38
427.153	14.38
427.279	18.38
427.406	2.38
427.533	-18.62
427.659	-6.62
427.786	2.38
427.913	18.38
428.039	10.38
428.166	8.38
428.293	20.38
428.419	21.38
428.546	7.38
428.673	-1.62
428.799	-10.62
428.926	-5.62
429.053	29.38
429.179	37.38
429.306	21.38
429.433	9.38
429.559	-1.62
429.686	-3.62
429.812	0.38
429.939	-6.62
430.066	-11.62
430.192	1.38
430.319	24.38
430.445	-7.62
430.572	21.38
430.699	7.38
430.825	8.38
430.952	21.38
431.078	-1.62
431.205	13.38
431.331	6.38
431.458	21.38
431.584	9.38
431.711	8.38
431.837	7.38
431.964	13.38
432.09	14.38
432.217	-12.62
432.343	2.38
432.47	11.38
432.596	-9.62
432.723	-0.62
432.849	7.38
432.976	6.38
433.102	21.38
433.229	7.38
433.355	28.38
433.482	73.38
433.608	152.38
433.735	119.38
433.861	115.38
433.987	148.38
434.114	214.38
434.24	206.38
434.367	74.38
434.493	17.38
434.62	34.38
434.746	20.38
434.872	-5.62
434.999	14.38
435.125	1.38
435.252	11.38
435.378	-4.62
435.504	1.38
435.631	8.38
435.757	22.38
435.883	17.38
436.01	6.38
436.136	15.38
436.262	9.38
436.389	12.38
436.515	12.38
436.641	9.38
436.768	15.38
436.894	24.38
437.02	3.38
437.147	27.38
437.273	7.38
437.399	0.38
437.526	16.38
437.652	15.38
437.778	26.38
437.904	-4.62
438.031	3.38
438.157	24.38
438.283	18.38
438.409	10.38
438.536	-4.62
438.662	-11.62
438.788	12.38
438.914	11.38
439.041	12.38
439.167	40.38
439.293	6.38
439.419	-1.62
439.546	22.38
439.672	12.38
439.798	24.38
439.924	17.38
440.05	29.38
440.177	-0.62
440.303	6.38
440.429	4.38
440.555	9.38
440.681	6.38
440.807	8.38
440.934	2.38
441.06	21.38
441.186	-2.62
441.312	10.38
441.438	8.38
441.564	25.38
441.69	11.38
441.816	13.38
441.943	3.38
442.069	15.38
442.195	11.38
442.321	5.38
442.447	-1.62
442.573	10.38
442.699	-10.62
442.825	-5.62
442.951	13.38
443.077	22.38
443.203	10.38
443.33	13.38
443.456	-6.62
443.582	19.38
443.708	1.38
443.834	9.38
443.96	18.38
444.086	20.38
444.212	30.38
444.338	29.38
444.464	18.38
444.59	30.38
444.716	9.38
444.842	10.38
444.968	10.38
445.094	-1.62
445.22	-4.62
445.346	-13.62
445.472	-5.62
445.598	17.38
445.724	9.38
445.85	10.38
445.976	5.38
446.102	5.38
446.228	26.38
446.354	25.38
446.48	4.38
446.605	21.38
446.731	21.38
446.857	15.38
446.983	20.38
447.109	10.38
447.235	15.38
447.361	-10.62
447.487	8.38
447.613	19.38
447.739	0.38
447.865	-3.62
447.99	22.38
448.116	13.38
448.242	10.38
448.368	0.38
448.494	4.38
448.62	5.38
448.746	0.38
448.872	4.38
448.997	-13.62
449.123	2.38
449.249	24.38
449.375	29.38
449.501	-10.62
449.627	-8.62
449.752	43.38
449.878	24.38
450.004	-5.62
450.13	26.38
450.256	4.38
450.381	7.38
450.507	13.38
450.633	14.38
450.759	25.38
450.884	21.38
451.01	8.38
451.136	7.38
451.262	19.38
451.388	12.38
451.513	5.38
451.639	22.38
451.765	28.38
451.89	48.38
452.016	22.38
452.142	10.38
452.268	24.38
452.393	10.38
452.519	1.38
452.645	1.38
452.771	19.38
452.896	5.38
453.022	6.38
453.148	3.38
453.273	9.38
453.399	11.38
453.525	-5.62
453.65	6.38
453.776	11.38
453.902	43.38
454.027	31.38
454.153	5.38
454.279	13.38
454.404	9.38
454.53	10.38
454.656	40.38
454.781	1.38
454.907	-1.62
455.032	-2.62
455.158	33.38
455.284	12.38
455.409	17.38
455.535	11.38
455.66	22.38
455.786	15.38
455.912	5.38
456.037	-12.62
456.163	13.38
456.288	20.38
456.414	5.38
456.539	-8.62
456.665	19.38
456.791	0.38
456.916	-3.62
457.042	12.38
457.167	6.38
457.293	7.38
457.418	5.38
457.544	11.38
457.669	-3.62
457.795	-1.62
457.92	7.38
458.046	3.38
458.171	4.38
458.297	0.38
458.422	2.38
458.548	3.38
458.673	28.38
458.799	24.38
458.924	-4.62
459.05	-6.62
459.175	10.38
459.301	16.38
459.426	18.38
459.552	12.38
459.677	9.38
459.803	29.38
459.928	23.38
460.053	18.38
460.179	25.38
460.304	38.38
460.43	0.38
460.555	8.38
460.681	8.38
460.806	13.38
460.931	10.38
461.057	0.38
461.182	-1.62
461.308	19.38
461.433	12.38
461.558	-7.62
461.684	13.38
461.809	40.38
461.934	25.38
462.06	19.38
462.185	-10.62
462.311	-2.62
462.436	12.38
462.561	0.38
462.687	12.38
462.812	10.38
462.937	3.38
463.063	-8.62
463.188	10.38
463.313	10.38
463.439	11.38
463.564	13.38
463.689	-0.62
463.814	20.38
463.94	-1.62
464.065	31.38
464.19	46.38
464.316	5.38
464.441	-7.62
464.566	-6.62
464.692	2.38
464.817	-1.62
464.942	7.38
465.067	-8.62
465.193	-4.62
465.318	7.38
465.443	12.38
465.568	14.38
465.694	4.38
465.819	39.38
465.944	26.38
466.069	26.38
466.194	2.38
466.32	0.38
466.445	3.38
466.57	-12.62
466.695	-3.62
466.82	16.38
466.946	20.38
467.071	4.38
467.196	9.38
467.321	-3.62
467.446	11.38
467.572	-0.62
467.697	-8.62
467.822	5.38
467.947	20.38
468.072	5.38
468.197	-11.62
468.323	-4.62
468.448	-8.62
468.573	4.38
468.698	3.38
468.823	12.38
468.948	18.38
469.073	23.38
469.198	3.38
469.324	21.38
469.449	4.38
469.574	25.38
469.699	12.38
469.824	20.38
469.949	11.38
470.074	17.38
470.199	22.38
470.324	33.38
470.449	48.38
470.574	10.38
470.7	5.38
470.825	20.38
470.95	17.38
471.075	-2.62
471.2	12.38
471.325	21.38
471.45	13.38
471.575	4.38
471.7	8.38
471.825	3.38
471.95	3.38
472.075	-2.62
472.2	-4.62
472.325	10.38
472.45	0.38
472.575	-5.62
472.7	8.38
472.825	30.38
472.95	38.38
473.075	6.38
473.2	9.38
473.325	26.38
473.45	15.38
473.575	-6.62
473.7	20.38
473.825	22.38
473.95	9.38
474.075	27.38
474.2	16.38
474.325	4.38
474.45	20.38
474.574	17.38
474.699	31.38
474.824	20.38
474.949	4.38
475.074	12.38
475.199	23.38
475.324	12.38
475.449	0.38
475.574	29.38
475.699	16.38
475.824	5.38
475.949	21.38
476.073	-3.62
476.198	-2.62
476.323	8.38
476.448	13.38
476.573	0.38
476.698	9.38
476.823	23.38
476.947	36.38
477.072	-2.62
477.197	18.38
477.322	9.38
477.447	12.38
477.572	24.38
477.697	-2.62
477.821	7.38
477.946	19.38
478.071	14.38
478.196	26.38
478.321	20.38
478.445	20.38
478.57	12.38
478.695	9.38
478.82	-0.62
478.945	12.38
479.069	4.38
479.194	2.38
479.319	3.38
479.444	23.38
479.569	8.38
479.693	9.38
479.818	4.38
479.943	30.38
480.068	14.38
480.192	20.38
480.317	17.38
480.442	9.38
480.567	2.38
480.691	20.38
480.816	10.38
480.941	33.38
481.066	28.38
481.19	16.38
481.315	8.38
481.44	5.38
481.564	7.38
481.689	27.38
481.814	28.38
481.938	17.38
482.063	-2.62
482.188	8.38
482.313	21.38
482.437	10.38
482.562	37.38
482.687	18.38
482.811	22.38
482.936	13.38
483.061	15.38
483.185	22.38
483.31	20.38
483.435	28.38
483.559	14.38
483.684	15.38
483.808	38.38
483.933	21.38
484.058	17.38
484.182	17.38
484.307	20.38
484.432	24.38
484.556	4.38
484.681	4.38
484.805	27.38
484.93	33.38
485.055	43.38
485.179	84.38
485.304	105.38
485.428	361.38
485.553	1233.38
485.678	1751.38
485.802	1642.38
485.927	1827.38
486.051	2676.38
486.176	1603.38
486.3	460.38
486.425	144.38
486.549	98.38
486.674	71.38
486.799	36.38
486.923	17.38
487.048	18.38
487.172	7.38
487.297	24.38
487.421	24.38
487.546	16.38
487.67	22.38
487.795	-1.62
487.919	18.38
488.044	30.38
488.168	34.38
488.293	22.38
488.417	26.38
488.542	22.38
488.666	14.38
488.791	14.38
488.915	9.38
489.04	18.38
489.164	26.38
489.289	27.38
489.413	8.38
489.538	34.38
489.662	26.38
489.786	23.38
489.911	12.38
490.035	18.38
490.16	22.38
490.284	1.38
490.409	-6.62
490.533	23.38
490.658	23.38
490.782	17.38
490.906	16.38
491.031	25.38
491.155	14.38
491.28	16.38
491.404	20.38
491.528	20.38
491.653	22.38
491.777	32.38
491.902	5.38
492.026	21.38
492.15	17.38
492.275	25.38
492.399	20.38
492.524	-1.62
492.648	24.38
492.772	29.38
492.897	20.38
493.021	17.38
493.145	21.38
493.27	18.38
493.394	10.38
493.518	8.38
493.643	-1.62
493.767	20.38
493.891	0.38
494.016	13.38
494.14	17.38
494.264	29.38
494.389	19.38
494.513	-6.62
494.637	0.38
494.762	20.38
494.886	20.38
495.01	5.38
495.134	18.38
495.259	11.38
495.383	22.38
495.507	16.38
495.632	38.38
495.756	48.38
495.88	37.38
496.004	13.38
496.129	21.38
496.253	15.38
496.377	-1.62
496.501	30.38
496.626	1.38
496.75	0.38
496.874	23.38
496.998	9.38
497.123	44.38
497.247	16.38
497.371	5.38
497.495	20.38
497.62	18.38
497.744	15.38
497.868	19.38
497.992	17.38
498.116	-16.62
498.241	17.38
498.365	21.38
498.489	13.38
498.613	45.38
498.737	-5.62
498.862	10.38
498.986	-4.62
499.11	6.38
499.234	13.38
499.358	5.38
499.482	22.38
499.607	21.38
499.731	12.38
499.855	18.38
499.979	10.38
500.103	28.38
500.227	19.38
500.351	9.38
500.476	9.38
500.6	14.38
500.724	21.38
500.848	20.38
500.972	25.38
501.096	25.38
501.22	20.38
501.344	1.38
501.469	6.38
501.593	19.38
501.717	23.38
501.841	14.38
501.965	8.38
502.089	13.38
502.213	17.38
502.337	-4.62
502.461	3.38
502.585	-1.62
502.709	7.38
502.834	8.38
502.958	0.38
503.082	20.38
503.206	25.38
503.33	38.38
503.454	29.38
503.578	27.38
503.702	43.38
503.826	23.38
503.95	18.38
504.074	0.38
504.198	29.38
504.322	14.38
504.446	5.38
504.57	15.38
504.694	21.38
504.818	26.38
504.942	26.38
505.066	14.38
505.19	22.38
505.314	21.38
505.438	8.38
505.562	1.38
505.686	0.38
505.81	-1.62
505.934	12.38
506.058	20.38
506.182	16.38
506.306	23.38
506.43	12.38
506.554	22.38
506.678	14.38
506.802	24.38
506.926	22.38
507.05	23.38
507.174	26.38
507.298	21.38
507.422	4.38
507.546	27.38
507.67	28.38
507.794	12.38
507.918	11.38
508.042	3.38
508.165	13.38
508.289	1.38
508.413	3.38
508.537	16.38
508.661	10.38
508.785	21.38
508.909	19.38
509.033	23.38
509.157	7.38
509.281	11.38
509.405	18.38
509.528	28.38
509.652	34.38
509.776	12.38
509.9	28.38
510.024	11.38
510.148	21.38
510.272	22.38
510.396	30.38
510.519	-7.62
510.643	37.38
510.767	13.38
510.891	6.38
511.015	9.38
511.139	18.38
511.263	19.38
511.386	-2.62
511.51	23.38
511.634	6.38
511.758	10.38
511.882	11.38
512.006	23.38
512.129	36.38
512.253	36.38
512.377	10.38
512.501	15.38
512.625	1.38
512.748	2.38
512.872	-10.62
512.996	11.38
513.12	11.38
513.244	19.38
513.367	24.38
513.491	2.38
513.615	15.38
513.739	7.38
513.862	1.38
513.986	11.38
514.11	30.38
514.234	12.38
514.358	19.38
514.481	35.38
514.605	16.38
514.729	16.38
514.853	21.38
514.976	0.38
515.1	23.38
515.224	26.38
515.348	14.38
515.471	11.38
515.595	22.38
515.719	10.38
515.842	28.38
515.966	15.38
516.09	24.38
516.214	15.38
516.337	22.38
516.461	20.38
516.585	9.38
516.708	19.38
516.832	11.38
516.956	8.38
517.08	15.38
517.203	5.38
517.327	-1.62
517.451	27.38
517.574	48.38
517.698	20.38
517.822	21.38
517.945	17.38
518.069	22.38
518.193	61.38
518.316	45.38
518.44	36.38
518.564	8.38
518.687	24.38
518.811	34.38
518.935	53.38
519.058	22.38
519.182	55.38
519.306	49.38
519.429	15.38
519.553	55.38
519.676	42.38
519.8	12.38
519.924	9.38
520.047	45.38
520.171	7.38
520.294	13.38
520.418	11.38
520.542	12.38
520.665	33.38
520.789	17.38
520.913	6.38
521.036	3.38
521.16	-4.62
521.283	6.38
521.407	18.38
521.53	12.38
521.654	-2.62
521.778	18.38
521.901	7.38
522.025	11.38
522.148	10.38
522.272	18.38
522.395	9.38
522.519	15.38
522.643	-3.62
522.766	17.38
522.89	16.38
523.013	40.38
523.137	-5.62
523.26	7.38
523.384	17.38
523.507	6.38
523.631	0.38
523.754	8.38
523.878	18.38
524.002	6.38
524.125	5.38
524.249	6.38
524.372	27.38
524.496	18.38
524.619	14.38
524.743	20.38
524.866	9.38
524.99	7.38
525.113	-2.62
525.237	33.38
525.36	21.38
525.484	21.38
525.607	-0.62
525.731	6.38
525.854	8.38
525.978	26.38
526.101	2.38
526.224	8.38
526.348	19.38
526.471	17.38
526.595	16.38
526.718	-11.62
526.842	-6.62
526.965	25.38
527.089	11.38
527.212	28.38
527.336	19.38
527.459	26.38
527.582	4.38
527.706	9.38
527.829	18.38
527.953	2.38
528.076	-10.62
528.2	2.38
528.323	23.38
528.446	29.38
528.57	10.38
528.693	29.38
528.817	16.38
528.94	33.38
529.064	34.38
529.187	2.38
529.31	3.38
529.434	19.38
529.557	6.38
529.68	11.38
529.804	22.38
529.927	7.38
530.051	3.38
530.174	4.38
530.297	31.38
530.421	17.38
530.544	22.38
530.668	5.38
530.791	-5.62
530.914	21.38
531.038	1.38
531.161	-6.62
531.284	8.38
531.408	19.38
531.531	4.38
531.654	-11.62
531.778	15.38
531.901	0.38
532.024	13.38
532.148	3.38
532.271	14.38
532.394	20.38
532.518	38.38
532.641	43.38
532.764	23.38
532.888	21.38
533.011	13.38
533.134	9.38
533.258	25.38
533.381	13.38
533.504	7.38
533.628	-8.62
533.751	18.38
533.874	8.38
533.997	5.38
534.121	7.38
534.244	9.38
534.367	-5.62
534.491	10.38
534.614	4.38
534.737	25.38
534.86	7.38
534.984	0.38
535.107	-5.62
535.23	6.38
535.354	8.38
535.477	10.38
535.6	-5.62
535.723	19.38
535.847	3.38
535.97	-6.62
536.093	9.38
536.216	11.38
536.34	14.38
536.463	-8.62
536.586	9.38
536.709	33.38
536.833	16.38
536.956	14.38
537.079	9.38
537.202	21.38
537.325	16.38
537.449	-0.62
537.572	10.38
537.695	-15.62
537.818	3.38
537.941	5.38
538.065	-18.62
538.188	-7.62
538.311	12.38
538.434	22.38
538.558	7.38
538.681	28.38
538.804	11.38
538.927	25.38
539.05	28.38
539.173	6.38
539.297	1.38
539.42	11.38
539.543	4.38
539.666	28.38
539.789	14.38
539.913	3.38
540.036	7.38
540.159	11.38
540.282	0.38
540.405	-18.62
540.528	8.38
540.651	32.38
540.775	-1.62
540.898	8.38
541.021	2.38
541.144	16.38
541.267	17.38
541.39	7.38
541.513	20.38
541.637	-7.62
541.76	9.38
541.883	-3.62
542.006	18.38
542.129	6.38
542.252	-4.62
542.375	13.38
542.498	3.38
542.622	17.38
542.745	10.38
542.868	-3.62
542.991	18.38
543.114	26.38
543.237	20.38
543.36	29.38
543.483	13.38
543.606	10.38
543.73	15.38
543.853	5.38
543.976	3.38
544.099	13.38
544.222	20.38
544.345	-6.62
544.468	-4.62
544.591	-3.62
544.714	7.38
544.837	27.38
544.96	20.38
545.083	12.38
545.206	26.38
545.329	26.38
545.453	6.38
545.576	7.38
545.699	2.38
545.822	9.38
545.945	7.38
546.068	3.38
546.191	18.38
546.314	-5.62
546.437	-2.62
546.56	8.38
546.683	18.38
546.806	21.38
546.929	15.38
547.052	-10.62
547.175	0.38
547.298	11.38
547.421	2.38
547.544	3.38
547.667	16.38
547.79	18.38
547.913	-4.62
548.036	6.38
548.159	8.38
548.282	6.38
548.405	14.38
548.528	7.38
548.651	-6.62
548.774	21.38
548.897	17.38
549.02	45.38
549.143	38.38
549.266	9.38
549.389	9.38
549.512	4.38
549.635	12.38
549.758	24.38
549.881	1.38
550.004	12.38
550.127	7.38
550.25	-11.62
550.373	-4.62
550.496	7.38
550.619	10.38
550.742	5.38
550.865	1.38
550.988	19.38
551.111	15.38
551.234	16.38
551.356	0.38
551.479	11.38
551.602	35.38
551.725	27.38
551.848	27.38
551.971	30.38
552.094	26.38
552.217	2.38
552.34	6.38
552.463	-5.62
552.586	4.38
552.709	20.38
552.832	9.38
552.955	26.38
553.077	38.38
553.2	20.38
553.323	-14.62
553.446	10.38
553.569	13.38
553.692	31.38
553.815	5.38
553.938	19.38
554.061	14.38
554.184	15.38
554.306	3.38
554.429	10.38
554.552	30.38
554.675	9.38
554.798	-2.62
554.921	18.38
555.044	15.38
555.167	8.38
555.29	6.38
555.412	13.38
555.535	1.38
555.658	3.38
555.781	6.38
555.904	17.38
556.027	19.38
556.15	11.38
556.272	4.38
556.395	22.38
556.518	6.38
556.641	19.38
556.764	15.38
556.887	17.38
557.01	7.38
557.132	3.38
557.255	10.38
557.378	21.38
557.501	16.38
557.624	12.38
557.747	8.38
557.869	4.38
557.992	20.38
558.115	17.38
558.238	8.38
558.361	12.38
558.483	39.38
558.606	6.38
558.729	9.38
558.852	28.38
558.975	16.38
559.098	28.38
559.22	24.38
559.343	24.38
559.466	13.38
559.589	-3.62
559.712	14.38
559.834	14.38
559.957	0.38
560.08	17.38
560.203	12.38
560.325	21.38
560.448	33.38
560.571	-5.62
560.694	0.38
560.817	24.38
560.939	11.38
561.062	2.38
561.185	16.38
561.308	18.38
561.43	9.38
561.553	11.38
561.676	12.38
561.799	12.38
561.921	12.38
562.044	2.38
562.167	-4.62
562.29	43.38
562.413	19.38
562.535	29.38
562.658	-5.62
562.781	1.38
562.903	26.38
563.026	6.38
563.149	25.38
563.272	7.38
563.394	18.38
563.517	3.38
563.64	-11.62
563.763	14.38
563.885	9.38
564.008	42.38
564.131	24.38
564.254	-6.62
564.376	22.38
564.499	-3.62
564.622	5.38
564.744	19.38
564.867	5.38
564.99	0.38
565.113	17.38
565.235	2.38
565.358	2.38
565.481	4.38
565.603	10.38
565.726	7.38
565.849	-3.62
565.971	13.38
566.094	-9.62
566.217	-6.62
566.34	2.38
566.462	3.38
566.585	22.38
566.708	34.38
566.83	15.38
566.953	29.38
567.076	25.38
567.198	12.38
567.321	11.38
567.444	14.38
567.566	-0.62
567.689	-0.62
567.812	-2.62
567.934	25.38
568.057	15.38
568.18	9.38
568.302	18.38
568.425	14.38
568.548	20.38
568.67	16.38
568.793	28.38
568.916	20.38
569.038	5.38
569.161	11.38
569.283	6.38
569.406	7.38
569.529	-4.62
569.651	-12.62
569.774	-13.62
569.897	3.38
570.019	25.38
570.142	21.38
570.265	10.38
570.387	0.38
570.51	21.38
570.632	22.38
570.755	-2.62
570.878	6.38
571	9.38
571.123	10.38
571.246	21.38
571.368	11.38
571.491	6.38
571.613	6.38
571.736	-7.62
571.859	9.38
571.981	4.38
572.104	5.38
572.226	29.38
572.349	5.38
572.472	16.38
572.594	29.38
572.717	16.38
572.839	8.38
572.962	13.38
573.085	3.38
573.207	4.38
573.33	24.38
573.452	13.38
573.575	25.38
573.697	10.38
573.82	18.38
573.943	-9.62
574.065	14.38
574.188	15.38
574.31	34.38
574.433	26.38
574.555	32.38
574.678	11.38
574.801	4.38
574.923	1.38
575.046	5.38
575.168	12.38
575.291	3.38
575.413	19.38
575.536	13.38
575.659	34.38
575.781	14.38
575.904	0.38
576.026	12.38
576.149	16.38
576.271	29.38
576.394	23.38
576.516	2.38
576.639	9.38
576.761	9.38
576.884	-6.62
577.007	17.38
577.129	20.38
577.252	6.38
577.374	24.38
577.497	14.38
577.619	20.38
577.742	8.38
577.864	13.38
577.987	9.38
578.109	29.38
578.232	9.38
578.354	12.38
578.477	7.38
578.599	-5.62
578.722	8.38
578.844	12.38
578.967	28.38
579.089	1.38
579.212	2.38
579.334	20.38
579.457	-2.62
579.579	23.38
579.702	23.38
579.824	-0.62
579.947	9.38
580.069	14.38
580.192	-13.62
580.314	25.38
580.437	13.38
580.559	38.38
580.682	5.38
580.804	20.38
580.927	28.38
581.049	21.38
581.172	12.38
581.294	7.38
581.417	19.38
581.539	23.38
581.662	11.38
581.784	8.38
581.907	10.38
582.029	14.38
582.152	-0.62
582.274	34.38
582.396	18.38
582.519	13.38
582.641	-3.62
582.764	7.38
582.886	35.38
583.009	13.38
583.131	10.38
583.254	12.38
583.376	36.38
583.499	8.38
583.621	12.38
583.743	31.38
583.866	28.38
583.988	4.38
584.111	15.38
584.233	34.38
584.356	14.38
584.478	-17.62
584.601	7.38
584.723	25.38
584.845	41.38
584.968	3.38
585.09	0.38
585.213	18.38
585.335	1.38
585.458	6.38
585.58	3.38
585.702	28.38
585.825	20.38
585.947	19.38
586.07	2.38
586.192	2.38
586.315	23.38
586.437	-7.62
586.559	8.38
586.682	5.38
586.804	10.38
586.927	8.38
587.049	5.38
587.171	23.38
587.294	12.38
587.416	41.38
587.539	5.38
587.661	13.38
587.783	6.38
587.906	-2.62
588.028	34.38
588.151	11.38
588.273	28.38
588.395	8.38
588.518	9.38
588.64	6.38
588.763	15.38
588.885	28.38
589.007	15.38
589.13	-1.62
589.252	-8.62
589.375	22.38
589.497	-1.62
589.619	14.38
589.742	6.38
589.864	24.38
589.986	19.38
590.109	-10.62
590.231	12.38
590.354	13.38
590.476	-7.62
590.598	0.38
590.721	-2.62
590.843	9.38
590.965	-1.62
591.088	15.38
591.21	15.38
591.332	2.38
591.455	1.38
591.577	-2.62
591.7	8.38
591.822	16.38
591.944	26.38
592.067	22.38
592.189	8.38
592.311	15.38
592.434	18.38
592.556	20.38
592.678	6.38
592.801	8.38
592.923	29.38
593.045	19.38
593.168	10.38
593.29	5.38
593.412	18.38
593.535	-2.62
593.657	7.38
593.779	12.38
593.902	21.38
594.024	16.38
594.146	33.38
594.269	4.38
594.391	-4.62
594.513	8.38
594.636	3.38
594.758	-12.62
594.88	21.38
595.003	12.38
595.125	13.38
595.247	10.38
595.37	17.38
595.492	-12.62
595.614	29.38
595.737	10.38
595.859	7.38
595.981	10.38
596.104	20.38
596.226	-1.62
596.348	13.38
596.471	5.38
596.593	10.38
596.715	10.38
596.838	14.38
596.96	2.38
597.082	6.38
597.204	4.38
597.327	16.38
597.449	6.38
597.571	16.38
597.694	27.38
597.816	18.38
597.938	16.38
598.061	-5.62
598.183	0.38
598.305	12.38
598.427	5.38
598.55	10.38
598.672	17.38
598.794	2.38
598.917	-4.62
599.039	13.38
599.161	26.38
599.283	6.38
599.406	3.38
599.528	29.38
599.65	35.38
599.773	8.38
599.895	35.38
600.017	18.38
600.139	2.38
600.262	-6.62
600.384	5.38
600.506	14.38
600.628	7.38
600.751	21.38
600.873	2.38
600.995	8.38
601.118	26.38
601.24	13.38
601.362	24.38
601.484	35.38
601.607	14.38
601.729	29.38
601.851	28.38
601.973	6.38
602.096	41.38
602.218	28.38
602.34	21.38
602.462	30.38
602.585	25.38
602.707	2.38
602.829	13.38
602.951	9.38
603.074	-7.62
603.196	11.38
603.318	-6.62
603.44	25.38
603.563	15.38
603.685	-9.62
603.807	10.38
603.929	13.38
604.052	19.38
604.174	30.38
604.296	18.38
604.418	21.38
604.541	24.38
604.663	8.38
604.785	8.38
604.907	9.38
605.03	9.38
605.152	40.38
605.274	11.38
605.396	22.38
605.519	10.38
605.641	4.38
605.763	17.38
605.885	5.38
606.008	5.38
606.13	7.38
606.252	16.38
606.374	-12.62
606.496	-0.62
606.619	1.38
606.741	2.38
606.863	43.38
606.985	12.38
607.108	9.38
607.23	10.38
607.352	14.38
607.474	14.38
607.596	14.38
607.719	6.38
607.841	30.38
607.963	5.38
608.085	1.38
608.207	43.38
608.33	13.38
608.452	0.38
608.574	5.38
608.696	12.38
608.819	2.38
608.941	9.38
609.063	2.38
609.185	5.38
609.307	6.38
609.43	6.38
609.552	5.38
609.674	-5.62
609.796	9.38
609.918	12.38
610.041	11.38
610.163	15.38
610.285	18.38
610.407	22.38
610.529	2.38
610.652	18.38
610.774	33.38
610.896	33.38
611.018	17.38
611.14	14.38
611.263	13.38
611.385	7.38
611.507	36.38
611.629	4.38
611.751	16.38
611.873	32.38
611.996	21.38
612.118	17.38
612.24	14.38
612.362	10.38
612.484	39.38
612.607	23.38
612.729	33.38
612.851	9.38
612.973	14.38
613.095	-6.62
613.218	20.38
613.34	22.38
613.462	11.38
613.584	9.38
613.706	22.38
613.828	39.38
613.951	25.38
614.073	22.38
614.195	-6.62
614.317	30.38
614.439	14.38
614.561	20.38
614.684	8.38
614.806	6.38
614.928	15.38
615.05	29.38
615.172	40.38
615.294	25.38
615.417	16.38
615.539	2.38
615.661	11.38
615.783	30.38
615.905	28.38
616.027	82.38
616.15	123.38
616.272	104.38
616.394	36.38
616.516	45.38
616.638	29.38
616.76	10.38
616.883	1.38
617.005	7.38
617.127	17.38
617.249	16.38
617.371	6.38
617.493	11.38
617.615	17.38
617.738	8.38
617.86	12.38
617.982	-2.62
618.104	-4.62
618.226	-3.62
618.348	15.38
618.471	28.38
618.593	26.38
618.715	-7.62
618.837	17.38
618.959	5.38
619.081	37.38
619.203	12.38
619.326	21.38
619.448	16.38
619.57	22.38
619.692	20.38
619.814	18.38
619.936	24.38
620.058	33.38
620.181	23.38
620.303	19.38
620.425	6.38
620.547	1.38
620.669	1.38
620.791	13.38
620.913	7.38
621.036	4.38
621.158	18.38
621.28	29.38
621.402	5.38
621.524	20.38
621.646	13.38
621.768	0.38
621.891	-7.62
622.013	6.38
622.135	0.38
622.257	-8.62
622.379	16.38
622.501	17.38
622.623	26.38
622.745	24.38
622.868	14.38
622.99	16.38
623.112	0.38
623.234	1.38
623.356	11.38
623.478	-5.62
623.6	20.38
623.722	5.38
623.845	21.38
623.967	1.38
624.089	8.38
624.211	9.38
624.333	6.38
624.455	10.38
624.577	18.38
624.699	27.38
624.822	10.38
624.944	17.38
625.066	8.38
625.188	12.38
625.31	16.38
625.432	33.38
625.554	13.38
625.676	31.38
625.799	2.38
625.921	20.38
626.043	24.38
626.165	16.38
626.287	-5.62
626.409	28.38
626.531	6.38
626.653	4.38
626.775	14.38
626.898	6.38
627.02	-6.62
627.142	12.38
627.264	5.38
627.386	18.38
627.508	8.38
627.63	0.38
627.752	6.38
627.874	-0.62
627.997	32.38
628.119	13.38
628.241	9.38
628.363	23.38
628.485	8.38
628.607	5.38
628.729	2.38
628.851	6.38
628.973	20.38
629.096	1.38
629.218	15.38
629.34	-5.62
629.462	-2.62
629.584	10.38
629.706	4.38
629.828	23.38
629.95	16.38
630.072	9.38
630.195	27.38
630.317	11.38
630.439	12.38
630.561	9.38
630.683	1.38
630.805	18.38
630.927	28.38
631.049	15.38
631.171	8.38
631.293	10.38
631.416	17.38
631.538	12.38
631.66	2.38
631.782	21.38
631.904	26.38
632.026	12.38
632.148	14.38
632.27	-6.62
632.392	16.38
632.514	22.38
632.637	11.38
632.759	0.38
632.881	-12.62
633.003	-11.62
633.125	1.38
633.247	13.38
633.369	18.38
633.491	3.38
633.613	17.38
633.735	3.38
633.858	21.38
633.98	14.38
634.102	-2.62
634.224	-0.62
634.346	2.38
634.468	9.38
634.59	8.38
634.712	15.38
634.834	21.38
634.956	-0.62
635.078	4.38
635.201	2.38
635.323	1.38
635.445	-6.62
635.567	-11.62
635.689	15.38
635.811	-7.62
635.933	14.38
636.055	8.38
636.177	5.38
636.299	25.38
636.421	4.38
636.544	-10.62
636.666	-4.62
636.788	19.38
636.91	22.38
637.032	-3.62
637.154	12.38
637.276	19.38
637.398	27.38
637.52	12.38
637.642	12.38
637.764	17.38
637.887	-3.62
638.009	11.38
638.131	9.38
638.253	0.38
638.375	25.38
638.497	17.38
638.619	9.38
638.741	12.38
638.863	-14.62
638.985	-5.62
639.107	3.38
639.23	-7.62
639.352	17.38
639.474	5.38
639.596	-2.62
639.718	-13.62
639.84	22.38
639.962	8.38
640.084	24.38
640.206	17.38
640.328	2.38
640.45	8.38
640.573	-11.62
640.695	5.38
640.817	0.38
640.939	31.38
641.061	20.38
641.183	7.38
641.305	2.38
641.427	7.38
641.549	4.38
641.671	4.38
641.793	3.38
641.915	25.38
642.038	8.38
642.16	11.38
642.282	10.38
642.404	1.38
642.526	8.38
642.648	8.38
642.77	15.38
642.892	3.38
643.014	8.38
643.136	20.38
643.258	11.38
643.381	16.38
643.503	19.38
643.625	0.38
643.747	-2.62
643.869	1.38
643.991	20.38
644.113	11.38
644.235	1.38
644.357	12.38
644.479	18.38
644.601	4.38
644.723	-9.62
644.846	18.38
644.968	9.38
645.09	4.38
645.212	1.38
645.334	17.38
645.456	19.38
645.578	12.38
645.7	2.38
645.822	9.38
645.944	19.38
646.066	22.38
646.188	-9.62
646.311	21.38
646.433	4.38
646.555	34.38
646.677	25.38
646.799	26.38
646.921	19.38
647.043	34.38
647.165	-2.62
647.287	-2.62
647.409	3.38
647.531	14.38
647.654	6.38
647.776	35.38
647.898	1.38
648.02	-8.62
648.142	9.38
648.264	7.38
648.386	1.38
648.508	-1.62
648.63	23.38
648.752	-1.62
648.874	18.38
648.997	6.38
649.119	25.38
649.241	-0.62
649.363	20.38
649.485	18.38
649.607	17.38
649.729	5.38
649.851	1.38
649.973	0.38
650.095	6.38
650.217	-5.62
650.34	3.38
650.462	21.38
650.584	7.38
650.706	21.38
650.828	31.38
650.95	12.38
651.072	23.38
651.194	-0.62
651.316	10.38
651.438	5.38
651.56	-2.62
651.683	3.38
651.805	8.38
651.927	5.38
652.049	10.38
652.171	11.38
652.293	0.38
652.415	-13.62
652.537	-0.62
652.659	-2.62
652.781	-7.62
652.903	23.38
653.026	30.38
653.148	23.38
653.27	10.38
653.392	19.38
653.514	-0.62
653.636	5.38
653.758	0.38
653.88	6.38
654.002	13.38
654.124	8.38
654.247	11.38
654.369	17.38
654.491	9.38
654.613	12.38
654.735	9.38
654.857	38.38
654.979	47.38
655.101	23.38
655.223	31.38
655.345	19.38
655.468	40.38
655.59	26.38
655.712	42.38
655.834	34.38
655.956	16.38
656.078	38.38
656.2	37.38
656.322	36.38
656.444	16.38
656.566	55.38
656.689	45.38
656.811	60.38
656.933	81.38
657.055	96.38
657.177	171.38
657.299	249.38
657.421	496.38
657.543	1890.38
657.665	12587.38
657.787	15172.38
657.91	15281.38
658.032	15663.38
658.154	4651.38
658.276	3596.38
658.398	1190.38
658.52	1035.38
658.642	486.38
658.764	615.38
658.886	254.38
659.009	403.38
659.131	228.38
659.253	303.38
659.375	169.38
659.497	254.38
659.619	124.38
659.741	209.38
659.863	83.38
659.985	150.38
660.108	100.38
660.23	143.38
660.352	75.38
660.474	125.38
660.596	78.38
660.718	119.38
660.84	58.38
660.962	128.38
661.084	64.38
661.207	88.38
661.329	64.38
661.451	97.38
661.573	38.38
661.695	109.38
661.817	64.38
661.939	102.38
662.061	58.38
662.184	74.38
662.306	35.38
662.428	87.38
662.55	44.38
662.672	67.38
662.794	68.38
662.916	66.38
663.038	34.38
663.161	81.38
663.283	40.38
663.405	68.38
663.527	32.38
663.649	62.38
663.771	28.38
663.893	69.38
664.015	36.38
664.138	45.38
664.26	32.38
664.382	52.38
664.504	21.38
664.626	22.38
664.748	17.38
664.87	36.38
664.992	44.38
665.115	62.38
665.237	43.38
665.359	32.38
665.481	14.38
665.603	27.38
665.725	31.38
665.847	37.38
665.97	25.38
666.092	30.38
666.214	42.38
666.336	43.38
666.458	25.38
666.58	36.38
666.702	18.38
666.825	40.38
666.947	6.38
667.069	21.38
667.191	22.38
667.313	50.38
667.435	11.38
667.557	12.38
667.68	-4.62
667.802	28.38
667.924	24.38
668.046	35.38
668.168	27.38
668.29	55.38
668.412	18.38
668.535	41.38
668.657	4.38
668.779	34.38
668.901	33.38
669.023	29.38
669.145	13.38
669.267	36.38
669.39	14.38
669.512	24.38
669.634	13.38
669.756	26.38
669.878	7.38
670	30.38
670.123	-9.62
670.245	45.38
670.367	16.38
670.489	32.38
670.611	10.38
670.733	23.38
670.856	-3.62
670.978	35.38
671.1	31.38
671.222	34.38
671.344	13.38
671.466	26.38
671.589	21.38
671.711	18.38
671.833	20.38
671.955	23.38
672.077	8.38
672.199	21.38
672.322	28.38
672.444	23.38
672.566	33.38
672.688	32.38
672.81	23.38
672.932	17.38
673.055	4.38
673.177	18.38
673.299	5.38
673.421	5.38
673.543	17.38
673.665	28.38
673.788	5.38
673.91	30.38
674.032	-5.62
674.154	14.38
674.276	4.38
674.399	18.38
674.521	20.38
674.643	23.38
674.765	0.38
674.887	24.38
675.009	13.38
675.132	28.38
675.254	9.38
675.376	20.38
675.498	21.38
675.62	33.38
675.743	23.38
675.865	36.38
675.987	4.38
676.109	24.38
676.231	15.38
676.354	31.38
676.476	2.38
676.598	17.38
676.72	10.38
676.842	43.38
676.965	17.38
677.087	17.38
677.209	28.38
677.331	31.38
677.453	13.38
677.576	13.38
677.698	3.38
677.82	12.38
677.942	-2.62
678.064	16.38
678.187	14.38
678.309	18.38
678.431	9.38
678.553	23.38
678.675	24.38
678.798	33.38
678.92	20.38
679.042	15.38
679.164	13.38
679.286	15.38
679.409	4.38
679.531	5.38
679.653	28.38
679.775	13.38
679.898	-10.62
680.02	4.38
680.142	-1.62
680.264	21.38
680.386	0.38
680.509	17.38
680.631	3.38
680.753	20.38
680.875	4.38
680.998	16.38
681.12	1.38
681.242	29.38
681.364	7.38
681.486	4.38
681.609	-5.62
681.731	-7.62
681.853	0.38
681.975	4.38
682.098	26.38
682.22	38.38
682.342	4.38
682.464	30.38
682.587	12.38
682.709	6.38
682.831	-10.62
682.953	7.38
683.076	-2.62
683.198	12.38
683.32	26.38
683.442	19.38
683.565	2.38
683.687	8.38
683.809	0.38
683.931	-4.62
684.054	22.38
684.176	28.38
684.298	8.38
684.42	17.38
684.543	11.38
684.665	11.38
684.787	-7.62
684.909	4.38
685.032	9.38
685.154	4.38
685.276	12.38
685.398	11.38
685.521	0.38
685.643	4.38
685.765	14.38
685.887	27.38
686.01	22.38
686.132	19.38
686.254	12.38
686.377	30.38
686.499	-2.62
686.621	9.38
686.743	25.38
686.866	24.38
686.988	29.38
687.11	17.38
687.232	13.38
687.355	10.38
687.477	4.38
687.599	4.38
687.722	2.38
687.844	6.38
687.966	14.38
688.088	2.38
688.211	40.38
688.333	10.38
688.455	9.38
688.578	28.38
688.7	25.38
688.822	25.38
688.944	-10.62
689.067	42.38
689.189	3.38
689.311	-3.62
689.434	-2.62
689.556	30.38
689.678	17.38
689.801	-9.62
689.923	10.38
690.045	26.38
690.167	32.38
690.29	24.38
690.412	17.38
690.534	22.38
690.657	10.38
690.779	18.38
690.901	13.38
691.024	21.38
691.146	5.38
691.268	8.38
691.391	2.38
691.513	14.38
691.635	37.38
691.758	31.38
691.88	40.38
692.002	20.38
692.125	18.38
692.247	17.38
692.369	-4.62
692.492	8.38
692.614	-9.62
692.736	14.38
692.859	9.38
692.981	11.38
693.103	-2.62
693.226	18.38
693.348	26.38
693.47	19.38
693.593	10.38
693.715	-1.62
693.837	-13.62
693.96	2.38
694.082	-0.62
694.204	32.38
694.327	15.38
694.449	-4.62
694.571	-4.62
694.694	11.38
694.816	10.38
694.938	-3.62
695.061	22.38
695.183	15.38
695.305	-3.62
695.428	25.38
695.55	8.38
695.672	6.38
695.795	21.38
695.917	12.38
696.04	-3.62
696.162	9.38
696.284	13.38
696.407	21.38
696.529	12.38
696.651	42.38
696.774	2.38
696.896	12.38
697.019	17.38
697.141	1.38
697.263	13.38
697.386	10.38
697.508	-0.62
697.63	14.38
697.753	3.38
697.875	5.38
697.998	12.38
698.12	10.38
698.242	-3.62
698.365	22.38
698.487	4.38
698.61	7.38
698.732	-7.62
698.854	24.38
698.977	1.38
699.099	24.38
699.221	-18.62
699.344	10.38
699.466	7.38
699.589	19.38
699.711	5.38
699.834	-4.62
699.956	-1.62
700.078	-5.62
700.201	2.38
700.323	32.38
700.446	6.38
700.568	9.38
700.69	26.38
700.813	5.38
700.935	23.38
701.058	5.38
701.18	-6.62
701.302	-1.62
701.425	-17.62
701.547	26.38
701.67	14.38
701.792	13.38
701.915	1.38
702.037	-7.62
702.159	9.38
702.282	8.38
702.404	-2.62
702.527	25.38
702.649	34.38
702.772	27.38
702.894	13.38
703.017	12.38
703.139	18.38
703.261	23.38
703.384	22.38
703.506	-3.62
703.629	17.38
703.751	15.38
703.874	9.38
703.996	9.38
704.119	-1.62
704.241	32.38
704.364	-3.62
704.486	18.38
704.608	22.38
704.731	12.38
704.853	24.38
704.976	2.38
705.098	22.38
705.221	11.38
705.343	-4.62
705.466	25.38
705.588	18.38
705.711	18.38
705.833	9.38
705.956	2.38
706.078	24.38
706.201	23.38
706.323	30.38
706.446	17.38
