Data from LowRes_H2_15_26_11_07_2024_HR4C61881__8__15-28-14-437.txt Node

Date: Thu Nov 07 15:28:14 EST 2024
User: crc00042
Spectrometer: HR4C6188
Trigger mode: 4
Integration Time (sec): 1.000000E-1
Scans to average: 1
Electric dark correction enabled: true
Nonlinearity correction enabled: false
Boxcar width: 0
XAxis mode: Wavelengths
Number of Pixels in Spectrum: 3648
>>>>>Begin Spectral Data<<<<<
245.66	-109.62
245.797	-109.62
245.934	-109.62
246.071	-87.62
246.208	22.38
246.344	3.38
246.481	-9.62
246.618	-16.62
246.755	32.38
246.892	7.38
247.029	-26.62
247.165	-17.62
247.302	10.38
247.439	2.38
247.576	14.38
247.713	-0.62
247.849	21.38
247.986	-20.62
248.123	-5.62
248.26	-12.62
248.396	0.38
248.533	-2.62
248.67	-32.62
248.806	-0.62
248.943	-17.62
249.08	2.38
249.216	11.38
249.353	-24.62
249.49	-4.62
249.626	-4.62
249.763	-0.62
249.9	-23.62
250.036	-21.62
250.173	6.38
250.309	4.38
250.446	-13.62
250.582	-15.62
250.719	-9.62
250.856	2.38
250.992	-12.62
251.129	-12.62
251.265	-23.62
251.402	-3.62
251.538	-15.62
251.675	-6.62
251.811	-5.62
251.948	-1.62
252.084	2.38
252.221	-14.62
252.357	-8.62
252.493	15.38
252.63	24.38
252.766	7.38
252.903	-0.62
253.039	-14.62
253.175	-5.62
253.312	-0.62
253.448	-8.62
253.585	-6.62
253.721	9.38
253.857	-4.62
253.994	-8.62
254.13	-5.62
254.266	-0.62
254.403	-17.62
254.539	10.38
254.675	5.38
254.811	-10.62
254.948	-3.62
255.084	-15.62
255.22	-24.62
255.356	0.38
255.493	11.38
255.629	-4.62
255.765	-10.62
255.901	-2.62
256.037	11.38
256.174	-1.62
256.31	-23.62
256.446	-15.62
256.582	-18.62
256.718	7.38
256.854	27.38
256.991	26.38
257.127	27.38
257.263	13.38
257.399	4.38
257.535	4.38
257.671	-6.62
257.807	-14.62
257.943	-20.62
258.079	-17.62
258.215	-9.62
258.351	2.38
258.487	-9.62
258.623	16.38
258.759	-15.62
258.895	6.38
259.031	-8.62
259.167	10.38
259.303	13.38
259.439	0.38
259.575	11.38
259.711	-14.62
259.847	-3.62
259.983	0.38
260.119	10.38
260.255	1.38
260.391	-4.62
260.527	5.38
260.663	3.38
260.799	-5.62
260.934	9.38
261.07	6.38
261.206	-18.62
261.342	-17.62
261.478	0.38
261.614	16.38
261.749	6.38
261.885	-0.62
262.021	-13.62
262.157	30.38
262.293	-10.62
262.428	-7.62
262.564	-15.62
262.7	19.38
262.836	-6.62
262.971	20.38
263.107	21.38
263.243	30.38
263.378	14.38
263.514	-0.62
263.65	2.38
263.785	-12.62
263.921	-1.62
264.057	-5.62
264.192	5.38
264.328	4.38
264.464	-5.62
264.599	-5.62
264.735	14.38
264.871	-2.62
265.006	-3.62
265.142	0.38
265.277	1.38
265.413	21.38
265.548	21.38
265.684	26.38
265.819	5.38
265.955	-21.62
266.091	-11.62
266.226	-19.62
266.362	-2.62
266.497	2.38
266.633	-3.62
266.768	-9.62
266.903	-9.62
267.039	1.38
267.174	24.38
267.31	-7.62
267.445	0.38
267.581	-16.62
267.716	1.38
267.851	26.38
267.987	8.38
268.122	27.38
268.258	-10.62
268.393	-7.62
268.528	10.38
268.664	3.38
268.799	-16.62
268.934	-7.62
269.07	-3.62
269.205	3.38
269.34	13.38
269.476	-4.62
269.611	-8.62
269.746	25.38
269.881	4.38
270.017	8.38
270.152	-2.62
270.287	14.38
270.422	19.38
270.558	-2.62
270.693	14.38
270.828	11.38
270.963	-17.62
271.098	-4.62
271.234	-11.62
271.369	2.38
271.504	10.38
271.639	-13.62
271.774	-13.62
271.909	-1.62
272.045	-28.62
272.18	-8.62
272.315	-15.62
272.45	-2.62
272.585	-9.62
272.72	2.38
272.855	-11.62
272.99	14.38
273.125	-4.62
273.26	-12.62
273.395	-0.62
273.53	3.38
273.665	13.38
273.8	-15.62
273.935	10.38
274.07	-0.62
274.205	7.38
274.34	9.38
274.475	7.38
274.61	17.38
274.745	-12.62
274.88	10.38
275.015	-11.62
275.15	13.38
275.285	-2.62
275.42	-12.62
275.555	6.38
275.69	-1.62
275.825	-12.62
275.959	5.38
276.094	-7.62
276.229	-6.62
276.364	-25.62
276.499	-7.62
276.634	-10.62
276.768	-8.62
276.903	3.38
277.038	23.38
277.173	2.38
277.308	-12.62
277.442	4.38
277.577	-20.62
277.712	0.38
277.847	14.38
277.981	-6.62
278.116	-39.62
278.251	8.38
278.386	9.38
278.52	12.38
278.655	-3.62
278.79	6.38
278.924	-10.62
279.059	1.38
279.194	-19.62
279.328	32.38
279.463	3.38
279.598	-5.62
279.732	2.38
279.867	5.38
280.001	16.38
280.136	-2.62
280.271	-4.62
280.405	2.38
280.54	-9.62
280.674	-6.62
280.809	7.38
280.943	0.38
281.078	-7.62
281.213	8.38
281.347	17.38
281.482	16.38
281.616	11.38
281.751	0.38
281.885	-30.62
282.02	-13.62
282.154	2.38
282.288	-22.62
282.423	-23.62
282.557	-21.62
282.692	5.38
282.826	-11.62
282.961	14.38
283.095	-3.62
283.229	9.38
283.364	-1.62
283.498	-3.62
283.633	2.38
283.767	4.38
283.901	2.38
284.036	6.38
284.17	8.38
284.304	-21.62
284.439	-2.62
284.573	-3.62
284.707	9.38
284.842	5.38
284.976	-15.62
285.11	-15.62
285.244	0.38
285.379	47.38
285.513	-2.62
285.647	-2.62
285.781	6.38
285.916	1.38
286.05	4.38
286.184	23.38
286.318	14.38
286.453	-6.62
286.587	-27.62
286.721	-12.62
286.855	-8.62
286.989	-9.62
287.123	-1.62
287.258	-7.62
287.392	1.38
287.526	-2.62
287.66	-7.62
287.794	4.38
287.928	-26.62
288.062	-1.62
288.196	-4.62
288.33	10.38
288.464	8.38
288.598	5.38
288.733	4.38
288.867	11.38
289.001	-4.62
289.135	-12.62
289.269	-11.62
289.403	-13.62
289.537	1.38
289.671	-2.62
289.805	-22.62
289.939	14.38
290.073	10.38
290.207	12.38
290.34	-12.62
290.474	17.38
290.608	5.38
290.742	-12.62
290.876	-5.62
291.01	0.38
291.144	21.38
291.278	7.38
291.412	7.38
291.546	-7.62
291.679	-18.62
291.813	-4.62
291.947	0.38
292.081	-8.62
292.215	0.38
292.349	9.38
292.482	4.38
292.616	14.38
292.75	9.38
292.884	-1.62
293.018	-8.62
293.151	-21.62
293.285	1.38
293.419	-9.62
293.553	2.38
293.686	-7.62
293.82	-19.62
293.954	16.38
294.088	18.38
294.221	-2.62
294.355	10.38
294.489	-0.62
294.622	-17.62
294.756	4.38
294.89	7.38
295.023	6.38
295.157	22.38
295.291	12.38
295.424	18.38
295.558	-0.62
295.691	5.38
295.825	-10.62
295.959	7.38
296.092	-7.62
296.226	-5.62
296.359	-1.62
296.493	20.38
296.627	16.38
296.76	1.38
296.894	-7.62
297.027	-2.62
297.161	-5.62
297.294	-15.62
297.428	-20.62
297.561	12.38
297.695	-2.62
297.828	-7.62
297.962	-7.62
298.095	-14.62
298.229	8.38
298.362	-21.62
298.495	-26.62
298.629	-11.62
298.762	-1.62
298.896	-14.62
299.029	-33.62
299.162	2.38
299.296	-4.62
299.429	-9.62
299.563	-15.62
299.696	5.38
299.829	-8.62
299.963	10.38
300.096	9.38
300.229	-2.62
300.363	0.38
300.496	6.38
300.629	-31.62
300.763	-17.62
300.896	-0.62
301.029	-2.62
301.162	5.38
301.296	-25.62
301.429	-0.62
301.562	-37.62
301.695	6.38
301.829	10.38
301.962	20.38
302.095	14.38
302.228	6.38
302.362	13.38
302.495	-13.62
302.628	24.38
302.761	-2.62
302.894	2.38
303.027	1.38
303.161	3.38
303.294	-15.62
303.427	14.38
303.56	5.38
303.693	-18.62
303.826	-1.62
303.959	-16.62
304.092	10.38
304.225	-16.62
304.359	-6.62
304.492	22.38
304.625	-14.62
304.758	-4.62
304.891	-30.62
305.024	2.38
305.157	-7.62
305.29	-9.62
305.423	-10.62
305.556	21.38
305.689	8.38
305.822	-10.62
305.955	3.38
306.088	1.38
306.221	-8.62
306.354	6.38
306.487	-15.62
306.62	-8.62
306.752	-12.62
306.885	-15.62
307.018	1.38
307.151	21.38
307.284	11.38
307.417	-8.62
307.55	0.38
307.683	22.38
307.816	8.38
307.948	17.38
308.081	11.38
308.214	10.38
308.347	11.38
308.48	-10.62
308.613	-7.62
308.745	-7.62
308.878	-12.62
309.011	2.38
309.144	1.38
309.277	-10.62
309.409	5.38
309.542	-7.62
309.675	-5.62
309.808	-5.62
309.94	23.38
310.073	-23.62
310.206	-8.62
310.339	-11.62
310.471	-24.62
310.604	14.38
310.737	1.38
310.869	-15.62
311.002	-11.62
311.135	4.38
311.267	-7.62
311.4	1.38
311.533	14.38
311.665	-7.62
311.798	3.38
311.93	-3.62
312.063	5.38
312.196	-3.62
312.328	-5.62
312.461	-15.62
312.593	-7.62
312.726	-4.62
312.859	-2.62
312.991	12.38
313.124	-25.62
313.256	-7.62
313.389	1.38
313.521	-29.62
313.654	-30.62
313.786	-20.62
313.919	-15.62
314.051	7.38
314.184	15.38
314.316	-4.62
314.449	-26.62
314.581	-24.62
314.714	6.38
314.846	17.38
314.978	-2.62
315.111	-5.62
315.243	-6.62
315.376	-1.62
315.508	7.38
315.641	-8.62
315.773	12.38
315.905	10.38
316.038	-10.62
316.17	0.38
316.302	9.38
316.435	3.38
316.567	-17.62
316.699	10.38
316.832	-11.62
316.964	8.38
317.096	-8.62
317.229	-9.62
317.361	-23.62
317.493	-21.62
317.625	-7.62
317.758	5.38
317.89	6.38
318.022	-4.62
318.155	-5.62
318.287	-18.62
318.419	16.38
318.551	14.38
318.683	2.38
318.816	-22.62
318.948	-14.62
319.08	-17.62
319.212	9.38
319.344	5.38
319.477	3.38
319.609	7.38
319.741	26.38
319.873	-3.62
320.005	-1.62
320.137	7.38
320.269	8.38
320.401	-1.62
320.534	-1.62
320.666	-3.62
320.798	-4.62
320.93	5.38
321.062	-13.62
321.194	-25.62
321.326	-7.62
321.458	-6.62
321.59	-11.62
321.722	-16.62
321.854	-24.62
321.986	2.38
322.118	-2.62
322.25	-9.62
322.382	-26.62
322.514	-13.62
322.646	-6.62
322.778	16.38
322.91	-17.62
323.042	-14.62
323.174	-11.62
323.306	-29.62
323.438	-23.62
323.57	-1.62
323.702	-8.62
323.834	-7.62
323.966	-15.62
324.097	1.38
324.229	5.38
324.361	7.38
324.493	20.38
324.625	-2.62
324.757	-4.62
324.889	-21.62
325.021	-8.62
325.152	13.38
325.284	9.38
325.416	0.38
325.548	10.38
325.68	5.38
325.811	17.38
325.943	8.38
326.075	-12.62
326.207	-7.62
326.339	21.38
326.47	-10.62
326.602	0.38
326.734	10.38
326.866	0.38
326.997	-9.62
327.129	-6.62
327.261	-18.62
327.392	-3.62
327.524	-7.62
327.656	8.38
327.787	4.38
327.919	8.38
328.051	-3.62
328.182	26.38
328.314	13.38
328.446	-15.62
328.577	19.38
328.709	-1.62
328.841	-30.62
328.972	-13.62
329.104	2.38
329.235	2.38
329.367	2.38
329.499	17.38
329.63	1.38
329.762	-10.62
329.893	2.38
330.025	3.38
330.156	-18.62
330.288	-0.62
330.419	17.38
330.551	-1.62
330.683	-3.62
330.814	-3.62
330.946	6.38
331.077	-12.62
331.208	-11.62
331.34	-23.62
331.471	-16.62
331.603	-5.62
331.734	-5.62
331.866	12.38
331.997	11.38
332.129	-0.62
332.26	-0.62
332.392	-2.62
332.523	-5.62
332.654	-2.62
332.786	-4.62
332.917	0.38
333.048	11.38
333.18	17.38
333.311	-15.62
333.443	-5.62
333.574	-7.62
333.705	0.38
333.837	-18.62
333.968	0.38
334.099	11.38
334.231	14.38
334.362	-3.62
334.493	1.38
334.624	22.38
334.756	8.38
334.887	2.38
335.018	-11.62
335.15	-2.62
335.281	-6.62
335.412	9.38
335.543	-6.62
335.675	6.38
335.806	-5.62
335.937	3.38
336.068	15.38
336.199	26.38
336.331	-1.62
336.462	5.38
336.593	17.38
336.724	6.38
336.855	-11.62
336.986	-5.62
337.118	16.38
337.249	13.38
337.38	-8.62
337.511	-22.62
337.642	-15.62
337.773	-4.62
337.904	13.38
338.035	9.38
338.166	8.38
338.298	1.38
338.429	9.38
338.56	19.38
338.691	13.38
338.822	7.38
338.953	-4.62
339.084	16.38
339.215	27.38
339.346	2.38
339.477	1.38
339.608	3.38
339.739	-11.62
339.87	-14.62
340.001	0.38
340.132	11.38
340.263	3.38
340.394	1.38
340.525	14.38
340.656	-0.62
340.787	3.38
340.918	13.38
341.049	9.38
341.179	15.38
341.31	-13.62
341.441	4.38
341.572	24.38
341.703	10.38
341.834	-18.62
341.965	13.38
342.096	-20.62
342.227	-7.62
342.357	-8.62
342.488	14.38
342.619	6.38
342.75	20.38
342.881	-7.62
343.012	16.38
343.142	22.38
343.273	-20.62
343.404	14.38
343.535	21.38
343.666	0.38
343.796	18.38
343.927	12.38
344.058	26.38
344.189	17.38
344.319	1.38
344.45	5.38
344.581	-12.62
344.712	-6.62
344.842	-1.62
344.973	-14.62
345.104	6.38
345.234	3.38
345.365	-11.62
345.496	0.38
345.626	-5.62
345.757	12.38
345.888	-7.62
346.018	6.38
346.149	-3.62
346.28	12.38
346.41	-5.62
346.541	6.38
346.672	13.38
346.802	14.38
346.933	11.38
347.063	15.38
347.194	-12.62
347.325	-2.62
347.455	4.38
347.586	3.38
347.716	-0.62
347.847	0.38
347.977	9.38
348.108	27.38
348.238	0.38
348.369	-10.62
348.499	11.38
348.63	4.38
348.76	3.38
348.891	-3.62
349.021	19.38
349.152	7.38
349.282	18.38
349.413	-0.62
349.543	6.38
349.674	-1.62
349.804	6.38
349.935	0.38
350.065	4.38
350.196	-12.62
350.326	-7.62
350.456	0.38
350.587	16.38
350.717	5.38
350.848	-21.62
350.978	-11.62
351.108	-15.62
351.239	-4.62
351.369	-4.62
351.499	-3.62
351.63	1.38
351.76	-2.62
351.89	2.38
352.021	0.38
352.151	-9.62
352.281	7.38
352.412	23.38
352.542	0.38
352.672	10.38
352.803	5.38
352.933	11.38
353.063	-8.62
353.193	9.38
353.324	6.38
353.454	11.38
353.584	33.38
353.714	-9.62
353.845	1.38
353.975	-5.62
354.105	-7.62
354.235	15.38
354.365	-6.62
354.496	-2.62
354.626	9.38
354.756	7.38
354.886	3.38
355.016	10.38
355.146	6.38
355.277	8.38
355.407	-0.62
355.537	3.38
355.667	-4.62
355.797	-1.62
355.927	-6.62
356.057	-0.62
356.187	-3.62
356.318	-17.62
356.448	4.38
356.578	11.38
356.708	7.38
356.838	15.38
356.968	-12.62
357.098	-7.62
357.228	2.38
357.358	3.38
357.488	-12.62
357.618	18.38
357.748	11.38
357.878	8.38
358.008	7.38
358.138	2.38
358.268	6.38
358.398	10.38
358.528	-3.62
358.658	4.38
358.788	8.38
358.918	17.38
359.048	5.38
359.178	21.38
359.308	10.38
359.438	6.38
359.568	15.38
359.698	11.38
359.827	11.38
359.957	7.38
360.087	-6.62
360.217	6.38
360.347	14.38
360.477	0.38
360.607	-0.62
360.737	24.38
360.866	-7.62
360.996	-6.62
361.126	2.38
361.256	17.38
361.386	13.38
361.516	9.38
361.645	-17.62
361.775	1.38
361.905	-21.62
362.035	-5.62
362.165	1.38
362.294	4.38
362.424	22.38
362.554	14.38
362.684	-2.62
362.813	6.38
362.943	11.38
363.073	9.38
363.203	-8.62
363.332	9.38
363.462	-2.62
363.592	-8.62
363.721	-13.62
363.851	-15.62
363.981	26.38
364.111	5.38
364.24	-16.62
364.37	11.38
364.5	22.38
364.629	31.38
364.759	-23.62
364.888	-19.62
365.018	-1.62
365.148	1.38
365.277	1.38
365.407	-6.62
365.537	7.38
365.666	20.38
365.796	-8.62
365.925	13.38
366.055	11.38
366.184	9.38
366.314	3.38
366.444	1.38
366.573	4.38
366.703	-3.62
366.832	6.38
366.962	-0.62
367.091	17.38
367.221	2.38
367.35	-4.62
367.48	42.38
367.609	8.38
367.739	-6.62
367.868	-1.62
367.998	1.38
368.127	18.38
368.257	16.38
368.386	12.38
368.516	2.38
368.645	1.38
368.775	17.38
368.904	11.38
369.033	-19.62
369.163	-11.62
369.292	21.38
369.422	10.38
369.551	1.38
369.68	5.38
369.81	-1.62
369.939	-11.62
370.069	24.38
370.198	-3.62
370.327	-15.62
370.457	-8.62
370.586	-2.62
370.715	-4.62
370.845	-7.62
370.974	15.38
371.103	4.38
371.233	2.38
371.362	14.38
371.491	5.38
371.621	15.38
371.75	-8.62
371.879	-10.62
372.008	-0.62
372.138	8.38
372.267	8.38
372.396	13.38
372.525	-5.62
372.655	3.38
372.784	-2.62
372.913	-1.62
373.042	10.38
373.172	6.38
373.301	-28.62
373.43	-16.62
373.559	1.38
373.688	4.38
373.818	17.38
373.947	25.38
374.076	-14.62
374.205	0.38
374.334	-6.62
374.463	-7.62
374.593	25.38
374.722	21.38
374.851	14.38
374.98	-14.62
375.109	13.38
375.238	16.38
375.367	20.38
375.496	-20.62
375.625	-1.62
375.755	24.38
375.884	24.38
376.013	6.38
376.142	-22.62
376.271	-6.62
376.4	7.38
376.529	15.38
376.658	-11.62
376.787	-0.62
376.916	1.38
377.045	3.38
377.174	11.38
377.303	-1.62
377.432	26.38
377.561	18.38
377.69	-4.62
377.819	19.38
377.948	6.38
378.077	-17.62
378.206	-9.62
378.335	7.38
378.464	-8.62
378.593	32.38
378.722	-0.62
378.851	-21.62
378.98	4.38
379.108	-30.62
379.237	-1.62
379.366	14.38
379.495	1.38
379.624	7.38
379.753	1.38
379.882	2.38
380.011	-12.62
380.14	-10.62
380.268	13.38
380.397	-11.62
380.526	10.38
380.655	-10.62
380.784	-13.62
380.913	-7.62
381.041	6.38
381.17	-21.62
381.299	3.38
381.428	6.38
381.557	11.38
381.685	1.38
381.814	23.38
381.943	0.38
382.072	4.38
382.2	-4.62
382.329	-4.62
382.458	4.38
382.587	24.38
382.715	21.38
382.844	4.38
382.973	4.38
383.102	5.38
383.23	-8.62
383.359	2.38
383.488	29.38
383.616	13.38
383.745	-29.62
383.874	2.38
384.003	-0.62
384.131	-4.62
384.26	-1.62
384.389	-10.62
384.517	-15.62
384.646	-16.62
384.774	-14.62
384.903	24.38
385.032	17.38
385.16	4.38
385.289	2.38
385.418	3.38
385.546	-8.62
385.675	0.38
385.803	-10.62
385.932	5.38
386.06	8.38
386.189	-2.62
386.318	23.38
386.446	-8.62
386.575	-4.62
386.703	16.38
386.832	-3.62
386.96	-18.62
387.089	11.38
387.217	6.38
387.346	2.38
387.474	0.38
387.603	2.38
387.731	-7.62
387.86	12.38
387.988	-0.62
388.117	2.38
388.245	-4.62
388.374	-15.62
388.502	16.38
388.631	-7.62
388.759	3.38
388.888	2.38
389.016	-20.62
389.144	8.38
389.273	-2.62
389.401	-5.62
389.53	-9.62
389.658	21.38
389.786	-6.62
389.915	-33.62
390.043	-19.62
390.172	7.38
390.3	29.38
390.428	25.38
390.557	11.38
390.685	-2.62
390.813	-2.62
390.942	17.38
391.07	-11.62
391.198	-5.62
391.327	0.38
391.455	-1.62
391.583	16.38
391.712	11.38
391.84	10.38
391.968	-18.62
392.096	-17.62
392.225	-7.62
392.353	15.38
392.481	-15.62
392.609	-12.62
392.738	14.38
392.866	6.38
392.994	-15.62
393.122	20.38
393.251	7.38
393.379	-16.62
393.507	-22.62
393.635	-4.62
393.764	-5.62
393.892	11.38
394.02	-4.62
394.148	-11.62
394.276	-2.62
394.404	10.38
394.533	7.38
394.661	-2.62
394.789	15.38
394.917	11.38
395.045	-12.62
395.173	-15.62
395.302	-15.62
395.43	14.38
395.558	19.38
395.686	9.38
395.814	20.38
395.942	-5.62
396.07	-4.62
396.198	2.38
396.326	17.38
396.454	17.38
396.582	-4.62
396.711	-6.62
396.839	2.38
396.967	4.38
397.095	8.38
397.223	3.38
397.351	17.38
397.479	8.38
397.607	25.38
397.735	-16.62
397.863	11.38
397.991	12.38
398.119	-1.62
398.247	18.38
398.375	-9.62
398.503	-3.62
398.631	18.38
398.759	3.38
398.887	-3.62
399.015	-3.62
399.143	3.38
399.271	14.38
399.399	17.38
399.526	-1.62
399.654	5.38
399.782	-8.62
399.91	6.38
400.038	17.38
400.166	-1.62
400.294	10.38
400.422	-14.62
400.55	16.38
400.678	-0.62
400.805	-3.62
400.933	10.38
401.061	9.38
401.189	-6.62
401.317	10.38
401.445	12.38
401.573	30.38
401.7	10.38
401.828	-15.62
401.956	-5.62
402.084	-5.62
402.212	-8.62
402.34	9.38
402.467	16.38
402.595	3.38
402.723	14.38
402.851	15.38
402.978	0.38
403.106	16.38
403.234	17.38
403.362	17.38
403.489	18.38
403.617	18.38
403.745	26.38
403.873	1.38
404	15.38
404.128	18.38
404.256	5.38
404.384	12.38
404.511	22.38
404.639	-1.62
404.767	-13.62
404.894	2.38
405.022	0.38
405.15	12.38
405.277	-5.62
405.405	4.38
405.533	-7.62
405.66	-2.62
405.788	-19.62
405.916	-18.62
406.043	-27.62
406.171	-15.62
406.299	9.38
406.426	5.38
406.554	-1.62
406.681	37.38
406.809	1.38
406.937	5.38
407.064	-3.62
407.192	16.38
407.319	4.38
407.447	-1.62
407.574	19.38
407.702	7.38
407.83	-13.62
407.957	-12.62
408.085	3.38
408.212	21.38
408.34	4.38
408.467	13.38
408.595	8.38
408.722	24.38
408.85	23.38
408.977	-5.62
409.105	-9.62
409.232	4.38
409.36	10.38
409.487	7.38
409.615	0.38
409.742	9.38
409.87	26.38
409.997	30.38
410.125	18.38
410.252	52.38
410.379	32.38
410.507	38.38
410.634	0.38
410.762	-5.62
410.889	11.38
411.017	-4.62
411.144	22.38
411.271	-0.62
411.399	13.38
411.526	5.38
411.653	10.38
411.781	28.38
411.908	21.38
412.036	-5.62
412.163	15.38
412.29	16.38
412.418	15.38
412.545	16.38
412.672	3.38
412.8	22.38
412.927	17.38
413.054	33.38
413.182	12.38
413.309	6.38
413.436	-10.62
413.564	-2.62
413.691	2.38
413.818	27.38
413.945	-0.62
414.073	-6.62
414.2	-5.62
414.327	14.38
414.454	-1.62
414.582	3.38
414.709	-1.62
414.836	-10.62
414.963	-8.62
415.091	4.38
415.218	-0.62
415.345	-4.62
415.472	-13.62
415.6	-3.62
415.727	-2.62
415.854	13.38
415.981	-4.62
416.108	6.38
416.236	10.38
416.363	25.38
416.49	10.38
416.617	10.38
416.744	14.38
416.871	-1.62
416.998	4.38
417.126	19.38
417.253	1.38
417.38	-6.62
417.507	2.38
417.634	6.38
417.761	15.38
417.888	10.38
418.015	-2.62
418.143	-6.62
418.27	22.38
418.397	3.38
418.524	-5.62
418.651	-3.62
418.778	10.38
418.905	28.38
419.032	2.38
419.159	-8.62
419.286	29.38
419.413	14.38
419.54	5.38
419.667	-5.62
419.794	1.38
419.921	-1.62
420.048	-20.62
420.175	10.38
420.302	0.38
420.429	0.38
420.556	7.38
420.683	-21.62
420.81	-14.62
420.937	6.38
421.064	8.38
421.191	-2.62
421.318	26.38
421.445	25.38
421.572	-0.62
421.699	24.38
421.826	24.38
421.953	18.38
422.08	-2.62
422.207	-10.62
422.334	-6.62
422.461	19.38
422.588	15.38
422.714	16.38
422.841	14.38
422.968	13.38
423.095	2.38
423.222	-13.62
423.349	-4.62
423.476	10.38
423.603	-6.62
423.729	-1.62
423.856	-1.62
423.983	17.38
424.11	-4.62
424.237	6.38
424.364	6.38
424.491	7.38
424.617	-0.62
424.744	-9.62
424.871	4.38
424.998	0.38
425.125	-0.62
425.251	8.38
425.378	-2.62
425.505	-0.62
425.632	11.38
425.758	-12.62
425.885	10.38
426.012	2.38
426.139	29.38
426.266	-0.62
426.392	2.38
426.519	15.38
426.646	2.38
426.772	22.38
426.899	8.38
427.026	-0.62
427.153	3.38
427.279	17.38
427.406	15.38
427.533	29.38
427.659	4.38
427.786	2.38
427.913	16.38
428.039	3.38
428.166	5.38
428.293	-0.62
428.419	12.38
428.546	-5.62
428.673	-7.62
428.799	-11.62
428.926	8.38
429.053	32.38
429.179	25.38
429.306	14.38
429.433	17.38
429.559	15.38
429.686	0.38
429.812	-5.62
429.939	17.38
430.066	7.38
430.192	2.38
430.319	8.38
430.445	8.38
430.572	9.38
430.699	-4.62
430.825	-11.62
430.952	18.38
431.078	8.38
431.205	11.38
431.331	3.38
431.458	0.38
431.584	6.38
431.711	-9.62
431.837	1.38
431.964	-9.62
432.09	4.38
432.217	-12.62
432.343	-10.62
432.47	21.38
432.596	4.38
432.723	-11.62
432.849	-11.62
432.976	0.38
433.102	3.38
433.229	1.38
433.355	8.38
433.482	77.38
433.608	151.38
433.735	154.38
433.861	126.38
433.987	124.38
434.114	226.38
434.24	185.38
434.367	65.38
434.493	8.38
434.62	17.38
434.746	34.38
434.872	12.38
434.999	10.38
435.125	2.38
435.252	-14.62
435.378	5.38
435.504	-4.62
435.631	21.38
435.757	1.38
435.883	1.38
436.01	6.38
436.136	4.38
436.262	12.38
436.389	8.38
436.515	17.38
436.641	6.38
436.768	12.38
436.894	18.38
437.02	10.38
437.147	23.38
437.273	13.38
437.399	2.38
437.526	8.38
437.652	20.38
437.778	10.38
437.904	-14.62
438.031	3.38
438.157	-5.62
438.283	9.38
438.409	-16.62
438.536	-8.62
438.662	17.38
438.788	19.38
438.914	21.38
439.041	10.38
439.167	36.38
439.293	7.38
439.419	4.38
439.546	19.38
439.672	-2.62
439.798	10.38
439.924	8.38
440.05	10.38
440.177	9.38
440.303	11.38
440.429	3.38
440.555	-0.62
440.681	26.38
440.807	15.38
440.934	-0.62
441.06	3.38
441.186	-4.62
441.312	2.38
441.438	16.38
441.564	2.38
441.69	21.38
441.816	2.38
441.943	0.38
442.069	20.38
442.195	21.38
442.321	1.38
442.447	-19.62
442.573	7.38
442.699	-5.62
442.825	-2.62
442.951	0.38
443.077	11.38
443.203	29.38
443.33	13.38
443.456	-10.62
443.582	-1.62
443.708	-0.62
443.834	6.38
443.96	17.38
444.086	21.38
444.212	42.38
444.338	18.38
444.464	16.38
444.59	23.38
444.716	9.38
444.842	11.38
444.968	-12.62
445.094	5.38
445.22	-6.62
445.346	-21.62
445.472	0.38
445.598	1.38
445.724	3.38
445.85	9.38
445.976	9.38
446.102	19.38
446.228	17.38
446.354	8.38
446.48	6.38
446.605	7.38
446.731	18.38
446.857	6.38
446.983	13.38
447.109	5.38
447.235	8.38
447.361	-5.62
447.487	-5.62
447.613	0.38
447.739	10.38
447.865	0.38
447.99	2.38
448.116	-2.62
448.242	8.38
448.368	-3.62
448.494	-2.62
448.62	13.38
448.746	11.38
448.872	10.38
448.997	-5.62
449.123	5.38
449.249	9.38
449.375	5.38
449.501	9.38
449.627	8.38
449.752	26.38
449.878	1.38
450.004	-3.62
450.13	-0.62
450.256	-5.62
450.381	14.38
450.507	22.38
450.633	5.38
450.759	34.38
450.884	1.38
451.01	16.38
451.136	1.38
451.262	16.38
451.388	20.38
451.513	-11.62
451.639	15.38
451.765	-4.62
451.89	16.38
452.016	5.38
452.142	3.38
452.268	12.38
452.393	15.38
452.519	-5.62
452.645	5.38
452.771	21.38
452.896	2.38
453.022	-10.62
453.148	19.38
453.273	23.38
453.399	-0.62
453.525	-0.62
453.65	10.38
453.776	16.38
453.902	6.38
454.027	7.38
454.153	7.38
454.279	7.38
454.404	7.38
454.53	25.38
454.656	25.38
454.781	7.38
454.907	-10.62
455.032	12.38
455.158	29.38
455.284	26.38
455.409	5.38
455.535	7.38
455.66	12.38
455.786	13.38
455.912	10.38
456.037	-1.62
456.163	-5.62
456.288	-2.62
456.414	-7.62
456.539	8.38
456.665	16.38
456.791	6.38
456.916	1.38
457.042	-0.62
457.167	-10.62
457.293	7.38
457.418	-10.62
457.544	0.38
457.669	2.38
457.795	2.38
457.92	27.38
458.046	12.38
458.171	1.38
458.297	-9.62
458.422	9.38
458.548	17.38
458.673	-3.62
458.799	-8.62
458.924	-10.62
459.05	13.38
459.175	-9.62
459.301	-5.62
459.426	22.38
459.552	24.38
459.677	17.38
459.803	20.38
459.928	9.38
460.053	13.38
460.179	3.38
460.304	15.38
460.43	-18.62
460.555	23.38
460.681	12.38
460.806	22.38
460.931	14.38
461.057	5.38
461.182	10.38
461.308	41.38
461.433	8.38
461.558	10.38
461.684	14.38
461.809	22.38
461.934	15.38
462.06	27.38
462.185	-11.62
462.311	-3.62
462.436	1.38
462.561	14.38
462.687	14.38
462.812	5.38
462.937	-11.62
463.063	-8.62
463.188	-11.62
463.313	-3.62
463.439	6.38
463.564	-9.62
463.689	10.38
463.814	-5.62
463.94	5.38
464.065	20.38
464.19	13.38
464.316	1.38
464.441	2.38
464.566	-6.62
464.692	24.38
464.817	5.38
464.942	2.38
465.067	-4.62
465.193	-16.62
465.318	2.38
465.443	7.38
465.568	10.38
465.694	-11.62
465.819	20.38
465.944	-1.62
466.069	9.38
466.194	17.38
466.32	21.38
466.445	0.38
466.57	-13.62
466.695	13.38
466.82	18.38
466.946	16.38
467.071	11.38
467.196	-5.62
467.321	8.38
467.446	-15.62
467.572	10.38
467.697	-12.62
467.822	8.38
467.947	11.38
468.072	1.38
468.197	-5.62
468.323	3.38
468.448	8.38
468.573	-5.62
468.698	-2.62
468.823	12.38
468.948	5.38
469.073	12.38
469.198	2.38
469.324	0.38
469.449	2.38
469.574	15.38
469.699	1.38
469.824	16.38
469.949	15.38
470.074	-0.62
470.199	40.38
470.324	44.38
470.449	30.38
470.574	14.38
470.7	4.38
470.825	13.38
470.95	25.38
471.075	2.38
471.2	-2.62
471.325	22.38
471.45	-5.62
471.575	-9.62
471.7	23.38
471.825	2.38
471.95	-3.62
472.075	6.38
472.2	16.38
472.325	14.38
472.45	-1.62
472.575	10.38
472.7	11.38
472.825	14.38
472.95	10.38
473.075	20.38
473.2	-7.62
473.325	-6.62
473.45	-4.62
473.575	1.38
473.7	-7.62
473.825	3.38
473.95	6.38
474.075	10.38
474.2	10.38
474.325	13.38
474.45	28.38
474.574	3.38
474.699	18.38
474.824	16.38
474.949	-4.62
475.074	9.38
475.199	16.38
475.324	35.38
475.449	5.38
475.574	15.38
475.699	29.38
475.824	4.38
475.949	19.38
476.073	6.38
476.198	11.38
476.323	12.38
476.448	3.38
476.573	7.38
476.698	18.38
476.823	20.38
476.947	26.38
477.072	19.38
477.197	18.38
477.322	5.38
477.447	-17.62
477.572	-3.62
477.697	16.38
477.821	9.38
477.946	17.38
478.071	6.38
478.196	21.38
478.321	7.38
478.445	1.38
478.57	2.38
478.695	20.38
478.82	30.38
478.945	4.38
479.069	8.38
479.194	6.38
479.319	17.38
479.444	15.38
479.569	-5.62
479.693	15.38
479.818	4.38
479.943	28.38
480.068	5.38
480.192	24.38
480.317	2.38
480.442	9.38
480.567	-4.62
480.691	10.38
480.816	3.38
480.941	12.38
481.066	24.38
481.19	22.38
481.315	14.38
481.44	13.38
481.564	-7.62
481.689	29.38
481.814	14.38
481.938	17.38
482.063	-1.62
482.188	8.38
482.313	33.38
482.437	-0.62
482.562	12.38
482.687	23.38
482.811	25.38
482.936	15.38
483.061	34.38
483.185	15.38
483.31	4.38
483.435	8.38
483.559	12.38
483.684	2.38
483.808	25.38
483.933	18.38
484.058	15.38
484.182	3.38
484.307	18.38
484.432	13.38
484.556	19.38
484.681	14.38
484.805	23.38
484.93	17.38
485.055	31.38
485.179	92.38
485.304	123.38
485.428	365.38
485.553	1248.38
485.678	1738.38
485.802	1638.38
485.927	1765.38
486.051	2604.38
486.176	1588.38
486.3	427.38
486.425	141.38
486.549	71.38
486.674	64.38
486.799	31.38
486.923	25.38
487.048	6.38
487.172	13.38
487.297	14.38
487.421	22.38
487.546	-1.62
487.67	39.38
487.795	6.38
487.919	-5.62
488.044	16.38
488.168	15.38
488.293	8.38
488.417	-1.62
488.542	29.38
488.666	22.38
488.791	18.38
488.915	16.38
489.04	27.38
489.164	33.38
489.289	22.38
489.413	-4.62
489.538	15.38
489.662	34.38
489.786	14.38
489.911	26.38
490.035	33.38
490.16	8.38
490.284	-4.62
490.409	-5.62
490.533	32.38
490.658	28.38
490.782	11.38
490.906	8.38
491.031	1.38
491.155	-1.62
491.28	12.38
491.404	5.38
491.528	21.38
491.653	7.38
491.777	10.38
491.902	-7.62
492.026	14.38
492.15	12.38
492.275	12.38
492.399	10.38
492.524	15.38
492.648	13.38
492.772	17.38
492.897	15.38
493.021	8.38
493.145	21.38
493.27	25.38
493.394	13.38
493.518	4.38
493.643	-8.62
493.767	21.38
493.891	9.38
494.016	9.38
494.14	-2.62
494.264	-4.62
494.389	21.38
494.513	5.38
494.637	6.38
494.762	25.38
494.886	30.38
495.01	11.38
495.134	11.38
495.259	15.38
495.383	12.38
495.507	19.38
495.632	24.38
495.756	32.38
495.88	14.38
496.004	3.38
496.129	3.38
496.253	29.38
496.377	16.38
496.501	29.38
496.626	10.38
496.75	9.38
496.874	-0.62
496.998	-5.62
497.123	6.38
497.247	1.38
497.371	-1.62
497.495	18.38
497.62	10.38
497.744	16.38
497.868	8.38
497.992	14.38
498.116	-5.62
498.241	17.38
498.365	-4.62
498.489	9.38
498.613	36.38
498.737	23.38
498.862	2.38
498.986	-2.62
499.11	5.38
499.234	20.38
499.358	8.38
499.482	13.38
499.607	10.38
499.731	23.38
499.855	20.38
499.979	5.38
500.103	20.38
500.227	28.38
500.351	12.38
500.476	8.38
500.6	11.38
500.724	29.38
500.848	-5.62
500.972	7.38
501.096	10.38
501.22	31.38
501.344	2.38
501.469	3.38
501.593	8.38
501.717	0.38
501.841	4.38
501.965	1.38
502.089	-5.62
502.213	27.38
502.337	18.38
502.461	5.38
502.585	10.38
502.709	33.38
502.834	6.38
502.958	12.38
503.082	8.38
503.206	20.38
503.33	24.38
503.454	12.38
503.578	12.38
503.702	5.38
503.826	-6.62
503.95	11.38
504.074	3.38
504.198	15.38
504.322	4.38
504.446	12.38
504.57	16.38
504.694	20.38
504.818	10.38
504.942	11.38
505.066	10.38
505.19	19.38
505.314	9.38
505.438	-0.62
505.562	6.38
505.686	26.38
505.81	14.38
505.934	22.38
506.058	9.38
506.182	14.38
506.306	12.38
506.43	-5.62
506.554	6.38
506.678	10.38
506.802	13.38
506.926	13.38
507.05	25.38
507.174	16.38
507.298	9.38
507.422	9.38
507.546	8.38
507.67	26.38
507.794	-9.62
507.918	-7.62
508.042	-4.62
508.165	0.38
508.289	-4.62
508.413	0.38
508.537	-8.62
508.661	18.38
508.785	-18.62
508.909	17.38
509.033	24.38
509.157	8.38
509.281	9.38
509.405	5.38
509.528	26.38
509.652	23.38
509.776	9.38
509.9	24.38
510.024	20.38
510.148	1.38
510.272	-4.62
510.396	-0.62
510.519	2.38
510.643	13.38
510.767	8.38
510.891	15.38
511.015	7.38
511.139	11.38
511.263	42.38
511.386	6.38
511.51	14.38
511.634	6.38
511.758	-14.62
511.882	-19.62
512.006	14.38
512.129	12.38
512.253	33.38
512.377	20.38
512.501	21.38
512.625	15.38
512.748	13.38
512.872	-2.62
512.996	17.38
513.12	5.38
513.244	9.38
513.367	-0.62
513.491	17.38
513.615	14.38
513.739	8.38
513.862	14.38
513.986	12.38
514.11	22.38
514.234	-13.62
514.358	26.38
514.481	18.38
514.605	7.38
514.729	3.38
514.853	7.38
514.976	-11.62
515.1	1.38
515.224	30.38
515.348	12.38
515.471	7.38
515.595	5.38
515.719	-5.62
515.842	25.38
515.966	6.38
516.09	25.38
516.214	0.38
516.337	34.38
516.461	10.38
516.585	23.38
516.708	12.38
516.832	7.38
516.956	8.38
517.08	5.38
517.203	2.38
517.327	11.38
517.451	29.38
517.574	24.38
517.698	1.38
517.822	6.38
517.945	16.38
518.069	35.38
518.193	42.38
518.316	34.38
518.44	30.38
518.564	30.38
518.687	26.38
518.811	34.38
518.935	36.38
519.058	10.38
519.182	34.38
519.306	41.38
519.429	8.38
519.553	68.38
519.676	32.38
519.8	10.38
519.924	9.38
520.047	12.38
520.171	4.38
520.294	6.38
520.418	17.38
520.542	12.38
520.665	19.38
520.789	-2.62
520.913	-3.62
521.036	-6.62
521.16	-2.62
521.283	-1.62
521.407	2.38
521.53	6.38
521.654	-11.62
521.778	7.38
521.901	15.38
522.025	11.38
522.148	-1.62
522.272	1.38
522.395	2.38
522.519	21.38
522.643	2.38
522.766	-1.62
522.89	-5.62
523.013	14.38
523.137	-10.62
523.26	1.38
523.384	17.38
523.507	14.38
523.631	-0.62
523.754	7.38
523.878	23.38
524.002	21.38
524.125	-2.62
524.249	0.38
524.372	19.38
524.496	24.38
524.619	6.38
524.743	10.38
524.866	4.38
524.99	3.38
525.113	3.38
525.237	10.38
525.36	26.38
525.484	1.38
525.607	-11.62
525.731	-20.62
525.854	5.38
525.978	19.38
526.101	0.38
526.224	12.38
526.348	13.38
526.471	25.38
526.595	15.38
526.718	8.38
526.842	12.38
526.965	17.38
527.089	7.38
527.212	1.38
527.336	-10.62
527.459	11.38
527.582	-7.62
527.706	16.38
527.829	10.38
527.953	9.38
528.076	-11.62
528.2	0.38
528.323	16.38
528.446	32.38
528.57	7.38
528.693	8.38
528.817	9.38
528.94	9.38
529.064	15.38
529.187	8.38
529.31	15.38
529.434	6.38
529.557	-11.62
529.68	13.38
529.804	-9.62
529.927	7.38
530.051	0.38
530.174	-5.62
530.297	9.38
530.421	16.38
530.544	23.38
530.668	4.38
530.791	10.38
530.914	18.38
531.038	-1.62
531.161	-0.62
531.284	-14.62
531.408	20.38
531.531	-5.62
531.654	-3.62
531.778	6.38
531.901	6.38
532.024	10.38
532.148	13.38
532.271	16.38
532.394	0.38
532.518	9.38
532.641	42.38
532.764	26.38
532.888	11.38
533.011	-6.62
533.134	-15.62
533.258	18.38
533.381	9.38
533.504	-3.62
533.628	-5.62
533.751	22.38
533.874	-7.62
533.997	-5.62
534.121	3.38
534.244	-11.62
534.367	1.38
534.491	-6.62
534.614	-0.62
534.737	9.38
534.86	11.38
534.984	0.38
535.107	9.38
535.23	20.38
535.354	-0.62
535.477	1.38
535.6	14.38
535.723	20.38
535.847	6.38
535.97	-22.62
536.093	-7.62
536.216	-15.62
536.34	10.38
536.463	0.38
536.586	15.38
536.709	10.38
536.833	14.38
536.956	-4.62
537.079	-2.62
537.202	0.38
537.325	-13.62
537.449	-18.62
537.572	29.38
537.695	-6.62
537.818	17.38
537.941	-0.62
538.065	13.38
538.188	2.38
538.311	35.38
538.434	15.38
538.558	23.38
538.681	20.38
538.804	30.38
538.927	21.38
539.05	7.38
539.173	2.38
539.297	-2.62
539.42	-1.62
539.543	25.38
539.666	28.38
539.789	6.38
539.913	6.38
540.036	-6.62
540.159	4.38
540.282	-8.62
540.405	6.38
540.528	7.38
540.651	35.38
540.775	13.38
540.898	-0.62
541.021	-8.62
541.144	20.38
541.267	19.38
541.39	0.38
541.513	15.38
541.637	-2.62
541.76	14.38
541.883	-9.62
542.006	4.38
542.129	18.38
542.252	12.38
542.375	10.38
542.498	2.38
542.622	5.38
542.745	11.38
542.868	-12.62
542.991	-2.62
543.114	23.38
543.237	16.38
543.36	27.38
543.483	6.38
543.606	12.38
543.73	10.38
543.853	-0.62
543.976	1.38
544.099	26.38
544.222	16.38
544.345	1.38
544.468	6.38
544.591	6.38
544.714	10.38
544.837	24.38
544.96	0.38
545.083	9.38
545.206	2.38
545.329	18.38
545.453	0.38
545.576	8.38
545.699	5.38
545.822	10.38
545.945	18.38
546.068	-0.62
546.191	12.38
546.314	-0.62
546.437	28.38
546.56	13.38
546.683	26.38
546.806	25.38
546.929	6.38
547.052	1.38
547.175	-5.62
547.298	35.38
547.421	-0.62
547.544	-6.62
547.667	5.38
547.79	14.38
547.913	-11.62
548.036	-24.62
548.159	10.38
548.282	11.38
548.405	-3.62
548.528	-3.62
548.651	5.38
548.774	1.38
548.897	9.38
549.02	14.38
549.143	15.38
549.266	6.38
549.389	16.38
549.512	11.38
549.635	18.38
549.758	29.38
549.881	2.38
550.004	10.38
550.127	10.38
550.25	3.38
550.373	-13.62
550.496	12.38
550.619	6.38
550.742	-1.62
550.865	-18.62
550.988	1.38
551.111	28.38
551.234	28.38
551.356	-10.62
551.479	-11.62
551.602	19.38
551.725	25.38
551.848	36.38
551.971	37.38
552.094	19.38
552.217	-0.62
552.34	7.38
552.463	-11.62
552.586	5.38
552.709	19.38
552.832	2.38
552.955	8.38
553.077	9.38
553.2	9.38
553.323	1.38
553.446	13.38
553.569	-11.62
553.692	3.38
553.815	16.38
553.938	8.38
554.061	8.38
554.184	-3.62
554.306	0.38
554.429	-6.62
554.552	10.38
554.675	-4.62
554.798	-2.62
554.921	9.38
555.044	4.38
555.167	3.38
555.29	-4.62
555.412	5.38
555.535	11.38
555.658	2.38
555.781	21.38
555.904	24.38
556.027	14.38
556.15	11.38
556.272	18.38
556.395	20.38
556.518	4.38
556.641	0.38
556.764	14.38
556.887	6.38
557.01	4.38
557.132	3.38
557.255	13.38
557.378	20.38
557.501	2.38
557.624	2.38
557.747	-0.62
557.869	10.38
557.992	9.38
558.115	2.38
558.238	10.38
558.361	16.38
558.483	20.38
558.606	10.38
558.729	-10.62
558.852	18.38
558.975	26.38
559.098	17.38
559.22	3.38
559.343	13.38
559.466	3.38
559.589	14.38
559.712	7.38
559.834	15.38
559.957	7.38
560.08	1.38
560.203	14.38
560.325	16.38
560.448	28.38
560.571	17.38
560.694	-10.62
560.817	9.38
560.939	7.38
561.062	9.38
561.185	4.38
561.308	11.38
561.43	6.38
561.553	5.38
561.676	-2.62
561.799	11.38
561.921	-0.62
562.044	-15.62
562.167	5.38
562.29	19.38
562.413	36.38
562.535	14.38
562.658	-1.62
562.781	-2.62
562.903	6.38
563.026	3.38
563.149	21.38
563.272	5.38
563.394	20.38
563.517	5.38
563.64	-0.62
563.763	1.38
563.885	5.38
564.008	12.38
564.131	8.38
564.254	-3.62
564.376	13.38
564.499	-25.62
564.622	2.38
564.744	15.38
564.867	8.38
564.99	-3.62
565.113	22.38
565.235	-0.62
565.358	-0.62
565.481	-6.62
565.603	10.38
565.726	-0.62
565.849	23.38
565.971	19.38
566.094	-7.62
566.217	16.38
566.34	3.38
566.462	8.38
566.585	-1.62
566.708	16.38
566.83	8.38
566.953	15.38
567.076	4.38
567.198	15.38
567.321	-26.62
567.444	2.38
567.566	3.38
567.689	-11.62
567.812	-9.62
567.934	-13.62
568.057	-3.62
568.18	37.38
568.302	9.38
568.425	-7.62
568.548	2.38
568.67	11.38
568.793	13.38
568.916	5.38
569.038	4.38
569.161	8.38
569.283	9.38
569.406	-3.62
569.529	-0.62
569.651	-11.62
569.774	-1.62
569.897	-0.62
570.019	22.38
570.142	24.38
570.265	4.38
570.387	-9.62
570.51	22.38
570.632	22.38
570.755	14.38
570.878	-13.62
571	7.38
571.123	12.38
571.246	30.38
571.368	5.38
571.491	5.38
571.613	-11.62
571.736	-2.62
571.859	13.38
571.981	-1.62
572.104	14.38
572.226	24.38
572.349	-3.62
572.472	-4.62
572.594	12.38
572.717	8.38
572.839	-13.62
572.962	3.38
573.085	-15.62
573.207	-1.62
573.33	11.38
573.452	18.38
573.575	12.38
573.697	6.38
573.82	4.38
573.943	9.38
574.065	0.38
574.188	12.38
574.31	28.38
574.433	22.38
574.555	17.38
574.678	-3.62
574.801	6.38
574.923	-6.62
575.046	5.38
575.168	9.38
575.291	-2.62
575.413	-2.62
575.536	20.38
575.659	18.38
575.781	-0.62
575.904	12.38
576.026	17.38
576.149	9.38
576.271	18.38
576.394	8.38
576.516	6.38
576.639	4.38
576.761	8.38
576.884	-2.62
577.007	10.38
577.129	0.38
577.252	-4.62
577.374	14.38
577.497	7.38
577.619	0.38
577.742	-0.62
577.864	3.38
577.987	13.38
578.109	30.38
578.232	10.38
578.354	23.38
578.477	-6.62
578.599	-8.62
578.722	1.38
578.844	15.38
578.967	6.38
579.089	5.38
579.212	-7.62
579.334	18.38
579.457	18.38
579.579	6.38
579.702	18.38
579.824	20.38
579.947	-13.62
580.069	-3.62
580.192	-15.62
580.314	19.38
580.437	17.38
580.559	37.38
580.682	18.38
580.804	0.38
580.927	1.38
581.049	40.38
581.172	25.38
581.294	10.38
581.417	17.38
581.539	17.38
581.662	17.38
581.784	29.38
581.907	17.38
582.029	10.38
582.152	-11.62
582.274	7.38
582.396	1.38
582.519	4.38
582.641	-8.62
582.764	0.38
582.886	22.38
583.009	-1.62
583.131	10.38
583.254	-2.62
583.376	22.38
583.499	14.38
583.621	2.38
583.743	14.38
583.866	1.38
583.988	-0.62
584.111	13.38
584.233	8.38
584.356	6.38
584.478	-6.62
584.601	-8.62
584.723	17.38
584.845	23.38
584.968	-11.62
585.09	-3.62
585.213	14.38
585.335	-10.62
585.458	-4.62
585.58	-1.62
585.702	9.38
585.825	16.38
585.947	21.38
586.07	-13.62
586.192	-1.62
586.315	22.38
586.437	-5.62
586.559	-0.62
586.682	0.38
586.804	8.38
586.927	2.38
587.049	-6.62
587.171	10.38
587.294	13.38
587.416	28.38
587.539	17.38
587.661	1.38
587.783	-2.62
587.906	5.38
588.028	7.38
588.151	6.38
588.273	30.38
588.395	9.38
588.518	-3.62
588.64	8.38
588.763	12.38
588.885	10.38
589.007	24.38
589.13	-10.62
589.252	-11.62
589.375	-6.62
589.497	-6.62
589.619	10.38
589.742	10.38
589.864	14.38
589.986	4.38
590.109	-9.62
590.231	1.38
590.354	1.38
590.476	-20.62
590.598	0.38
590.721	6.38
590.843	-1.62
590.965	14.38
591.088	-8.62
591.21	-6.62
591.332	-4.62
591.455	-6.62
591.577	-11.62
591.7	-1.62
591.822	-9.62
591.944	8.38
592.067	5.38
592.189	4.38
592.311	8.38
592.434	11.38
592.556	15.38
592.678	1.38
592.801	5.38
592.923	15.38
593.045	9.38
593.168	5.38
593.29	5.38
593.412	11.38
593.535	4.38
593.657	9.38
593.779	3.38
593.902	5.38
594.024	25.38
594.146	31.38
594.269	-0.62
594.391	-2.62
594.513	18.38
594.636	-9.62
594.758	9.38
594.88	14.38
595.003	21.38
595.125	6.38
595.247	18.38
595.37	17.38
595.492	-1.62
595.614	10.38
595.737	4.38
595.859	9.38
595.981	19.38
596.104	9.38
596.226	3.38
596.348	0.38
596.471	7.38
596.593	20.38
596.715	-7.62
596.838	6.38
596.96	-5.62
597.082	13.38
597.204	8.38
597.327	16.38
597.449	-1.62
597.571	16.38
597.694	28.38
597.816	1.38
597.938	5.38
598.061	6.38
598.183	-5.62
598.305	13.38
598.427	9.38
598.55	6.38
598.672	28.38
598.794	9.38
598.917	3.38
599.039	30.38
599.161	9.38
599.283	-7.62
599.406	27.38
599.528	19.38
599.65	30.38
599.773	10.38
599.895	27.38
600.017	23.38
600.139	10.38
600.262	-2.62
600.384	6.38
600.506	11.38
600.628	18.38
600.751	7.38
600.873	9.38
600.995	-1.62
601.118	8.38
601.24	8.38
601.362	26.38
601.484	5.38
601.607	21.38
601.729	9.38
601.851	-6.62
601.973	10.38
602.096	23.38
602.218	21.38
602.34	12.38
602.462	22.38
602.585	20.38
602.707	9.38
602.829	22.38
602.951	0.38
603.074	6.38
603.196	17.38
603.318	-14.62
603.44	21.38
603.563	3.38
603.685	-9.62
603.807	14.38
603.929	17.38
604.052	-1.62
604.174	22.38
604.296	22.38
604.418	12.38
604.541	25.38
604.663	10.38
604.785	14.38
604.907	14.38
605.03	8.38
605.152	32.38
605.274	2.38
605.396	19.38
605.519	11.38
605.641	-1.62
605.763	2.38
605.885	14.38
606.008	10.38
606.13	17.38
606.252	15.38
606.374	-12.62
606.496	2.38
606.619	5.38
606.741	-1.62
606.863	28.38
606.985	17.38
607.108	20.38
607.23	-2.62
607.352	-2.62
607.474	10.38
607.596	13.38
607.719	4.38
607.841	22.38
607.963	1.38
608.085	8.38
608.207	34.38
608.33	4.38
608.452	14.38
608.574	-2.62
608.696	17.38
608.819	10.38
608.941	-6.62
609.063	-6.62
609.185	9.38
609.307	14.38
609.43	6.38
609.552	21.38
609.674	-10.62
609.796	12.38
609.918	6.38
610.041	1.38
610.163	19.38
610.285	18.38
610.407	10.38
610.529	-3.62
610.652	1.38
610.774	22.38
610.896	13.38
611.018	0.38
611.14	-8.62
611.263	-17.62
611.385	-9.62
611.507	-11.62
611.629	2.38
611.751	21.38
611.873	39.38
611.996	21.38
612.118	12.38
612.24	-0.62
612.362	-2.62
612.484	20.38
612.607	11.38
612.729	31.38
612.851	21.38
612.973	17.38
613.095	5.38
613.218	18.38
613.34	14.38
613.462	30.38
613.584	18.38
613.706	1.38
613.828	15.38
613.951	-9.62
614.073	5.38
614.195	-13.62
614.317	12.38
614.439	1.38
614.561	14.38
614.684	12.38
614.806	25.38
614.928	19.38
615.05	8.38
615.172	26.38
615.294	27.38
615.417	9.38
615.539	-9.62
615.661	22.38
615.783	22.38
615.905	19.38
616.027	62.38
616.15	103.38
616.272	69.38
616.394	51.38
616.516	32.38
616.638	5.38
616.76	-3.62
616.883	13.38
617.005	14.38
617.127	17.38
617.249	-0.62
617.371	12.38
617.493	-0.62
617.615	20.38
617.738	8.38
617.86	9.38
617.982	12.38
618.104	19.38
618.226	5.38
618.348	-11.62
618.471	1.38
618.593	-2.62
618.715	-11.62
618.837	6.38
618.959	12.38
619.081	16.38
619.203	17.38
619.326	5.38
619.448	9.38
619.57	11.38
619.692	4.38
619.814	22.38
619.936	14.38
620.058	6.38
620.181	28.38
620.303	3.38
620.425	12.38
620.547	0.38
620.669	-5.62
620.791	-2.62
620.913	0.38
621.036	14.38
621.158	15.38
621.28	7.38
621.402	9.38
621.524	1.38
621.646	8.38
621.768	0.38
621.891	-24.62
622.013	2.38
622.135	-0.62
622.257	0.38
622.379	-9.62
622.501	-8.62
622.623	9.38
622.745	4.38
622.868	14.38
622.99	-2.62
623.112	6.38
623.234	-3.62
623.356	7.38
623.478	0.38
623.6	20.38
623.722	10.38
623.845	-4.62
623.967	4.38
624.089	21.38
624.211	2.38
624.333	15.38
624.455	11.38
624.577	-13.62
624.699	16.38
624.822	-0.62
624.944	11.38
625.066	17.38
625.188	-17.62
625.31	14.38
625.432	21.38
625.554	5.38
625.676	18.38
625.799	-10.62
625.921	1.38
626.043	-3.62
626.165	12.38
626.287	-11.62
626.409	22.38
626.531	4.38
626.653	14.38
626.775	8.38
626.898	12.38
627.02	0.38
627.142	0.38
627.264	7.38
627.386	16.38
627.508	-3.62
627.63	14.38
627.752	14.38
627.874	9.38
627.997	18.38
628.119	12.38
628.241	11.38
628.363	12.38
628.485	4.38
628.607	4.38
628.729	-6.62
628.851	9.38
628.973	-1.62
629.096	-3.62
629.218	-4.62
629.34	17.38
629.462	-6.62
629.584	-6.62
629.706	1.38
629.828	19.38
629.95	12.38
630.072	6.38
630.195	7.38
630.317	16.38
630.439	11.38
630.561	19.38
630.683	6.38
630.805	0.38
630.927	15.38
631.049	17.38
631.171	0.38
631.293	9.38
631.416	-5.62
631.538	5.38
631.66	9.38
631.782	24.38
631.904	22.38
632.026	-3.62
632.148	0.38
632.27	-12.62
632.392	26.38
632.514	2.38
632.637	0.38
632.759	3.38
632.881	-5.62
633.003	-6.62
633.125	1.38
633.247	-6.62
633.369	4.38
633.491	12.38
633.613	9.38
633.735	5.38
633.858	-17.62
633.98	1.38
634.102	0.38
634.224	1.38
634.346	2.38
634.468	0.38
634.59	8.38
634.712	12.38
634.834	0.38
634.956	-13.62
635.078	0.38
635.201	-7.62
635.323	2.38
635.445	-1.62
635.567	-14.62
635.689	11.38
635.811	29.38
635.933	-2.62
636.055	-7.62
636.177	2.38
636.299	18.38
636.421	-0.62
636.544	-17.62
636.666	-3.62
636.788	17.38
636.91	13.38
637.032	3.38
637.154	12.38
637.276	24.38
637.398	31.38
637.52	14.38
637.642	7.38
637.764	16.38
637.887	4.38
638.009	-5.62
638.131	-0.62
638.253	-1.62
638.375	-2.62
638.497	21.38
638.619	-3.62
638.741	16.38
638.863	-21.62
638.985	8.38
639.107	5.38
639.23	-5.62
639.352	29.38
639.474	6.38
639.596	7.38
639.718	11.38
639.84	0.38
639.962	7.38
640.084	12.38
640.206	23.38
640.328	-9.62
640.45	1.38
640.573	7.38
640.695	-15.62
640.817	6.38
640.939	8.38
641.061	5.38
641.183	-5.62
641.305	-9.62
641.427	13.38
641.549	11.38
641.671	12.38
641.793	2.38
641.915	-1.62
642.038	-0.62
642.16	11.38
642.282	17.38
642.404	-5.62
642.526	12.38
642.648	2.38
642.77	-0.62
642.892	-14.62
643.014	21.38
643.136	6.38
643.258	1.38
643.381	21.38
643.503	11.38
643.625	-15.62
643.747	-17.62
643.869	1.38
643.991	2.38
644.113	2.38
644.235	12.38
644.357	17.38
644.479	14.38
644.601	-0.62
644.723	5.38
644.846	-5.62
644.968	0.38
645.09	10.38
645.212	0.38
645.334	22.38
645.456	-7.62
645.578	15.38
645.7	-3.62
645.822	1.38
645.944	-10.62
646.066	12.38
646.188	9.38
646.311	18.38
646.433	8.38
646.555	53.38
646.677	31.38
646.799	40.38
646.921	11.38
647.043	22.38
647.165	2.38
647.287	-0.62
647.409	13.38
647.531	32.38
647.654	-16.62
647.776	11.38
647.898	7.38
648.02	5.38
648.142	-14.62
648.264	0.38
648.386	-2.62
648.508	10.38
648.63	13.38
648.752	8.38
648.874	-0.62
648.997	16.38
649.119	14.38
649.241	-2.62
649.363	32.38
649.485	5.38
649.607	1.38
649.729	-3.62
649.851	1.38
649.973	-6.62
650.095	9.38
650.217	-10.62
650.34	-8.62
650.462	2.38
650.584	16.38
650.706	0.38
650.828	14.38
650.95	-11.62
651.072	11.38
651.194	-2.62
651.316	0.38
651.438	12.38
651.56	-15.62
651.683	-0.62
651.805	10.38
651.927	-0.62
652.049	-6.62
652.171	5.38
652.293	-2.62
652.415	2.38
652.537	-3.62
652.659	-14.62
652.781	16.38
652.903	6.38
653.026	28.38
653.148	11.38
653.27	-9.62
653.392	14.38
653.514	-2.62
653.636	-11.62
653.758	-3.62
653.88	3.38
654.002	-17.62
654.124	6.38
654.247	-2.62
654.369	21.38
654.491	20.38
654.613	19.38
654.735	13.38
654.857	23.38
654.979	18.38
655.101	14.38
655.223	57.38
655.345	18.38
655.468	11.38
655.59	10.38
655.712	13.38
655.834	27.38
655.956	28.38
656.078	22.38
656.2	26.38
656.322	50.38
656.444	30.38
656.566	38.38
656.689	49.38
656.811	63.38
656.933	87.38
657.055	88.38
657.177	154.38
657.299	256.38
657.421	480.38
657.543	1841.38
657.665	12412.38
657.787	15147.38
657.91	15218.38
658.032	15659.38
658.154	4570.38
658.276	3067.38
658.398	1059.38
658.52	988.38
658.642	461.38
658.764	557.38
658.886	244.38
659.009	403.38
659.131	200.38
659.253	305.38
659.375	147.38
659.497	216.38
659.619	128.38
659.741	198.38
659.863	97.38
659.985	151.38
660.108	96.38
660.23	125.38
660.352	87.38
660.474	137.38
660.596	71.38
660.718	115.38
660.84	63.38
660.962	113.38
661.084	46.38
661.207	80.38
661.329	64.38
661.451	74.38
661.573	40.38
661.695	100.38
661.817	48.38
661.939	84.38
662.061	64.38
662.184	63.38
662.306	27.38
662.428	68.38
662.55	60.38
662.672	55.38
662.794	38.38
662.916	56.38
663.038	42.38
663.161	65.38
663.283	40.38
663.405	50.38
663.527	15.38
663.649	62.38
663.771	30.38
663.893	33.38
664.015	16.38
664.138	51.38
664.26	29.38
664.382	52.38
664.504	17.38
664.626	32.38
664.748	5.38
664.87	38.38
664.992	21.38
665.115	36.38
665.237	16.38
665.359	20.38
665.481	16.38
665.603	52.38
665.725	10.38
665.847	21.38
665.97	27.38
666.092	50.38
666.214	29.38
666.336	42.38
666.458	33.38
666.58	42.38
666.702	2.38
666.825	44.38
666.947	10.38
667.069	40.38
667.191	6.38
667.313	45.38
667.435	11.38
667.557	23.38
667.68	9.38
667.802	14.38
667.924	8.38
668.046	21.38
668.168	21.38
668.29	56.38
668.412	6.38
668.535	42.38
668.657	5.38
668.779	36.38
668.901	24.38
669.023	34.38
669.145	19.38
669.267	25.38
669.39	22.38
669.512	29.38
669.634	13.38
669.756	23.38
669.878	26.38
670	26.38
670.123	17.38
670.245	31.38
670.367	31.38
670.489	41.38
670.611	13.38
670.733	10.38
670.856	7.38
670.978	34.38
671.1	13.38
671.222	22.38
671.344	12.38
671.466	22.38
671.589	-10.62
671.711	-2.62
671.833	-7.62
671.955	17.38
672.077	8.38
672.199	23.38
672.322	20.38
672.444	11.38
672.566	21.38
672.688	21.38
672.81	7.38
672.932	14.38
673.055	3.38
673.177	-9.62
673.299	15.38
673.421	20.38
673.543	4.38
673.665	9.38
673.788	6.38
673.91	8.38
674.032	-6.62
674.154	8.38
674.276	18.38
674.399	6.38
674.521	-3.62
674.643	29.38
674.765	4.38
674.887	12.38
675.009	5.38
675.132	-2.62
675.254	-2.62
675.376	1.38
675.498	7.38
675.62	29.38
675.743	5.38
675.865	17.38
675.987	11.38
676.109	7.38
676.231	5.38
676.354	32.38
676.476	4.38
676.598	39.38
676.72	12.38
676.842	2.38
676.965	7.38
677.087	24.38
677.209	12.38
677.331	6.38
677.453	9.38
677.576	10.38
677.698	22.38
677.82	14.38
677.942	8.38
678.064	8.38
678.187	14.38
678.309	4.38
678.431	4.38
678.553	1.38
678.675	34.38
678.798	45.38
678.92	17.38
679.042	1.38
679.164	1.38
679.286	12.38
679.409	-7.62
679.531	-5.62
679.653	-1.62
679.775	3.38
679.898	-8.62
680.02	-3.62
680.142	-15.62
680.264	20.38
680.386	-11.62
680.509	23.38
680.631	22.38
680.753	2.38
680.875	-8.62
680.998	5.38
681.12	11.38
681.242	2.38
681.364	5.38
681.486	10.38
681.609	-1.62
681.731	-5.62
681.853	-15.62
681.975	-1.62
682.098	20.38
682.22	44.38
682.342	10.38
682.464	10.38
682.587	4.38
682.709	15.38
682.831	5.38
682.953	14.38
683.076	3.38
683.198	9.38
683.32	16.38
683.442	17.38
683.565	38.38
683.687	16.38
683.809	-2.62
683.931	-5.62
684.054	12.38
684.176	16.38
684.298	4.38
684.42	2.38
684.543	-3.62
684.665	-1.62
684.787	9.38
684.909	13.38
685.032	24.38
685.154	-1.62
685.276	1.38
685.398	9.38
685.521	-2.62
685.643	8.38
685.765	8.38
685.887	17.38
686.01	1.38
686.132	10.38
686.254	4.38
686.377	25.38
686.499	17.38
686.621	28.38
686.743	10.38
686.866	3.38
686.988	15.38
687.11	41.38
687.232	17.38
687.355	4.38
687.477	2.38
687.599	7.38
687.722	-1.62
687.844	17.38
687.966	-2.62
688.088	21.38
688.211	17.38
688.333	7.38
688.455	0.38
688.578	21.38
688.7	23.38
688.822	15.38
688.944	-7.62
689.067	42.38
689.189	12.38
689.311	1.38
689.434	14.38
689.556	13.38
689.678	10.38
689.801	-8.62
689.923	4.38
690.045	33.38
690.167	42.38
690.29	23.38
690.412	9.38
690.534	9.38
690.657	-21.62
690.779	4.38
690.901	23.38
691.024	15.38
691.146	0.38
691.268	-3.62
691.391	26.38
691.513	35.38
691.635	21.38
691.758	9.38
691.88	13.38
692.002	-11.62
692.125	-0.62
692.247	5.38
692.369	-5.62
692.492	-22.62
692.614	1.38
692.736	-1.62
692.859	-3.62
692.981	-5.62
693.103	0.38
693.226	33.38
693.348	20.38
693.47	8.38
693.593	-9.62
693.715	0.38
693.837	3.38
693.96	2.38
694.082	-6.62
694.204	17.38
694.327	2.38
694.449	7.38
694.571	8.38
694.694	3.38
694.816	14.38
694.938	2.38
695.061	2.38
695.183	12.38
695.305	9.38
695.428	15.38
695.55	1.38
695.672	2.38
695.795	17.38
695.917	25.38
696.04	-10.62
696.162	-3.62
696.284	0.38
696.407	20.38
696.529	0.38
696.651	25.38
696.774	14.38
696.896	16.38
697.019	18.38
697.141	12.38
697.263	19.38
697.386	-5.62
697.508	5.38
697.63	10.38
697.753	6.38
697.875	-2.62
697.998	-9.62
698.12	21.38
698.242	5.38
698.365	2.38
698.487	8.38
698.61	12.38
698.732	10.38
698.854	22.38
698.977	2.38
699.099	16.38
699.221	-3.62
699.344	-11.62
699.466	5.38
699.589	-5.62
699.711	-11.62
699.834	14.38
699.956	-2.62
700.078	7.38
700.201	0.38
700.323	10.38
700.446	4.38
700.568	3.38
700.69	14.38
700.813	6.38
700.935	-17.62
701.058	-1.62
701.18	6.38
701.302	-1.62
701.425	-1.62
701.547	15.38
701.67	-5.62
701.792	-1.62
701.915	-2.62
702.037	-3.62
702.159	-5.62
702.282	5.38
702.404	4.38
702.527	18.38
702.649	19.38
702.772	32.38
702.894	6.38
703.017	-0.62
703.139	-0.62
703.261	22.38
703.384	6.38
703.506	-15.62
703.629	-8.62
703.751	18.38
703.874	-4.62
703.996	2.38
704.119	-6.62
704.241	18.38
704.364	-1.62
704.486	11.38
704.608	5.38
704.731	3.38
704.853	-2.62
704.976	-9.62
705.098	5.38
705.221	2.38
705.343	-4.62
705.466	6.38
705.588	3.38
705.711	5.38
705.833	10.38
705.956	9.38
706.078	21.38
706.201	8.38
706.323	9.38
706.446	-10.62
