Data from LowRes_H2_15_26_11_07_2024_HR4C61881__27__15-28-16-337.txt Node

Date: Thu Nov 07 15:28:16 EST 2024
User: crc00042
Spectrometer: HR4C6188
Trigger mode: 4
Integration Time (sec): 1.000000E-1
Scans to average: 1
Electric dark correction enabled: true
Nonlinearity correction enabled: false
Boxcar width: 0
XAxis mode: Wavelengths
Number of Pixels in Spectrum: 3648
>>>>>Begin Spectral Data<<<<<
245.66	-117.08
245.797	-117.08
245.934	-117.08
246.071	-95.08
246.208	10.92
246.344	-4.08
246.481	-24.08
246.618	-4.08
246.755	7.92
246.892	-3.08
247.029	-13.08
247.165	-22.08
247.302	18.92
247.439	13.92
247.576	17.92
247.713	-15.08
247.849	22.92
247.986	3.92
248.123	1.92
248.26	-14.08
248.396	-8.08
248.533	-9.08
248.67	-24.08
248.806	17.92
248.943	-15.08
249.08	5.92
249.216	-7.08
249.353	-4.08
249.49	8.92
249.626	-1.08
249.763	0.92
249.9	-17.08
250.036	-11.08
250.173	-1.08
250.309	11.92
250.446	-12.08
250.582	-6.08
250.719	-11.08
250.856	-4.08
250.992	-3.08
251.129	-24.08
251.265	-23.08
251.402	-20.08
251.538	-16.08
251.675	-11.08
251.811	12.92
251.948	9.92
252.084	-4.08
252.221	-9.08
252.357	0.92
252.493	6.92
252.63	12.92
252.766	9.92
252.903	-2.08
253.039	-7.08
253.175	3.92
253.312	19.92
253.448	-8.08
253.585	-20.08
253.721	7.92
253.857	-12.08
253.994	-9.08
254.13	1.92
254.266	10.92
254.403	-10.08
254.539	1.92
254.675	-7.08
254.811	9.92
254.948	-30.08
255.084	-29.08
255.22	-18.08
255.356	-0.08
255.493	-2.08
255.629	-3.08
255.765	-9.08
255.901	-3.08
256.037	12.92
256.174	11.92
256.31	-8.08
256.446	2.92
256.582	-9.08
256.718	2.92
256.854	10.92
256.991	3.92
257.127	12.92
257.263	4.92
257.399	25.92
257.535	3.92
257.671	-7.08
257.807	-26.08
257.943	-6.08
258.079	-9.08
258.215	-6.08
258.351	10.92
258.487	3.92
258.623	12.92
258.759	-6.08
258.895	-1.08
259.031	-22.08
259.167	-13.08
259.303	1.92
259.439	-5.08
259.575	-24.08
259.711	5.92
259.847	-19.08
259.983	-1.08
260.119	1.92
260.255	-11.08
260.391	-20.08
260.527	9.92
260.663	13.92
260.799	16.92
260.934	-15.08
261.07	-10.08
261.206	-23.08
261.342	-30.08
261.478	-7.08
261.614	2.92
261.749	-1.08
261.885	-7.08
262.021	-5.08
262.157	8.92
262.293	-16.08
262.428	-8.08
262.564	-23.08
262.7	-9.08
262.836	1.92
262.971	4.92
263.107	-2.08
263.243	26.92
263.378	-10.08
263.514	-25.08
263.65	-14.08
263.785	-17.08
263.921	0.92
264.057	8.92
264.192	0.92
264.328	19.92
264.464	7.92
264.599	0.92
264.735	15.92
264.871	-13.08
265.006	-1.08
265.142	-17.08
265.277	-9.08
265.413	3.92
265.548	11.92
265.684	20.92
265.819	-1.08
265.955	-13.08
266.091	-27.08
266.226	-14.08
266.362	-1.08
266.497	-8.08
266.633	-10.08
266.768	-18.08
266.903	1.92
267.039	17.92
267.174	12.92
267.31	-15.08
267.445	-4.08
267.581	-8.08
267.716	22.92
267.851	3.92
267.987	8.92
268.122	16.92
268.258	-20.08
268.393	-11.08
268.528	11.92
268.664	-20.08
268.799	-20.08
268.934	3.92
269.07	-18.08
269.205	4.92
269.34	12.92
269.476	0.92
269.611	-2.08
269.746	6.92
269.881	6.92
270.017	6.92
270.152	5.92
270.287	0.92
270.422	-2.08
270.558	-15.08
270.693	-6.08
270.828	-39.08
270.963	-15.08
271.098	-8.08
271.234	-19.08
271.369	5.92
271.504	-15.08
271.639	-14.08
271.774	-15.08
271.909	-4.08
272.045	-27.08
272.18	-22.08
272.315	-23.08
272.45	-5.08
272.585	-6.08
272.72	-14.08
272.855	-5.08
272.99	17.92
273.125	-2.08
273.26	-25.08
273.395	-24.08
273.53	-24.08
273.665	4.92
273.8	-8.08
273.935	22.92
274.07	-4.08
274.205	-6.08
274.34	-0.08
274.475	-1.08
274.61	13.92
274.745	5.92
274.88	13.92
275.015	-15.08
275.15	-16.08
275.285	-1.08
275.42	-11.08
275.555	2.92
275.69	6.92
275.825	-9.08
275.959	0.92
276.094	-16.08
276.229	-29.08
276.364	-25.08
276.499	-7.08
276.634	-1.08
276.768	-11.08
276.903	-16.08
277.038	-5.08
277.173	-11.08
277.308	-8.08
277.442	-19.08
277.577	-24.08
277.712	-33.08
277.847	-12.08
277.981	-0.08
278.116	-23.08
278.251	-1.08
278.386	-4.08
278.52	2.92
278.655	-15.08
278.79	-1.08
278.924	9.92
279.059	11.92
279.194	-20.08
279.328	30.92
279.463	15.92
279.598	22.92
279.732	16.92
279.867	11.92
280.001	11.92
280.136	9.92
280.271	-1.08
280.405	10.92
280.54	2.92
280.674	-24.08
280.809	0.92
280.943	-5.08
281.078	3.92
281.213	10.92
281.347	22.92
281.482	4.92
281.616	-18.08
281.751	-3.08
281.885	-20.08
282.02	-13.08
282.154	4.92
282.288	-9.08
282.423	-5.08
282.557	-25.08
282.692	4.92
282.826	-9.08
282.961	9.92
283.095	-16.08
283.229	7.92
283.364	-4.08
283.498	-8.08
283.633	-11.08
283.767	-1.08
283.901	8.92
284.036	5.92
284.17	-8.08
284.304	13.92
284.439	-0.08
284.573	-6.08
284.707	7.92
284.842	-14.08
284.976	-18.08
285.11	-25.08
285.244	-0.08
285.379	26.92
285.513	8.92
285.647	1.92
285.781	-1.08
285.916	10.92
286.05	-9.08
286.184	12.92
286.318	-0.08
286.453	-16.08
286.587	-8.08
286.721	2.92
286.855	0.92
286.989	22.92
287.123	1.92
287.258	-1.08
287.392	-12.08
287.526	6.92
287.66	-5.08
287.794	2.92
287.928	-2.08
288.062	-2.08
288.196	-9.08
288.33	7.92
288.464	31.92
288.598	-11.08
288.733	-9.08
288.867	3.92
289.001	7.92
289.135	-6.08
289.269	1.92
289.403	6.92
289.537	-12.08
289.671	-10.08
289.805	-30.08
289.939	-7.08
290.073	-6.08
290.207	6.92
290.34	-23.08
290.474	20.92
290.608	0.92
290.742	-7.08
290.876	-18.08
291.01	7.92
291.144	31.92
291.278	23.92
291.412	-2.08
291.546	-20.08
291.679	-16.08
291.813	-8.08
291.947	-9.08
292.081	-3.08
292.215	-1.08
292.349	16.92
292.482	-14.08
292.616	6.92
292.75	6.92
292.884	-11.08
293.018	-4.08
293.151	-15.08
293.285	7.92
293.419	-23.08
293.553	6.92
293.686	-8.08
293.82	9.92
293.954	20.92
294.088	8.92
294.221	-10.08
294.355	-16.08
294.489	-14.08
294.622	-16.08
294.756	-10.08
294.89	18.92
295.023	7.92
295.157	10.92
295.291	19.92
295.424	19.92
295.558	10.92
295.691	-16.08
295.825	-5.08
295.959	-16.08
296.092	-7.08
296.226	0.92
296.359	6.92
296.493	2.92
296.627	-0.08
296.76	-1.08
296.894	-13.08
297.027	0.92
297.161	8.92
297.294	-13.08
297.428	-20.08
297.561	16.92
297.695	-5.08
297.828	-5.08
297.962	-10.08
298.095	-15.08
298.229	6.92
298.362	-6.08
298.495	-1.08
298.629	-11.08
298.762	-2.08
298.896	-11.08
299.029	-25.08
299.162	-11.08
299.296	6.92
299.429	-20.08
299.563	-3.08
299.696	3.92
299.829	-1.08
299.963	17.92
300.096	9.92
300.229	3.92
300.363	1.92
300.496	1.92
300.629	-22.08
300.763	-18.08
300.896	-13.08
301.029	10.92
301.162	-5.08
301.296	-9.08
301.429	8.92
301.562	-23.08
301.695	-0.08
301.829	-1.08
301.962	13.92
302.095	-9.08
302.228	-14.08
302.362	-5.08
302.495	-10.08
302.628	-17.08
302.761	-2.08
302.894	-4.08
303.027	10.92
303.161	-2.08
303.294	0.92
303.427	13.92
303.56	-3.08
303.693	-1.08
303.826	8.92
303.959	1.92
304.092	-0.08
304.225	-14.08
304.359	-7.08
304.492	-1.08
304.625	-14.08
304.758	-4.08
304.891	-17.08
305.024	-4.08
305.157	-7.08
305.29	-18.08
305.423	7.92
305.556	2.92
305.689	30.92
305.822	-4.08
305.955	11.92
306.088	6.92
306.221	-5.08
306.354	-13.08
306.487	-8.08
306.62	-27.08
306.752	-1.08
306.885	-4.08
307.018	-9.08
307.151	17.92
307.284	5.92
307.417	-6.08
307.55	20.92
307.683	-11.08
307.816	25.92
307.948	0.92
308.081	8.92
308.214	1.92
308.347	24.92
308.48	1.92
308.613	-13.08
308.745	9.92
308.878	-12.08
309.011	12.92
309.144	7.92
309.277	1.92
309.409	5.92
309.542	-9.08
309.675	5.92
309.808	4.92
309.94	27.92
310.073	-32.08
310.206	-9.08
310.339	6.92
310.471	-15.08
310.604	7.92
310.737	-9.08
310.869	-27.08
311.002	-9.08
311.135	-14.08
311.267	-16.08
311.4	-18.08
311.533	6.92
311.665	-5.08
311.798	10.92
311.93	-1.08
312.063	16.92
312.196	-2.08
312.328	-20.08
312.461	-13.08
312.593	5.92
312.726	-2.08
312.859	-4.08
312.991	6.92
313.124	-11.08
313.256	11.92
313.389	-8.08
313.521	-17.08
313.654	-9.08
313.786	-10.08
313.919	-31.08
314.051	-16.08
314.184	23.92
314.316	-9.08
314.449	-12.08
314.581	-4.08
314.714	11.92
314.846	3.92
314.978	-14.08
315.111	-4.08
315.243	-0.08
315.376	-4.08
315.508	11.92
315.641	-7.08
315.773	10.92
315.905	4.92
316.038	-7.08
316.17	-11.08
316.302	12.92
316.435	4.92
316.567	-3.08
316.699	24.92
316.832	4.92
316.964	-2.08
317.096	-3.08
317.229	-21.08
317.361	-8.08
317.493	-9.08
317.625	-8.08
317.758	7.92
317.89	14.92
318.022	3.92
318.155	-2.08
318.287	-10.08
318.419	0.92
318.551	-18.08
318.683	-17.08
318.816	-8.08
318.948	-1.08
319.08	-9.08
319.212	-1.08
319.344	1.92
319.477	-11.08
319.609	-6.08
319.741	-4.08
319.873	-10.08
320.005	3.92
320.137	-15.08
320.269	-4.08
320.401	-0.08
320.534	-9.08
320.666	-18.08
320.798	-12.08
320.93	-7.08
321.062	-21.08
321.194	-4.08
321.326	14.92
321.458	19.92
321.59	-7.08
321.722	-21.08
321.854	-16.08
321.986	-20.08
322.118	-3.08
322.25	-15.08
322.382	-14.08
322.514	-9.08
322.646	1.92
322.778	4.92
322.91	-12.08
323.042	-4.08
323.174	6.92
323.306	-16.08
323.438	-25.08
323.57	-6.08
323.702	-2.08
323.834	-2.08
323.966	-13.08
324.097	-17.08
324.229	15.92
324.361	5.92
324.493	9.92
324.625	-9.08
324.757	4.92
324.889	-10.08
325.021	-5.08
325.152	-4.08
325.284	30.92
325.416	-8.08
325.548	11.92
325.68	-6.08
325.811	21.92
325.943	14.92
326.075	-5.08
326.207	3.92
326.339	7.92
326.47	-13.08
326.602	14.92
326.734	8.92
326.866	2.92
326.997	-25.08
327.129	11.92
327.261	-22.08
327.392	2.92
327.524	-5.08
327.656	-18.08
327.787	10.92
327.919	-2.08
328.051	4.92
328.182	26.92
328.314	3.92
328.446	-7.08
328.577	-4.08
328.709	0.92
328.841	-22.08
328.972	-13.08
329.104	-17.08
329.235	-13.08
329.367	-19.08
329.499	-3.08
329.63	3.92
329.762	6.92
329.893	8.92
330.025	11.92
330.156	-9.08
330.288	13.92
330.419	9.92
330.551	14.92
330.683	-4.08
330.814	19.92
330.946	4.92
331.077	-12.08
331.208	-16.08
331.34	-23.08
331.471	-24.08
331.603	-0.08
331.734	-17.08
331.866	-7.08
331.997	-13.08
332.129	-4.08
332.26	5.92
332.392	11.92
332.523	-6.08
332.654	-2.08
332.786	-9.08
332.917	-8.08
333.048	-8.08
333.18	11.92
333.311	-24.08
333.443	-7.08
333.574	-21.08
333.705	20.92
333.837	-21.08
333.968	3.92
334.099	27.92
334.231	6.92
334.362	-7.08
334.493	2.92
334.624	1.92
334.756	1.92
334.887	5.92
335.018	0.92
335.15	12.92
335.281	6.92
335.412	28.92
335.543	2.92
335.675	8.92
335.806	-3.08
335.937	-13.08
336.068	-1.08
336.199	21.92
336.331	-8.08
336.462	-14.08
336.593	12.92
336.724	-1.08
336.855	-8.08
336.986	11.92
337.118	16.92
337.249	-2.08
337.38	3.92
337.511	-1.08
337.642	3.92
337.773	7.92
337.904	6.92
338.035	-14.08
338.166	12.92
338.298	2.92
338.429	-3.08
338.56	-1.08
338.691	12.92
338.822	4.92
338.953	9.92
339.084	8.92
339.215	8.92
339.346	-2.08
339.477	4.92
339.608	-6.08
339.739	-6.08
339.87	-2.08
340.001	-7.08
340.132	2.92
340.263	-3.08
340.394	4.92
340.525	-3.08
340.656	-7.08
340.787	-17.08
340.918	16.92
341.049	2.92
341.179	-4.08
341.31	-5.08
341.441	-5.08
341.572	12.92
341.703	-1.08
341.834	-19.08
341.965	0.92
342.096	-1.08
342.227	-7.08
342.357	-5.08
342.488	-10.08
342.619	-12.08
342.75	3.92
342.881	-7.08
343.012	12.92
343.142	12.92
343.273	-15.08
343.404	-8.08
343.535	31.92
343.666	22.92
343.796	14.92
343.927	4.92
344.058	19.92
344.189	7.92
344.319	-5.08
344.45	-11.08
344.581	5.92
344.712	-17.08
344.842	-0.08
344.973	1.92
345.104	8.92
345.234	-3.08
345.365	-15.08
345.496	-1.08
345.626	-3.08
345.757	-2.08
345.888	-5.08
346.018	13.92
346.149	-4.08
346.28	16.92
346.41	3.92
346.541	7.92
346.672	-2.08
346.802	20.92
346.933	26.92
347.063	-13.08
347.194	-21.08
347.325	-11.08
347.455	6.92
347.586	-9.08
347.716	-15.08
347.847	9.92
347.977	-13.08
348.108	5.92
348.238	11.92
348.369	-4.08
348.499	-7.08
348.63	-0.08
348.76	4.92
348.891	5.92
349.021	-6.08
349.152	-11.08
349.282	-0.08
349.413	-9.08
349.543	5.92
349.674	-1.08
349.804	14.92
349.935	-10.08
350.065	-11.08
350.196	-11.08
350.326	8.92
350.456	0.92
350.587	5.92
350.717	-8.08
350.848	6.92
350.978	15.92
351.108	-5.08
351.239	6.92
351.369	-16.08
351.499	6.92
351.63	19.92
351.76	-3.08
351.89	-13.08
352.021	1.92
352.151	-0.08
352.281	19.92
352.412	7.92
352.542	0.92
352.672	-0.08
352.803	-23.08
352.933	-0.08
353.063	9.92
353.193	10.92
353.324	-1.08
353.454	10.92
353.584	15.92
353.714	4.92
353.845	-3.08
353.975	-3.08
354.105	-1.08
354.235	1.92
354.365	12.92
354.496	8.92
354.626	-0.08
354.756	19.92
354.886	1.92
355.016	9.92
355.146	-0.08
355.277	10.92
355.407	-8.08
355.537	-14.08
355.667	0.92
355.797	-16.08
355.927	-12.08
356.057	-11.08
356.187	-20.08
356.318	-1.08
356.448	-1.08
356.578	10.92
356.708	8.92
356.838	-1.08
356.968	-18.08
357.098	4.92
357.228	22.92
357.358	3.92
357.488	-3.08
357.618	17.92
357.748	2.92
357.878	0.92
358.008	-3.08
358.138	-20.08
358.268	-5.08
358.398	3.92
358.528	-14.08
358.658	4.92
358.788	3.92
358.918	-11.08
359.048	-2.08
359.178	8.92
359.308	-7.08
359.438	13.92
359.568	18.92
359.698	6.92
359.827	-5.08
359.957	14.92
360.087	24.92
360.217	0.92
360.347	17.92
360.477	19.92
360.607	-18.08
360.737	7.92
360.866	-4.08
360.996	-4.08
361.126	-11.08
361.256	22.92
361.386	11.92
361.516	11.92
361.645	-12.08
361.775	-2.08
361.905	-18.08
362.035	15.92
362.165	-0.08
362.294	2.92
362.424	21.92
362.554	2.92
362.684	-11.08
362.813	-10.08
362.943	5.92
363.073	-11.08
363.203	-9.08
363.332	-10.08
363.462	-20.08
363.592	-14.08
363.721	-5.08
363.851	0.92
363.981	3.92
364.111	-12.08
364.24	-14.08
364.37	2.92
364.5	30.92
364.629	0.92
364.759	-16.08
364.888	-0.08
365.018	4.92
365.148	-0.08
365.277	5.92
365.407	6.92
365.537	-3.08
365.666	-8.08
365.796	-8.08
365.925	-0.08
366.055	12.92
366.184	-16.08
366.314	4.92
366.444	3.92
366.573	6.92
366.703	0.92
366.832	8.92
366.962	-3.08
367.091	11.92
367.221	-3.08
367.35	3.92
367.48	42.92
367.609	13.92
367.739	-7.08
367.868	-5.08
367.998	-4.08
368.127	15.92
368.257	17.92
368.386	25.92
368.516	21.92
368.645	4.92
368.775	28.92
368.904	-13.08
369.033	-24.08
369.163	-17.08
369.292	-5.08
369.422	4.92
369.551	7.92
369.68	19.92
369.81	-3.08
369.939	-5.08
370.069	21.92
370.198	2.92
370.327	-15.08
370.457	5.92
370.586	0.92
370.715	21.92
370.845	10.92
370.974	3.92
371.103	18.92
371.233	8.92
371.362	1.92
371.491	-13.08
371.621	-0.08
371.75	-2.08
371.879	-17.08
372.008	-0.08
372.138	-4.08
372.267	25.92
372.396	-18.08
372.525	-7.08
372.655	3.92
372.784	-0.08
372.913	5.92
373.042	19.92
373.172	12.92
373.301	-16.08
373.43	-19.08
373.559	-15.08
373.688	8.92
373.818	30.92
373.947	11.92
374.076	-1.08
374.205	24.92
374.334	-2.08
374.463	-22.08
374.593	1.92
374.722	10.92
374.851	38.92
374.98	5.92
375.109	7.92
375.238	4.92
375.367	29.92
375.496	-17.08
375.625	2.92
375.755	12.92
375.884	7.92
376.013	5.92
376.142	-14.08
376.271	11.92
376.4	4.92
376.529	6.92
376.658	5.92
376.787	-5.08
376.916	3.92
377.045	2.92
377.174	2.92
377.303	5.92
377.432	31.92
377.561	21.92
377.69	2.92
377.819	29.92
377.948	-7.08
378.077	-17.08
378.206	7.92
378.335	-2.08
378.464	3.92
378.593	25.92
378.722	-11.08
378.851	-13.08
378.98	36.92
379.108	-2.08
379.237	-6.08
379.366	20.92
379.495	8.92
379.624	13.92
379.753	-4.08
379.882	6.92
380.011	-5.08
380.14	-5.08
380.268	16.92
380.397	-0.08
380.526	14.92
380.655	5.92
380.784	-18.08
380.913	-19.08
381.041	-19.08
381.17	-29.08
381.299	2.92
381.428	5.92
381.557	10.92
381.685	4.92
381.814	-4.08
381.943	1.92
382.072	3.92
382.2	-8.08
382.329	-3.08
382.458	-7.08
382.587	28.92
382.715	31.92
382.844	-3.08
382.973	-15.08
383.102	-4.08
383.23	-7.08
383.359	-6.08
383.488	16.92
383.616	-0.08
383.745	-15.08
383.874	7.92
384.003	-3.08
384.131	-20.08
384.26	-0.08
384.389	7.92
384.517	-24.08
384.646	-7.08
384.774	-9.08
384.903	14.92
385.032	-0.08
385.16	12.92
385.289	9.92
385.418	5.92
385.546	1.92
385.675	3.92
385.803	9.92
385.932	-2.08
386.06	-3.08
386.189	19.92
386.318	11.92
386.446	-7.08
386.575	10.92
386.703	14.92
386.832	1.92
386.96	-5.08
387.089	6.92
387.217	-11.08
387.346	-6.08
387.474	-6.08
387.603	5.92
387.731	0.92
387.86	17.92
387.988	-8.08
388.117	-6.08
388.245	-0.08
388.374	-5.08
388.502	30.92
388.631	-7.08
388.759	-11.08
388.888	11.92
389.016	-0.08
389.144	-3.08
389.273	15.92
389.401	-0.08
389.53	-17.08
389.658	0.92
389.786	-16.08
389.915	-4.08
390.043	-20.08
390.172	7.92
390.3	23.92
390.428	7.92
390.557	-0.08
390.685	8.92
390.813	4.92
390.942	20.92
391.07	4.92
391.198	-22.08
391.327	-16.08
391.455	-2.08
391.583	24.92
391.712	18.92
391.84	2.92
391.968	-0.08
392.096	-9.08
392.225	-4.08
392.353	-5.08
392.481	-15.08
392.609	17.92
392.738	5.92
392.866	7.92
392.994	4.92
393.122	31.92
393.251	1.92
393.379	-1.08
393.507	-20.08
393.635	-9.08
393.764	1.92
393.892	10.92
394.02	-18.08
394.148	-11.08
394.276	-8.08
394.404	23.92
394.533	-24.08
394.661	7.92
394.789	32.92
394.917	16.92
395.045	-20.08
395.173	-15.08
395.302	3.92
395.43	4.92
395.558	1.92
395.686	12.92
395.814	11.92
395.942	-18.08
396.07	-5.08
396.198	-12.08
396.326	0.92
396.454	12.92
396.582	7.92
396.711	11.92
396.839	2.92
396.967	6.92
397.095	-3.08
397.223	12.92
397.351	15.92
397.479	23.92
397.607	-0.08
397.735	7.92
397.863	19.92
397.991	22.92
398.119	-19.08
398.247	-4.08
398.375	2.92
398.503	6.92
398.631	-2.08
398.759	-1.08
398.887	-7.08
399.015	-4.08
399.143	-19.08
399.271	4.92
399.399	20.92
399.526	-0.08
399.654	23.92
399.782	-2.08
399.91	23.92
400.038	28.92
400.166	-1.08
400.294	9.92
400.422	-10.08
400.55	10.92
400.678	7.92
400.805	-7.08
400.933	7.92
401.061	-0.08
401.189	-28.08
401.317	20.92
401.445	30.92
401.573	16.92
401.7	-1.08
401.828	7.92
401.956	3.92
402.084	9.92
402.212	11.92
402.34	2.92
402.467	4.92
402.595	20.92
402.723	6.92
402.851	10.92
402.978	7.92
403.106	20.92
403.234	-5.08
403.362	9.92
403.489	31.92
403.617	11.92
403.745	4.92
403.873	0.92
404	2.92
404.128	15.92
404.256	26.92
404.384	27.92
404.511	33.92
404.639	-11.08
404.767	1.92
404.894	10.92
405.022	-9.08
405.15	11.92
405.277	-6.08
405.405	-4.08
405.533	-2.08
405.66	5.92
405.788	-35.08
405.916	-23.08
406.043	-1.08
406.171	-11.08
406.299	-3.08
406.426	9.92
406.554	14.92
406.681	9.92
406.809	3.92
406.937	0.92
407.064	-5.08
407.192	2.92
407.319	-0.08
407.447	-8.08
407.574	25.92
407.702	2.92
407.83	-18.08
407.957	-22.08
408.085	4.92
408.212	-9.08
408.34	-2.08
408.467	-20.08
408.595	-2.08
408.722	13.92
408.85	15.92
408.977	-7.08
409.105	-5.08
409.232	2.92
409.36	-0.08
409.487	14.92
409.615	3.92
409.742	15.92
409.87	30.92
409.997	43.92
410.125	34.92
410.252	50.92
410.379	22.92
410.507	24.92
410.634	-0.08
410.762	-15.08
410.889	13.92
411.017	-12.08
411.144	14.92
411.271	-4.08
411.399	-19.08
411.526	12.92
411.653	9.92
411.781	22.92
411.908	5.92
412.036	-14.08
412.163	27.92
412.29	11.92
412.418	17.92
412.545	14.92
412.672	-1.08
412.8	18.92
412.927	9.92
413.054	22.92
413.182	1.92
413.309	14.92
413.436	-23.08
413.564	-5.08
413.691	-3.08
413.818	8.92
413.945	-13.08
414.073	8.92
414.2	-7.08
414.327	10.92
414.454	12.92
414.582	3.92
414.709	-28.08
414.836	2.92
414.963	-0.08
415.091	10.92
415.218	1.92
415.345	-7.08
415.472	0.92
415.6	-3.08
415.727	-3.08
415.854	-1.08
415.981	3.92
416.108	2.92
416.236	7.92
416.363	12.92
416.49	9.92
416.617	-4.08
416.744	12.92
416.871	24.92
416.998	4.92
417.126	9.92
417.253	5.92
417.38	19.92
417.507	7.92
417.634	2.92
417.761	14.92
417.888	7.92
418.015	5.92
418.143	8.92
418.27	16.92
418.397	6.92
418.524	7.92
418.651	4.92
418.778	1.92
418.905	12.92
419.032	19.92
419.159	13.92
419.286	26.92
419.413	28.92
419.54	21.92
419.667	-0.08
419.794	-7.08
419.921	-9.08
420.048	3.92
420.175	-1.08
420.302	-6.08
420.429	-2.08
420.556	-7.08
420.683	-5.08
420.81	-9.08
420.937	18.92
421.064	16.92
421.191	-3.08
421.318	-0.08
421.445	9.92
421.572	-18.08
421.699	12.92
421.826	10.92
421.953	-16.08
422.08	-1.08
422.207	-11.08
422.334	-10.08
422.461	16.92
422.588	-2.08
422.714	31.92
422.841	2.92
422.968	22.92
423.095	7.92
423.222	0.92
423.349	2.92
423.476	16.92
423.603	6.92
423.729	-0.08
423.856	11.92
423.983	7.92
424.11	-10.08
424.237	16.92
424.364	16.92
424.491	16.92
424.617	-19.08
424.744	-11.08
424.871	-5.08
424.998	-23.08
425.125	0.92
425.251	8.92
425.378	-5.08
425.505	-12.08
425.632	-4.08
425.758	-16.08
425.885	12.92
426.012	4.92
426.139	26.92
426.266	17.92
426.392	11.92
426.519	10.92
426.646	6.92
426.772	14.92
426.899	-3.08
427.026	-7.08
427.153	-10.08
427.279	21.92
427.406	1.92
427.533	16.92
427.659	-7.08
427.786	-5.08
427.913	17.92
428.039	-8.08
428.166	2.92
428.293	3.92
428.419	6.92
428.546	-5.08
428.673	-14.08
428.799	-22.08
428.926	-10.08
429.053	22.92
429.179	-11.08
429.306	-9.08
429.433	17.92
429.559	5.92
429.686	-1.08
429.812	0.92
429.939	-2.08
430.066	-1.08
430.192	5.92
430.319	7.92
430.445	1.92
430.572	8.92
430.699	-7.08
430.825	-8.08
430.952	16.92
431.078	0.92
431.205	11.92
431.331	1.92
431.458	9.92
431.584	20.92
431.711	0.92
431.837	6.92
431.964	6.92
432.09	10.92
432.217	-10.08
432.343	-0.08
432.47	33.92
432.596	3.92
432.723	-2.08
432.849	2.92
432.976	-1.08
433.102	16.92
433.229	7.92
433.355	22.92
433.482	74.92
433.608	146.92
433.735	132.92
433.861	111.92
433.987	150.92
434.114	214.92
434.24	182.92
434.367	51.92
434.493	8.92
434.62	29.92
434.746	13.92
434.872	-12.08
434.999	20.92
435.125	9.92
435.252	-6.08
435.378	3.92
435.504	0.92
435.631	31.92
435.757	-0.08
435.883	6.92
436.01	13.92
436.136	-5.08
436.262	13.92
436.389	11.92
436.515	15.92
436.641	-9.08
436.768	-3.08
436.894	12.92
437.02	6.92
437.147	11.92
437.273	21.92
437.399	2.92
437.526	3.92
437.652	7.92
437.778	4.92
437.904	-15.08
438.031	-3.08
438.157	29.92
438.283	5.92
438.409	-12.08
438.536	-14.08
438.662	27.92
438.788	10.92
438.914	0.92
439.041	0.92
439.167	24.92
439.293	-1.08
439.419	4.92
439.546	28.92
439.672	-4.08
439.798	22.92
439.924	-2.08
440.05	21.92
440.177	21.92
440.303	-0.08
440.429	10.92
440.555	21.92
440.681	13.92
440.807	17.92
440.934	3.92
441.06	11.92
441.186	1.92
441.312	3.92
441.438	12.92
441.564	22.92
441.69	12.92
441.816	-1.08
441.943	4.92
442.069	14.92
442.195	-0.08
442.321	1.92
442.447	-9.08
442.573	-6.08
442.699	-17.08
442.825	-8.08
442.951	-1.08
443.077	11.92
443.203	0.92
443.33	2.92
443.456	-1.08
443.582	12.92
443.708	2.92
443.834	8.92
443.96	2.92
444.086	-3.08
444.212	31.92
444.338	39.92
444.464	38.92
444.59	12.92
444.716	7.92
444.842	-9.08
444.968	-7.08
445.094	-7.08
445.22	6.92
445.346	-6.08
445.472	-6.08
445.598	16.92
445.724	5.92
445.85	-4.08
445.976	8.92
446.102	1.92
446.228	12.92
446.354	13.92
446.48	-9.08
446.605	12.92
446.731	-5.08
446.857	5.92
446.983	9.92
447.109	-5.08
447.235	1.92
447.361	-9.08
447.487	6.92
447.613	5.92
447.739	-10.08
447.865	-5.08
447.99	3.92
448.116	11.92
448.242	2.92
448.368	1.92
448.494	-10.08
448.62	11.92
448.746	11.92
448.872	2.92
448.997	-11.08
449.123	-9.08
449.249	23.92
449.375	16.92
449.501	-4.08
449.627	-8.08
449.752	28.92
449.878	0.92
450.004	0.92
450.13	16.92
450.256	-2.08
450.381	4.92
450.507	8.92
450.633	8.92
450.759	38.92
450.884	-0.08
451.01	17.92
451.136	0.92
451.262	20.92
451.388	9.92
451.513	-20.08
451.639	12.92
451.765	4.92
451.89	11.92
452.016	14.92
452.142	4.92
452.268	18.92
452.393	27.92
452.519	3.92
452.645	14.92
452.771	5.92
452.896	12.92
453.022	2.92
453.148	8.92
453.273	-6.08
453.399	10.92
453.525	-17.08
453.65	-0.08
453.776	12.92
453.902	7.92
454.027	6.92
454.153	21.92
454.279	13.92
454.404	-3.08
454.53	6.92
454.656	22.92
454.781	12.92
454.907	3.92
455.032	-8.08
455.158	7.92
455.284	17.92
455.409	14.92
455.535	7.92
455.66	7.92
455.786	21.92
455.912	10.92
456.037	1.92
456.163	11.92
456.288	19.92
456.414	-10.08
456.539	-7.08
456.665	9.92
456.791	-10.08
456.916	-2.08
457.042	-0.08
457.167	-12.08
457.293	15.92
457.418	14.92
457.544	3.92
457.669	-3.08
457.795	4.92
457.92	8.92
458.046	8.92
458.171	28.92
458.297	3.92
458.422	-5.08
458.548	-3.08
458.673	7.92
458.799	-9.08
458.924	-11.08
459.05	15.92
459.175	4.92
459.301	7.92
459.426	24.92
459.552	8.92
459.677	-6.08
459.803	22.92
459.928	13.92
460.053	23.92
460.179	4.92
460.304	13.92
460.43	-6.08
460.555	5.92
460.681	15.92
460.806	7.92
460.931	5.92
461.057	11.92
461.182	8.92
461.308	-0.08
461.433	9.92
461.558	5.92
461.684	20.92
461.809	19.92
461.934	-5.08
462.06	26.92
462.185	-16.08
462.311	11.92
462.436	7.92
462.561	16.92
462.687	22.92
462.812	8.92
462.937	-18.08
463.063	-2.08
463.188	-14.08
463.313	7.92
463.439	-2.08
463.564	7.92
463.689	16.92
463.814	-1.08
463.94	-8.08
464.065	10.92
464.19	39.92
464.316	-1.08
464.441	16.92
464.566	0.92
464.692	2.92
464.817	-4.08
464.942	-8.08
465.067	-6.08
465.193	-24.08
465.318	-11.08
465.443	0.92
465.568	9.92
465.694	5.92
465.819	23.92
465.944	2.92
466.069	4.92
466.194	17.92
466.32	24.92
466.445	17.92
466.57	-5.08
466.695	-12.08
466.82	10.92
466.946	12.92
467.071	11.92
467.196	-2.08
467.321	13.92
467.446	-0.08
467.572	9.92
467.697	-5.08
467.822	11.92
467.947	14.92
468.072	-0.08
468.197	-8.08
468.323	2.92
468.448	-1.08
468.573	-7.08
468.698	-4.08
468.823	17.92
468.948	22.92
469.073	10.92
469.198	14.92
469.324	26.92
469.449	11.92
469.574	26.92
469.699	11.92
469.824	10.92
469.949	9.92
470.074	16.92
470.199	33.92
470.324	25.92
470.449	32.92
470.574	13.92
470.7	10.92
470.825	13.92
470.95	19.92
471.075	0.92
471.2	-4.08
471.325	18.92
471.45	19.92
471.575	-16.08
471.7	5.92
471.825	-16.08
471.95	-4.08
472.075	-3.08
472.2	8.92
472.325	6.92
472.45	0.92
472.575	5.92
472.7	-16.08
472.825	-8.08
472.95	-1.08
473.075	1.92
473.2	-5.08
473.325	-5.08
473.45	2.92
473.575	-16.08
473.7	13.92
473.825	8.92
473.95	5.92
474.075	12.92
474.2	-13.08
474.325	-7.08
474.45	17.92
474.574	-2.08
474.699	10.92
474.824	19.92
474.949	0.92
475.074	-5.08
475.199	20.92
475.324	7.92
475.449	9.92
475.574	21.92
475.699	25.92
475.824	2.92
475.949	0.92
476.073	3.92
476.198	11.92
476.323	2.92
476.448	-3.08
476.573	-3.08
476.698	8.92
476.823	5.92
476.947	6.92
477.072	5.92
477.197	35.92
477.322	-1.08
477.447	-8.08
477.572	11.92
477.697	4.92
477.821	5.92
477.946	-4.08
478.071	9.92
478.196	13.92
478.321	-6.08
478.445	1.92
478.57	-1.08
478.695	0.92
478.82	2.92
478.945	19.92
479.069	-0.08
479.194	2.92
479.319	19.92
479.444	20.92
479.569	-0.08
479.693	12.92
479.818	16.92
479.943	32.92
480.068	17.92
480.192	4.92
480.317	18.92
480.442	6.92
480.567	5.92
480.691	0.92
480.816	10.92
480.941	-7.08
481.066	18.92
481.19	28.92
481.315	12.92
481.44	8.92
481.564	19.92
481.689	21.92
481.814	9.92
481.938	12.92
482.063	-1.08
482.188	16.92
482.313	44.92
482.437	16.92
482.562	30.92
482.687	15.92
482.811	11.92
482.936	13.92
483.061	15.92
483.185	5.92
483.31	5.92
483.435	4.92
483.559	8.92
483.684	29.92
483.808	28.92
483.933	2.92
484.058	11.92
484.182	10.92
484.307	16.92
484.432	9.92
484.556	-0.08
484.681	0.92
484.805	19.92
484.93	13.92
485.055	38.92
485.179	75.92
485.304	104.92
485.428	358.92
485.553	1208.92
485.678	1719.92
485.802	1614.92
485.927	1757.92
486.051	2632.92
486.176	1576.92
486.3	457.92
486.425	133.92
486.549	69.92
486.674	46.92
486.799	21.92
486.923	23.92
487.048	6.92
487.172	7.92
487.297	21.92
487.421	42.92
487.546	39.92
487.67	19.92
487.795	13.92
487.919	18.92
488.044	29.92
488.168	28.92
488.293	7.92
488.417	12.92
488.542	15.92
488.666	14.92
488.791	20.92
488.915	7.92
489.04	-10.08
489.164	18.92
489.289	29.92
489.413	6.92
489.538	16.92
489.662	31.92
489.786	8.92
489.911	17.92
490.035	12.92
490.16	1.92
490.284	6.92
490.409	-19.08
490.533	-5.08
490.658	32.92
490.782	11.92
490.906	-5.08
491.031	18.92
491.155	8.92
491.28	14.92
491.404	24.92
491.528	29.92
491.653	14.92
491.777	28.92
491.902	-3.08
492.026	12.92
492.15	27.92
492.275	19.92
492.399	29.92
492.524	13.92
492.648	21.92
492.772	0.92
492.897	8.92
493.021	26.92
493.145	23.92
493.27	23.92
493.394	8.92
493.518	14.92
493.643	10.92
493.767	28.92
493.891	-4.08
494.016	3.92
494.14	10.92
494.264	3.92
494.389	29.92
494.513	14.92
494.637	4.92
494.762	13.92
494.886	0.92
495.01	18.92
495.134	13.92
495.259	16.92
495.383	14.92
495.507	22.92
495.632	29.92
495.756	27.92
495.88	13.92
496.004	-10.08
496.129	-8.08
496.253	16.92
496.377	7.92
496.501	17.92
496.626	-0.08
496.75	26.92
496.874	20.92
496.998	4.92
497.123	23.92
497.247	11.92
497.371	13.92
497.495	17.92
497.62	11.92
497.744	4.92
497.868	7.92
497.992	-1.08
498.116	-4.08
498.241	3.92
498.365	1.92
498.489	4.92
498.613	18.92
498.737	11.92
498.862	6.92
498.986	-8.08
499.11	8.92
499.234	-6.08
499.358	5.92
499.482	14.92
499.607	7.92
499.731	23.92
499.855	30.92
499.979	11.92
500.103	16.92
500.227	8.92
500.351	6.92
500.476	-3.08
500.6	18.92
500.724	10.92
500.848	-5.08
500.972	11.92
501.096	7.92
501.22	16.92
501.344	-9.08
501.469	-1.08
501.593	15.92
501.717	12.92
501.841	-5.08
501.965	12.92
502.089	-3.08
502.213	11.92
502.337	3.92
502.461	15.92
502.585	19.92
502.709	27.92
502.834	-1.08
502.958	-2.08
503.082	16.92
503.206	9.92
503.33	20.92
503.454	5.92
503.578	-2.08
503.702	8.92
503.826	21.92
503.95	18.92
504.074	-4.08
504.198	-6.08
504.322	-3.08
504.446	6.92
504.57	15.92
504.694	18.92
504.818	9.92
504.942	26.92
505.066	14.92
505.19	12.92
505.314	14.92
505.438	10.92
505.562	1.92
505.686	10.92
505.81	12.92
505.934	12.92
506.058	-4.08
506.182	2.92
506.306	7.92
506.43	-5.08
506.554	14.92
506.678	5.92
506.802	7.92
506.926	14.92
507.05	-0.08
507.174	2.92
507.298	29.92
507.422	11.92
507.546	2.92
507.67	27.92
507.794	-7.08
507.918	3.92
508.042	6.92
508.165	-4.08
508.289	-9.08
508.413	19.92
508.537	-16.08
508.661	12.92
508.785	6.92
508.909	3.92
509.033	-1.08
509.157	6.92
509.281	18.92
509.405	23.92
509.528	31.92
509.652	18.92
509.776	-4.08
509.9	22.92
510.024	-8.08
510.148	12.92
510.272	2.92
510.396	15.92
510.519	2.92
510.643	16.92
510.767	19.92
510.891	17.92
511.015	9.92
511.139	14.92
511.263	19.92
511.386	9.92
511.51	20.92
511.634	15.92
511.758	2.92
511.882	-12.08
512.006	15.92
512.129	15.92
512.253	23.92
512.377	3.92
512.501	13.92
512.625	12.92
512.748	-0.08
512.872	9.92
512.996	-4.08
513.12	-10.08
513.244	-3.08
513.367	7.92
513.491	17.92
513.615	15.92
513.739	3.92
513.862	19.92
513.986	4.92
514.11	-11.08
514.234	10.92
514.358	20.92
514.481	12.92
514.605	-1.08
514.729	10.92
514.853	9.92
514.976	-6.08
515.1	18.92
515.224	27.92
515.348	5.92
515.471	4.92
515.595	11.92
515.719	2.92
515.842	30.92
515.966	6.92
516.09	24.92
516.214	8.92
516.337	38.92
516.461	14.92
516.585	5.92
516.708	16.92
516.832	24.92
516.956	-1.08
517.08	-0.08
517.203	-0.08
517.327	15.92
517.451	40.92
517.574	21.92
517.698	8.92
517.822	5.92
517.945	15.92
518.069	31.92
518.193	50.92
518.316	33.92
518.44	22.92
518.564	30.92
518.687	24.92
518.811	31.92
518.935	58.92
519.058	13.92
519.182	26.92
519.306	31.92
519.429	9.92
519.553	17.92
519.676	26.92
519.8	11.92
519.924	4.92
520.047	18.92
520.171	20.92
520.294	1.92
520.418	3.92
520.542	-0.08
520.665	38.92
520.789	9.92
520.913	-18.08
521.036	-10.08
521.16	12.92
521.283	2.92
521.407	-3.08
521.53	-8.08
521.654	-10.08
521.778	22.92
521.901	26.92
522.025	15.92
522.148	2.92
522.272	-8.08
522.395	7.92
522.519	8.92
522.643	-2.08
522.766	14.92
522.89	12.92
523.013	0.92
523.137	-12.08
523.26	-9.08
523.384	11.92
523.507	5.92
523.631	-0.08
523.754	-1.08
523.878	3.92
524.002	14.92
524.125	3.92
524.249	-7.08
524.372	8.92
524.496	18.92
524.619	6.92
524.743	-0.08
524.866	8.92
524.99	23.92
525.113	-23.08
525.237	13.92
525.36	0.92
525.484	7.92
525.607	-0.08
525.731	-8.08
525.854	7.92
525.978	43.92
526.101	6.92
526.224	10.92
526.348	5.92
526.471	9.92
526.595	9.92
526.718	13.92
526.842	-8.08
526.965	14.92
527.089	-0.08
527.212	7.92
527.336	7.92
527.459	-3.08
527.582	-10.08
527.706	21.92
527.829	26.92
527.953	19.92
528.076	-5.08
528.2	5.92
528.323	39.92
528.446	35.92
528.57	12.92
528.693	19.92
528.817	10.92
528.94	7.92
529.064	44.92
529.187	14.92
529.31	4.92
529.434	-3.08
529.557	11.92
529.68	1.92
529.804	5.92
529.927	6.92
530.051	16.92
530.174	-6.08
530.297	-1.08
530.421	15.92
530.544	12.92
530.668	7.92
530.791	-5.08
530.914	22.92
531.038	1.92
531.161	-5.08
531.284	2.92
531.408	6.92
531.531	8.92
531.654	5.92
531.778	24.92
531.901	-5.08
532.024	-2.08
532.148	-15.08
532.271	-3.08
532.394	-14.08
532.518	15.92
532.641	16.92
532.764	34.92
532.888	12.92
533.011	-8.08
533.134	-16.08
533.258	9.92
533.381	8.92
533.504	-10.08
533.628	4.92
533.751	-1.08
533.874	5.92
533.997	6.92
534.121	-3.08
534.244	0.92
534.367	-7.08
534.491	17.92
534.614	11.92
534.737	3.92
534.86	21.92
534.984	-5.08
535.107	-3.08
535.23	-6.08
535.354	-2.08
535.477	-4.08
535.6	-4.08
535.723	16.92
535.847	19.92
535.97	-13.08
536.093	2.92
536.216	2.92
536.34	0.92
536.463	-0.08
536.586	17.92
536.709	14.92
536.833	22.92
536.956	13.92
537.079	-2.08
537.202	9.92
537.325	-5.08
537.449	-18.08
537.572	15.92
537.695	0.92
537.818	6.92
537.941	-9.08
538.065	5.92
538.188	-7.08
538.311	5.92
538.434	17.92
538.558	0.92
538.681	15.92
538.804	15.92
538.927	19.92
539.05	14.92
539.173	-3.08
539.297	-9.08
539.42	0.92
539.543	-0.08
539.666	17.92
539.789	17.92
539.913	15.92
540.036	-0.08
540.159	8.92
540.282	-7.08
540.405	-19.08
540.528	-11.08
540.651	0.92
540.775	-8.08
540.898	4.92
541.021	-2.08
541.144	5.92
541.267	-7.08
541.39	14.92
541.513	14.92
541.637	15.92
541.76	-9.08
541.883	-0.08
542.006	-1.08
542.129	26.92
542.252	5.92
542.375	0.92
542.498	4.92
542.622	20.92
542.745	7.92
542.868	-2.08
542.991	12.92
543.114	23.92
543.237	23.92
543.36	24.92
543.483	12.92
543.606	6.92
543.73	23.92
543.853	0.92
543.976	-4.08
544.099	18.92
544.222	3.92
544.345	-12.08
544.468	-14.08
544.591	7.92
544.714	3.92
544.837	18.92
544.96	-0.08
545.083	6.92
545.206	11.92
545.329	15.92
545.453	8.92
545.576	17.92
545.699	17.92
545.822	-4.08
545.945	20.92
546.068	-5.08
546.191	11.92
546.314	6.92
546.437	20.92
546.56	22.92
546.683	6.92
546.806	24.92
546.929	3.92
547.052	-1.08
547.175	-12.08
547.298	8.92
547.421	-3.08
547.544	-13.08
547.667	17.92
547.79	11.92
547.913	-15.08
548.036	-11.08
548.159	-3.08
548.282	6.92
548.405	-25.08
548.528	7.92
548.651	5.92
548.774	8.92
548.897	11.92
549.02	32.92
549.143	33.92
549.266	14.92
549.389	24.92
549.512	-12.08
549.635	24.92
549.758	25.92
549.881	7.92
550.004	6.92
550.127	1.92
550.25	-3.08
550.373	13.92
550.496	-4.08
550.619	7.92
550.742	-6.08
550.865	-17.08
550.988	-4.08
551.111	23.92
551.234	3.92
551.356	-7.08
551.479	-12.08
551.602	-0.08
551.725	6.92
551.848	22.92
551.971	19.92
552.094	9.92
552.217	-15.08
552.34	20.92
552.463	-20.08
552.586	11.92
552.709	0.92
552.832	-9.08
552.955	10.92
553.077	3.92
553.2	-1.08
553.323	-1.08
553.446	8.92
553.569	-10.08
553.692	3.92
553.815	0.92
553.938	13.92
554.061	3.92
554.184	11.92
554.306	2.92
554.429	18.92
554.552	2.92
554.675	-21.08
554.798	15.92
554.921	4.92
555.044	-2.08
555.167	5.92
555.29	-5.08
555.412	8.92
555.535	8.92
555.658	-2.08
555.781	2.92
555.904	-3.08
556.027	-1.08
556.15	5.92
556.272	4.92
556.395	16.92
556.518	-10.08
556.641	14.92
556.764	15.92
556.887	8.92
557.01	-1.08
557.132	-13.08
557.255	5.92
557.378	16.92
557.501	-2.08
557.624	2.92
557.747	18.92
557.869	3.92
557.992	-3.08
558.115	2.92
558.238	0.92
558.361	25.92
558.483	38.92
558.606	11.92
558.729	-8.08
558.852	12.92
558.975	14.92
559.098	8.92
559.22	-11.08
559.343	3.92
559.466	16.92
559.589	0.92
559.712	19.92
559.834	-4.08
559.957	4.92
560.08	8.92
560.203	10.92
560.325	11.92
560.448	24.92
560.571	-6.08
560.694	5.92
560.817	36.92
560.939	-8.08
561.062	-4.08
561.185	15.92
561.308	3.92
561.43	-7.08
561.553	-5.08
561.676	11.92
561.799	30.92
561.921	-2.08
562.044	26.92
562.167	-8.08
562.29	16.92
562.413	14.92
562.535	33.92
562.658	1.92
562.781	12.92
562.903	14.92
563.026	10.92
563.149	32.92
563.272	0.92
563.394	1.92
563.517	-9.08
563.64	-4.08
563.763	16.92
563.885	-1.08
564.008	21.92
564.131	17.92
564.254	4.92
564.376	-0.08
564.499	-23.08
564.622	-1.08
564.744	3.92
564.867	-5.08
564.99	0.92
565.113	2.92
565.235	15.92
565.358	6.92
565.481	-21.08
565.603	-9.08
565.726	-1.08
565.849	19.92
565.971	15.92
566.094	-11.08
566.217	5.92
566.34	7.92
566.462	26.92
566.585	18.92
566.708	7.92
566.83	4.92
566.953	32.92
567.076	11.92
567.198	1.92
567.321	-7.08
567.444	4.92
567.566	1.92
567.689	-2.08
567.812	-8.08
567.934	7.92
568.057	8.92
568.18	22.92
568.302	6.92
568.425	1.92
568.548	4.92
568.67	4.92
568.793	1.92
568.916	10.92
569.038	-3.08
569.161	6.92
569.283	15.92
569.406	4.92
569.529	4.92
569.651	-5.08
569.774	-2.08
569.897	3.92
570.019	30.92
570.142	22.92
570.265	11.92
570.387	-11.08
570.51	14.92
570.632	11.92
570.755	2.92
570.878	7.92
571	16.92
571.123	0.92
571.246	0.92
571.368	9.92
571.491	3.92
571.613	-11.08
571.736	-1.08
571.859	0.92
571.981	-11.08
572.104	3.92
572.226	13.92
572.349	1.92
572.472	15.92
572.594	26.92
572.717	22.92
572.839	-2.08
572.962	-0.08
573.085	12.92
573.207	-3.08
573.33	-2.08
573.452	15.92
573.575	16.92
573.697	15.92
573.82	15.92
573.943	20.92
574.065	19.92
574.188	-11.08
574.31	20.92
574.433	14.92
574.555	22.92
574.678	15.92
574.801	-2.08
574.923	-13.08
575.046	10.92
575.168	-3.08
575.291	-16.08
575.413	1.92
575.536	8.92
575.659	21.92
575.781	-2.08
575.904	6.92
576.026	9.92
576.149	-8.08
576.271	7.92
576.394	-1.08
576.516	-1.08
576.639	6.92
576.761	-1.08
576.884	-3.08
577.007	3.92
577.129	16.92
577.252	8.92
577.374	16.92
577.497	-3.08
577.619	4.92
577.742	-5.08
577.864	1.92
577.987	21.92
578.109	35.92
578.232	21.92
578.354	20.92
578.477	6.92
578.599	-4.08
578.722	-2.08
578.844	-7.08
578.967	-5.08
579.089	-4.08
579.212	-18.08
579.334	12.92
579.457	0.92
579.579	16.92
579.702	13.92
579.824	14.92
579.947	-3.08
580.069	1.92
580.192	-4.08
580.314	19.92
580.437	7.92
580.559	20.92
580.682	2.92
580.804	18.92
580.927	17.92
581.049	17.92
581.172	-1.08
581.294	19.92
581.417	4.92
581.539	7.92
581.662	15.92
581.784	14.92
581.907	17.92
582.029	11.92
582.152	-7.08
582.274	24.92
582.396	0.92
582.519	6.92
582.641	-8.08
582.764	-9.08
582.886	7.92
583.009	6.92
583.131	0.92
583.254	9.92
583.376	18.92
583.499	8.92
583.621	8.92
583.743	36.92
583.866	30.92
583.988	0.92
584.111	26.92
584.233	6.92
584.356	14.92
584.478	-1.08
584.601	-13.08
584.723	7.92
584.845	5.92
584.968	5.92
585.09	-13.08
585.213	14.92
585.335	9.92
585.458	14.92
585.58	12.92
585.702	14.92
585.825	13.92
585.947	-5.08
586.07	-6.08
586.192	-26.08
586.315	-0.08
586.437	-10.08
586.559	-3.08
586.682	-4.08
586.804	10.92
586.927	-4.08
587.049	10.92
587.171	13.92
587.294	15.92
587.416	34.92
587.539	-3.08
587.661	-4.08
587.783	-1.08
587.906	2.92
588.028	8.92
588.151	16.92
588.273	19.92
588.395	14.92
588.518	1.92
588.64	8.92
588.763	28.92
588.885	13.92
589.007	24.92
589.13	-8.08
589.252	-16.08
589.375	-5.08
589.497	-13.08
589.619	10.92
589.742	5.92
589.864	19.92
589.986	22.92
590.109	-8.08
590.231	-1.08
590.354	9.92
590.476	-17.08
590.598	-6.08
590.721	-0.08
590.843	8.92
590.965	-7.08
591.088	12.92
591.21	-3.08
591.332	-11.08
591.455	-16.08
591.577	-5.08
591.7	8.92
591.822	-9.08
591.944	11.92
592.067	4.92
592.189	0.92
592.311	3.92
592.434	9.92
592.556	12.92
592.678	7.92
592.801	9.92
592.923	-0.08
593.045	-9.08
593.168	4.92
593.29	-3.08
593.412	25.92
593.535	1.92
593.657	-19.08
593.779	8.92
593.902	21.92
594.024	9.92
594.146	3.92
594.269	8.92
594.391	-3.08
594.513	-1.08
594.636	-12.08
594.758	-2.08
594.88	3.92
595.003	24.92
595.125	-9.08
595.247	-1.08
595.37	12.92
595.492	8.92
595.614	33.92
595.737	0.92
595.859	-3.08
595.981	-1.08
596.104	-4.08
596.226	-22.08
596.348	3.92
596.471	6.92
596.593	-1.08
596.715	-11.08
596.838	-1.08
596.96	7.92
597.082	14.92
597.204	5.92
597.327	29.92
597.449	0.92
597.571	-1.08
597.694	15.92
597.816	5.92
597.938	-15.08
598.061	-3.08
598.183	-4.08
598.305	13.92
598.427	-12.08
598.55	9.92
598.672	24.92
598.794	5.92
598.917	4.92
599.039	4.92
599.161	1.92
599.283	-6.08
599.406	1.92
599.528	22.92
599.65	26.92
599.773	7.92
599.895	28.92
600.017	34.92
600.139	22.92
600.262	5.92
600.384	17.92
600.506	17.92
600.628	14.92
600.751	-1.08
600.873	9.92
600.995	-4.08
601.118	18.92
601.24	4.92
601.362	14.92
601.484	-3.08
601.607	17.92
601.729	2.92
601.851	7.92
601.973	6.92
602.096	13.92
602.218	5.92
602.34	21.92
602.462	14.92
602.585	3.92
602.707	-12.08
602.829	18.92
602.951	3.92
603.074	-6.08
603.196	4.92
603.318	-12.08
603.44	23.92
603.563	14.92
603.685	-16.08
603.807	18.92
603.929	13.92
604.052	19.92
604.174	16.92
604.296	27.92
604.418	24.92
604.541	23.92
604.663	-11.08
604.785	5.92
604.907	11.92
605.03	7.92
605.152	28.92
605.274	4.92
605.396	6.92
605.519	26.92
605.641	8.92
605.763	2.92
605.885	-4.08
606.008	5.92
606.13	6.92
606.252	12.92
606.374	12.92
606.496	0.92
606.619	11.92
606.741	10.92
606.863	35.92
606.985	15.92
607.108	12.92
607.23	-2.08
607.352	-3.08
607.474	13.92
607.596	13.92
607.719	13.92
607.841	15.92
607.963	18.92
608.085	9.92
608.207	22.92
608.33	4.92
608.452	7.92
608.574	13.92
608.696	21.92
608.819	7.92
608.941	7.92
609.063	9.92
609.185	1.92
609.307	18.92
609.43	11.92
609.552	7.92
609.674	-0.08
609.796	10.92
609.918	-0.08
610.041	4.92
610.163	17.92
610.285	5.92
610.407	-0.08
610.529	12.92
610.652	8.92
610.774	12.92
610.896	-2.08
611.018	-0.08
611.14	-5.08
611.263	-5.08
611.385	-16.08
611.507	9.92
611.629	-2.08
611.751	23.92
611.873	22.92
611.996	-4.08
612.118	20.92
612.24	-5.08
612.362	10.92
612.484	18.92
612.607	12.92
612.729	9.92
612.851	0.92
612.973	11.92
613.095	3.92
613.218	12.92
613.34	6.92
613.462	19.92
613.584	10.92
613.706	-3.08
613.828	29.92
613.951	12.92
614.073	10.92
614.195	-17.08
614.317	30.92
614.439	30.92
614.561	19.92
614.684	18.92
614.806	20.92
614.928	28.92
615.05	5.92
615.172	25.92
615.294	0.92
615.417	5.92
615.539	-5.08
615.661	18.92
615.783	19.92
615.905	8.92
616.027	70.92
616.15	112.92
616.272	88.92
616.394	47.92
616.516	38.92
616.638	26.92
616.76	23.92
616.883	26.92
617.005	8.92
617.127	-12.08
617.249	15.92
617.371	8.92
617.493	0.92
617.615	10.92
617.738	11.92
617.86	19.92
617.982	11.92
618.104	5.92
618.226	-13.08
618.348	-14.08
618.471	4.92
618.593	-1.08
618.715	-12.08
618.837	17.92
618.959	26.92
619.081	26.92
619.203	3.92
619.326	6.92
619.448	9.92
619.57	12.92
619.692	-5.08
619.814	17.92
619.936	9.92
620.058	21.92
620.181	16.92
620.303	9.92
620.425	8.92
620.547	-7.08
620.669	-2.08
620.791	3.92
620.913	3.92
621.036	-0.08
621.158	5.92
621.28	-2.08
621.402	-0.08
621.524	-9.08
621.646	-1.08
621.768	-17.08
621.891	-16.08
622.013	-3.08
622.135	-7.08
622.257	-10.08
622.379	-9.08
622.501	4.92
622.623	4.92
622.745	-1.08
622.868	-4.08
622.99	-3.08
623.112	4.92
623.234	3.92
623.356	14.92
623.478	-10.08
623.6	10.92
623.722	23.92
623.845	19.92
623.967	-12.08
624.089	12.92
624.211	9.92
624.333	22.92
624.455	19.92
624.577	0.92
624.699	10.92
624.822	1.92
624.944	-5.08
625.066	2.92
625.188	-14.08
625.31	11.92
625.432	23.92
625.554	21.92
625.676	18.92
625.799	9.92
625.921	8.92
626.043	-4.08
626.165	3.92
626.287	-20.08
626.409	-1.08
626.531	-12.08
626.653	9.92
626.775	6.92
626.898	-12.08
627.02	-0.08
627.142	26.92
627.264	13.92
627.386	-3.08
627.508	12.92
627.63	7.92
627.752	-1.08
627.874	4.92
627.997	0.92
628.119	27.92
628.241	-3.08
628.363	4.92
628.485	11.92
628.607	1.92
628.729	7.92
628.851	4.92
628.973	-7.08
629.096	-11.08
629.218	14.92
629.34	2.92
629.462	-14.08
629.584	6.92
629.706	23.92
629.828	6.92
629.95	6.92
630.072	-12.08
630.195	4.92
630.317	4.92
630.439	9.92
630.561	3.92
630.683	-15.08
630.805	7.92
630.927	3.92
631.049	-4.08
631.171	-1.08
631.293	9.92
631.416	16.92
631.538	3.92
631.66	13.92
631.782	23.92
631.904	26.92
632.026	-9.08
632.148	14.92
632.27	-14.08
632.392	3.92
632.514	4.92
632.637	22.92
632.759	-1.08
632.881	-3.08
633.003	-0.08
633.125	-0.08
633.247	-5.08
633.369	-6.08
633.491	8.92
633.613	12.92
633.735	6.92
633.858	20.92
633.98	16.92
634.102	-21.08
634.224	-5.08
634.346	7.92
634.468	2.92
634.59	13.92
634.712	11.92
634.834	-0.08
634.956	-5.08
635.078	-4.08
635.201	12.92
635.323	6.92
635.445	-3.08
635.567	-12.08
635.689	5.92
635.811	-4.08
635.933	4.92
636.055	-4.08
636.177	-14.08
636.299	14.92
636.421	8.92
636.544	-6.08
636.666	9.92
636.788	7.92
636.91	14.92
637.032	0.92
637.154	5.92
637.276	31.92
637.398	10.92
637.52	17.92
637.642	9.92
637.764	-2.08
637.887	-3.08
638.009	16.92
638.131	-7.08
638.253	2.92
638.375	19.92
638.497	17.92
638.619	-8.08
638.741	20.92
638.863	-1.08
638.985	-0.08
639.107	0.92
639.23	4.92
639.352	12.92
639.474	-1.08
639.596	-5.08
639.718	-0.08
639.84	-2.08
639.962	7.92
640.084	13.92
640.206	10.92
640.328	-6.08
640.45	-4.08
640.573	-11.08
640.695	-16.08
640.817	6.92
640.939	8.92
641.061	9.92
641.183	-3.08
641.305	3.92
641.427	5.92
641.549	-10.08
641.671	6.92
641.793	6.92
641.915	29.92
642.038	-2.08
642.16	3.92
642.282	-13.08
642.404	-1.08
642.526	22.92
642.648	4.92
642.77	-9.08
642.892	-15.08
643.014	21.92
643.136	-12.08
643.258	4.92
643.381	15.92
643.503	23.92
643.625	3.92
643.747	15.92
643.869	9.92
643.991	20.92
644.113	7.92
644.235	3.92
644.357	-13.08
644.479	-1.08
644.601	0.92
644.723	5.92
644.846	11.92
644.968	3.92
645.09	-0.08
645.212	12.92
645.334	-3.08
645.456	17.92
645.578	7.92
645.7	3.92
645.822	15.92
645.944	11.92
646.066	12.92
646.188	5.92
646.311	24.92
646.433	-2.08
646.555	40.92
646.677	39.92
646.799	38.92
646.921	12.92
647.043	19.92
647.165	7.92
647.287	12.92
647.409	11.92
647.531	6.92
647.654	-25.08
647.776	14.92
647.898	3.92
648.02	-16.08
648.142	-16.08
648.264	-5.08
648.386	6.92
648.508	-7.08
648.63	11.92
648.752	11.92
648.874	-4.08
648.997	4.92
649.119	31.92
649.241	3.92
649.363	14.92
649.485	9.92
649.607	7.92
649.729	1.92
649.851	-4.08
649.973	2.92
650.095	9.92
650.217	-5.08
650.34	0.92
650.462	9.92
650.584	14.92
650.706	0.92
650.828	3.92
650.95	-0.08
651.072	11.92
651.194	10.92
651.316	10.92
651.438	18.92
651.56	-13.08
651.683	-12.08
651.805	8.92
651.927	5.92
652.049	-9.08
652.171	-2.08
652.293	5.92
652.415	3.92
652.537	-10.08
652.659	2.92
652.781	5.92
652.903	12.92
653.026	23.92
653.148	10.92
653.27	14.92
653.392	10.92
653.514	-5.08
653.636	12.92
653.758	-1.08
653.88	-3.08
654.002	-0.08
654.124	3.92
654.247	-5.08
654.369	26.92
654.491	0.92
654.613	4.92
654.735	5.92
654.857	23.92
654.979	18.92
655.101	29.92
655.223	55.92
655.345	24.92
655.468	37.92
655.59	24.92
655.712	18.92
655.834	20.92
655.956	33.92
656.078	26.92
656.2	36.92
656.322	32.92
656.444	21.92
656.566	40.92
656.689	42.92
656.811	45.92
656.933	89.92
657.055	72.92
657.177	133.92
657.299	252.92
657.421	508.92
657.543	1836.92
657.665	12486.92
657.787	15155.92
657.91	15224.92
658.032	15657.92
658.154	4615.92
658.276	3242.92
658.398	1100.92
658.52	1001.92
658.642	467.92
658.764	584.92
658.886	267.92
659.009	412.92
659.131	223.92
659.253	309.92
659.375	160.92
659.497	258.92
659.619	123.92
659.741	186.92
659.863	86.92
659.985	144.92
660.108	87.92
660.23	127.92
660.352	70.92
660.474	144.92
660.596	86.92
660.718	131.92
660.84	58.92
660.962	122.92
661.084	44.92
661.207	95.92
661.329	38.92
661.451	92.92
661.573	45.92
661.695	90.92
661.817	53.92
661.939	102.92
662.061	47.92
662.184	76.92
662.306	28.92
662.428	60.92
662.55	47.92
662.672	47.92
662.794	26.92
662.916	57.92
663.038	22.92
663.161	71.92
663.283	50.92
663.405	64.92
663.527	30.92
663.649	71.92
663.771	17.92
663.893	40.92
664.015	26.92
664.138	51.92
664.26	21.92
664.382	40.92
664.504	18.92
664.626	22.92
664.748	7.92
664.87	31.92
664.992	26.92
665.115	43.92
665.237	11.92
665.359	38.92
665.481	14.92
665.603	39.92
665.725	2.92
665.847	19.92
665.97	13.92
666.092	34.92
666.214	33.92
666.336	16.92
666.458	43.92
666.58	38.92
666.702	12.92
666.825	31.92
666.947	5.92
667.069	30.92
667.191	14.92
667.313	56.92
667.435	18.92
667.557	11.92
667.68	19.92
667.802	31.92
667.924	6.92
668.046	33.92
668.168	26.92
668.29	42.92
668.412	5.92
668.535	24.92
668.657	16.92
668.779	28.92
668.901	18.92
669.023	33.92
669.145	2.92
669.267	37.92
669.39	9.92
669.512	9.92
669.634	-13.08
669.756	13.92
669.878	11.92
670	29.92
670.123	6.92
670.245	16.92
670.367	4.92
670.489	21.92
670.611	0.92
670.733	9.92
670.856	1.92
670.978	16.92
671.1	9.92
671.222	14.92
671.344	25.92
671.466	21.92
671.589	6.92
671.711	17.92
671.833	-13.08
671.955	5.92
672.077	-2.08
672.199	33.92
672.322	32.92
672.444	16.92
672.566	30.92
672.688	10.92
672.81	30.92
672.932	29.92
673.055	7.92
673.177	-0.08
673.299	3.92
673.421	2.92
673.543	24.92
673.665	17.92
673.788	27.92
673.91	9.92
674.032	3.92
674.154	15.92
674.276	9.92
674.399	-8.08
674.521	-2.08
674.643	8.92
674.765	-1.08
674.887	21.92
675.009	23.92
675.132	-17.08
675.254	16.92
675.376	12.92
675.498	11.92
675.62	21.92
675.743	8.92
675.865	23.92
675.987	-21.08
676.109	23.92
676.231	3.92
676.354	30.92
676.476	-3.08
676.598	19.92
676.72	0.92
676.842	13.92
676.965	4.92
677.087	31.92
677.209	2.92
677.331	15.92
677.453	4.92
677.576	8.92
677.698	4.92
677.82	-0.08
677.942	-1.08
678.064	0.92
678.187	5.92
678.309	12.92
678.431	0.92
678.553	13.92
678.675	26.92
678.798	14.92
678.92	-4.08
679.042	23.92
679.164	2.92
679.286	39.92
679.409	19.92
679.531	-5.08
679.653	-2.08
679.775	10.92
679.898	2.92
680.02	-9.08
680.142	-4.08
680.264	12.92
680.386	-9.08
680.509	17.92
680.631	13.92
680.753	16.92
680.875	-4.08
680.998	14.92
681.12	-4.08
681.242	15.92
681.364	-21.08
681.486	9.92
681.609	-10.08
681.731	-4.08
681.853	-0.08
681.975	2.92
682.098	10.92
682.22	28.92
682.342	4.92
682.464	23.92
682.587	12.92
682.709	20.92
682.831	-11.08
682.953	-1.08
683.076	1.92
683.198	13.92
683.32	0.92
683.442	6.92
683.565	14.92
683.687	3.92
683.809	-1.08
683.931	-13.08
684.054	13.92
684.176	12.92
684.298	11.92
684.42	-0.08
684.543	-0.08
684.665	6.92
684.787	2.92
684.909	-5.08
685.032	4.92
685.154	-14.08
685.276	2.92
685.398	-1.08
685.521	-19.08
685.643	1.92
685.765	-1.08
685.887	13.92
686.01	-4.08
686.132	-4.08
686.254	19.92
686.377	25.92
686.499	14.92
686.621	-2.08
686.743	-4.08
686.866	15.92
686.988	15.92
687.11	7.92
687.232	5.92
687.355	-8.08
687.477	2.92
687.599	-6.08
687.722	-7.08
687.844	-8.08
687.966	2.92
688.088	5.92
688.211	29.92
688.333	29.92
688.455	12.92
688.578	6.92
688.7	9.92
688.822	1.92
688.944	-18.08
689.067	44.92
689.189	4.92
689.311	2.92
689.434	-5.08
689.556	5.92
689.678	20.92
689.801	8.92
689.923	8.92
690.045	30.92
690.167	18.92
690.29	13.92
690.412	-13.08
690.534	19.92
690.657	7.92
690.779	-12.08
690.901	12.92
691.024	14.92
691.146	-11.08
691.268	-12.08
691.391	9.92
691.513	24.92
691.635	21.92
691.758	16.92
691.88	14.92
692.002	-12.08
692.125	12.92
692.247	-3.08
692.369	-4.08
692.492	-21.08
692.614	2.92
692.736	-9.08
692.859	-10.08
692.981	-9.08
693.103	-6.08
693.226	-1.08
693.348	7.92
693.47	18.92
693.593	3.92
693.715	-13.08
693.837	-6.08
693.96	-1.08
694.082	-12.08
694.204	18.92
694.327	-2.08
694.449	-6.08
694.571	5.92
694.694	10.92
694.816	14.92
694.938	-1.08
695.061	20.92
695.183	3.92
695.305	-7.08
695.428	8.92
695.55	-1.08
695.672	3.92
695.795	17.92
695.917	29.92
696.04	20.92
696.162	-10.08
696.284	-1.08
696.407	11.92
696.529	2.92
696.651	22.92
696.774	1.92
696.896	39.92
697.019	14.92
697.141	-4.08
697.263	5.92
697.386	-3.08
697.508	6.92
697.63	11.92
697.753	-1.08
697.875	-5.08
697.998	-10.08
698.12	5.92
698.242	13.92
698.365	10.92
698.487	1.92
698.61	3.92
698.732	17.92
698.854	17.92
698.977	3.92
699.099	19.92
699.221	7.92
699.344	-10.08
699.466	10.92
699.589	19.92
699.711	24.92
699.834	16.92
699.956	8.92
700.078	7.92
700.201	-4.08
700.323	24.92
700.446	14.92
700.568	-13.08
700.69	18.92
700.813	19.92
700.935	-5.08
701.058	4.92
701.18	4.92
701.302	0.92
701.425	-5.08
701.547	-5.08
701.67	-6.08
701.792	18.92
701.915	-0.08
702.037	-14.08
702.159	10.92
702.282	14.92
702.404	-5.08
702.527	-1.08
702.649	-4.08
702.772	14.92
702.894	1.92
703.017	15.92
703.139	4.92
703.261	30.92
703.384	19.92
703.506	-9.08
703.629	-3.08
703.751	-0.08
703.874	11.92
703.996	-9.08
704.119	-13.08
704.241	9.92
704.364	-1.08
704.486	16.92
704.608	17.92
704.731	-2.08
704.853	13.92
704.976	-3.08
705.098	-8.08
705.221	12.92
705.343	-4.08
705.466	4.92
705.588	5.92
705.711	11.92
705.833	18.92
705.956	-7.08
706.078	10.92
706.201	15.92
706.323	-3.08
706.446	-2.08
