Data from LowRes_H2_15_26_11_07_2024_HR4C61881__54__15-28-19-037.txt Node

Date: Thu Nov 07 15:28:19 EST 2024
User: crc00042
Spectrometer: HR4C6188
Trigger mode: 4
Integration Time (sec): 1.000000E-1
Scans to average: 1
Electric dark correction enabled: true
Nonlinearity correction enabled: false
Boxcar width: 0
XAxis mode: Wavelengths
Number of Pixels in Spectrum: 3648
>>>>>Begin Spectral Data<<<<<
245.66	-79.92
245.797	-79.92
245.934	-79.92
246.071	-77.92
246.208	-1.92
246.344	-8.92
246.481	-3.92
246.618	-16.92
246.755	5.08
246.892	-10.92
247.029	-15.92
247.165	-10.92
247.302	10.08
247.439	12.08
247.576	2.08
247.713	4.08
247.849	43.08
247.986	-8.92
248.123	0.08
248.26	-14.92
248.396	4.08
248.533	-5.92
248.67	-2.92
248.806	-5.92
248.943	-4.92
249.08	-3.92
249.216	11.08
249.353	-21.92
249.49	-13.92
249.626	-0.92
249.763	3.08
249.9	-14.92
250.036	-0.92
250.173	-6.92
250.309	-9.92
250.446	-8.92
250.582	-7.92
250.719	-17.92
250.856	3.08
250.992	0.08
251.129	-7.92
251.265	-2.92
251.402	3.08
251.538	-10.92
251.675	-10.92
251.811	6.08
251.948	25.08
252.084	12.08
252.221	4.08
252.357	12.08
252.493	21.08
252.63	8.08
252.766	6.08
252.903	-13.92
253.039	-4.92
253.175	-9.92
253.312	20.08
253.448	-11.92
253.585	-15.92
253.721	2.08
253.857	-8.92
253.994	-5.92
254.13	2.08
254.266	-6.92
254.403	-3.92
254.539	-2.92
254.675	6.08
254.811	20.08
254.948	18.08
255.084	11.08
255.22	-16.92
255.356	7.08
255.493	25.08
255.629	-9.92
255.765	30.08
255.901	8.08
256.037	-4.92
256.174	14.08
256.31	-11.92
256.446	-7.92
256.582	1.08
256.718	-11.92
256.854	10.08
256.991	14.08
257.127	19.08
257.263	21.08
257.399	-2.92
257.535	-5.92
257.671	-4.92
257.807	-19.92
257.943	-6.92
258.079	-6.92
258.215	2.08
258.351	-2.92
258.487	-11.92
258.623	15.08
258.759	-7.92
258.895	-2.92
259.031	1.08
259.167	-8.92
259.303	3.08
259.439	-0.92
259.575	-21.92
259.711	6.08
259.847	-1.92
259.983	21.08
260.119	-7.92
260.255	-20.92
260.391	19.08
260.527	26.08
260.663	12.08
260.799	-4.92
260.934	-9.92
261.07	-12.92
261.206	-7.92
261.342	-4.92
261.478	27.08
261.614	9.08
261.749	12.08
261.885	6.08
262.021	-0.92
262.157	5.08
262.293	-5.92
262.428	-11.92
262.564	8.08
262.7	-0.92
262.836	-10.92
262.971	-7.92
263.107	10.08
263.243	14.08
263.378	2.08
263.514	-23.92
263.65	-8.92
263.785	-24.92
263.921	2.08
264.057	-5.92
264.192	6.08
264.328	9.08
264.464	2.08
264.599	9.08
264.735	19.08
264.871	6.08
265.006	10.08
265.142	1.08
265.277	7.08
265.413	8.08
265.548	7.08
265.684	10.08
265.819	-7.92
265.955	-1.92
266.091	-10.92
266.226	-3.92
266.362	0.08
266.497	2.08
266.633	14.08
266.768	0.08
266.903	10.08
267.039	6.08
267.174	3.08
267.31	-7.92
267.445	-17.92
267.581	-2.92
267.716	2.08
267.851	3.08
267.987	7.08
268.122	27.08
268.258	-0.92
268.393	7.08
268.528	11.08
268.664	-6.92
268.799	-30.92
268.934	-2.92
269.07	0.08
269.205	-7.92
269.34	15.08
269.476	12.08
269.611	-14.92
269.746	11.08
269.881	0.08
270.017	2.08
270.152	-2.92
270.287	-5.92
270.422	27.08
270.558	7.08
270.693	14.08
270.828	-3.92
270.963	-12.92
271.098	-17.92
271.234	-24.92
271.369	7.08
271.504	-2.92
271.639	-11.92
271.774	-9.92
271.909	10.08
272.045	-5.92
272.18	-12.92
272.315	-11.92
272.45	5.08
272.585	3.08
272.72	0.08
272.855	-1.92
272.99	22.08
273.125	2.08
273.26	-7.92
273.395	-7.92
273.53	2.08
273.665	11.08
273.8	4.08
273.935	-5.92
274.07	5.08
274.205	25.08
274.34	4.08
274.475	1.08
274.61	20.08
274.745	23.08
274.88	6.08
275.015	2.08
275.15	9.08
275.285	5.08
275.42	12.08
275.555	24.08
275.69	7.08
275.825	-1.92
275.959	16.08
276.094	1.08
276.229	-3.92
276.364	-4.92
276.499	0.08
276.634	-3.92
276.768	6.08
276.903	2.08
277.038	4.08
277.173	-2.92
277.308	-5.92
277.442	4.08
277.577	-5.92
277.712	2.08
277.847	10.08
277.981	14.08
278.116	-7.92
278.251	5.08
278.386	-5.92
278.52	10.08
278.655	11.08
278.79	13.08
278.924	12.08
279.059	11.08
279.194	-17.92
279.328	29.08
279.463	0.08
279.598	-5.92
279.732	14.08
279.867	15.08
280.001	12.08
280.136	-0.92
280.271	7.08
280.405	8.08
280.54	14.08
280.674	-5.92
280.809	14.08
280.943	1.08
281.078	-2.92
281.213	16.08
281.347	8.08
281.482	16.08
281.616	-1.92
281.751	-11.92
281.885	-10.92
282.02	-23.92
282.154	-10.92
282.288	-9.92
282.423	-23.92
282.557	-21.92
282.692	15.08
282.826	-7.92
282.961	5.08
283.095	-6.92
283.229	-10.92
283.364	-14.92
283.498	0.08
283.633	-15.92
283.767	-4.92
283.901	6.08
284.036	17.08
284.17	2.08
284.304	-1.92
284.439	26.08
284.573	6.08
284.707	16.08
284.842	-1.92
284.976	3.08
285.11	-25.92
285.244	4.08
285.379	42.08
285.513	-2.92
285.647	15.08
285.781	4.08
285.916	21.08
286.05	16.08
286.184	15.08
286.318	4.08
286.453	-6.92
286.587	-14.92
286.721	-16.92
286.855	2.08
286.989	1.08
287.123	-1.92
287.258	-5.92
287.392	-2.92
287.526	6.08
287.66	14.08
287.794	0.08
287.928	1.08
288.062	11.08
288.196	9.08
288.33	10.08
288.464	24.08
288.598	3.08
288.733	-6.92
288.867	9.08
289.001	9.08
289.135	10.08
289.269	-6.92
289.403	1.08
289.537	-2.92
289.671	13.08
289.805	-15.92
289.939	4.08
290.073	0.08
290.207	9.08
290.34	-2.92
290.474	16.08
290.608	-25.92
290.742	3.08
290.876	-13.92
291.01	3.08
291.144	3.08
291.278	18.08
291.412	2.08
291.546	-1.92
291.679	-2.92
291.813	20.08
291.947	3.08
292.081	-21.92
292.215	7.08
292.349	5.08
292.482	-6.92
292.616	-15.92
292.75	-6.92
292.884	7.08
293.018	-12.92
293.151	-24.92
293.285	-7.92
293.419	13.08
293.553	5.08
293.686	-21.92
293.82	13.08
293.954	31.08
294.088	34.08
294.221	7.08
294.355	-8.92
294.489	3.08
294.622	-16.92
294.756	-9.92
294.89	24.08
295.023	10.08
295.157	22.08
295.291	25.08
295.424	18.08
295.558	19.08
295.691	7.08
295.825	1.08
295.959	-0.92
296.092	-8.92
296.226	-4.92
296.359	4.08
296.493	2.08
296.627	1.08
296.76	-10.92
296.894	-0.92
297.027	-0.92
297.161	-3.92
297.294	-33.92
297.428	-12.92
297.561	8.08
297.695	-4.92
297.828	-4.92
297.962	-14.92
298.095	-8.92
298.229	-0.92
298.362	3.08
298.495	-12.92
298.629	-11.92
298.762	18.08
298.896	-8.92
299.029	-3.92
299.162	8.08
299.296	11.08
299.429	4.08
299.563	-3.92
299.696	-1.92
299.829	-14.92
299.963	8.08
300.096	18.08
300.229	2.08
300.363	1.08
300.496	-2.92
300.629	-29.92
300.763	11.08
300.896	7.08
301.029	4.08
301.162	-11.92
301.296	-3.92
301.429	-9.92
301.562	-14.92
301.695	4.08
301.829	-1.92
301.962	15.08
302.095	13.08
302.228	2.08
302.362	5.08
302.495	-19.92
302.628	-4.92
302.761	-8.92
302.894	9.08
303.027	27.08
303.161	-2.92
303.294	-2.92
303.427	20.08
303.56	-16.92
303.693	-1.92
303.826	14.08
303.959	11.08
304.092	7.08
304.225	0.08
304.359	19.08
304.492	14.08
304.625	6.08
304.758	3.08
304.891	-0.92
305.024	-0.92
305.157	17.08
305.29	-8.92
305.423	1.08
305.556	17.08
305.689	43.08
305.822	-3.92
305.955	-6.92
306.088	0.08
306.221	4.08
306.354	-15.92
306.487	-14.92
306.62	-21.92
306.752	1.08
306.885	17.08
307.018	7.08
307.151	9.08
307.284	23.08
307.417	-7.92
307.55	6.08
307.683	-3.92
307.816	16.08
307.948	22.08
308.081	4.08
308.214	6.08
308.347	15.08
308.48	-1.92
308.613	-17.92
308.745	6.08
308.878	-14.92
309.011	-17.92
309.144	-0.92
309.277	-12.92
309.409	10.08
309.542	0.08
309.675	14.08
309.808	15.08
309.94	8.08
310.073	-12.92
310.206	0.08
310.339	17.08
310.471	-10.92
310.604	22.08
310.737	7.08
310.869	8.08
311.002	6.08
311.135	-2.92
311.267	-10.92
311.4	-6.92
311.533	27.08
311.665	0.08
311.798	-5.92
311.93	4.08
312.063	19.08
312.196	8.08
312.328	6.08
312.461	16.08
312.593	18.08
312.726	8.08
312.859	4.08
312.991	9.08
313.124	-13.92
313.256	-1.92
313.389	1.08
313.521	0.08
313.654	-21.92
313.786	1.08
313.919	-7.92
314.051	-13.92
314.184	6.08
314.316	-5.92
314.449	-25.92
314.581	16.08
314.714	3.08
314.846	18.08
314.978	-3.92
315.111	0.08
315.243	2.08
315.376	0.08
315.508	29.08
315.641	4.08
315.773	23.08
315.905	10.08
316.038	-5.92
316.17	16.08
316.302	9.08
316.435	5.08
316.567	-8.92
316.699	10.08
316.832	-7.92
316.964	-4.92
317.096	-6.92
317.229	5.08
317.361	-20.92
317.493	-23.92
317.625	-18.92
317.758	12.08
317.89	15.08
318.022	-6.92
318.155	-21.92
318.287	-19.92
318.419	-10.92
318.551	3.08
318.683	-5.92
318.816	1.08
318.948	8.08
319.08	3.08
319.212	15.08
319.344	4.08
319.477	4.08
319.609	6.08
319.741	13.08
319.873	0.08
320.005	9.08
320.137	-9.92
320.269	4.08
320.401	-1.92
320.534	-9.92
320.666	-9.92
320.798	-26.92
320.93	-7.92
321.062	3.08
321.194	-1.92
321.326	9.08
321.458	1.08
321.59	-16.92
321.722	-25.92
321.854	-11.92
321.986	12.08
322.118	-3.92
322.25	-12.92
322.382	1.08
322.514	-1.92
322.646	-9.92
322.778	6.08
322.91	-0.92
323.042	9.08
323.174	5.08
323.306	4.08
323.438	-15.92
323.57	4.08
323.702	-2.92
323.834	1.08
323.966	-17.92
324.097	-2.92
324.229	9.08
324.361	8.08
324.493	-5.92
324.625	10.08
324.757	-0.92
324.889	4.08
325.021	2.08
325.152	22.08
325.284	12.08
325.416	-10.92
325.548	9.08
325.68	-8.92
325.811	22.08
325.943	13.08
326.075	-7.92
326.207	-5.92
326.339	2.08
326.47	-2.92
326.602	2.08
326.734	19.08
326.866	3.08
326.997	-17.92
327.129	-2.92
327.261	-0.92
327.392	7.08
327.524	-13.92
327.656	-2.92
327.787	27.08
327.919	16.08
328.051	13.08
328.182	14.08
328.314	25.08
328.446	-7.92
328.577	15.08
328.709	11.08
328.841	-14.92
328.972	-4.92
329.104	-2.92
329.235	-3.92
329.367	-8.92
329.499	1.08
329.63	8.08
329.762	2.08
329.893	15.08
330.025	0.08
330.156	-13.92
330.288	26.08
330.419	24.08
330.551	12.08
330.683	19.08
330.814	-3.92
330.946	22.08
331.077	8.08
331.208	-35.92
331.34	-8.92
331.471	-9.92
331.603	10.08
331.734	-6.92
331.866	0.08
331.997	22.08
332.129	20.08
332.26	-9.92
332.392	2.08
332.523	1.08
332.654	-19.92
332.786	-0.92
332.917	-17.92
333.048	5.08
333.18	-1.92
333.311	-7.92
333.443	-5.92
333.574	0.08
333.705	9.08
333.837	-5.92
333.968	8.08
334.099	23.08
334.231	31.08
334.362	14.08
334.493	-6.92
334.624	13.08
334.756	10.08
334.887	17.08
335.018	0.08
335.15	9.08
335.281	12.08
335.412	5.08
335.543	3.08
335.675	3.08
335.806	7.08
335.937	13.08
336.068	10.08
336.199	25.08
336.331	-3.92
336.462	16.08
336.593	32.08
336.724	3.08
336.855	4.08
336.986	26.08
337.118	15.08
337.249	23.08
337.38	17.08
337.511	1.08
337.642	18.08
337.773	17.08
337.904	25.08
338.035	9.08
338.166	8.08
338.298	10.08
338.429	16.08
338.56	2.08
338.691	27.08
338.822	12.08
338.953	11.08
339.084	2.08
339.215	20.08
339.346	14.08
339.477	-6.92
339.608	8.08
339.739	15.08
339.87	11.08
340.001	-8.92
340.132	2.08
340.263	-5.92
340.394	13.08
340.525	13.08
340.656	6.08
340.787	-25.92
340.918	25.08
341.049	25.08
341.179	0.08
341.31	15.08
341.441	-0.92
341.572	32.08
341.703	7.08
341.834	-5.92
341.965	18.08
342.096	-11.92
342.227	4.08
342.357	-0.92
342.488	14.08
342.619	1.08
342.75	-4.92
342.881	-8.92
343.012	13.08
343.142	28.08
343.273	-14.92
343.404	-2.92
343.535	7.08
343.666	11.08
343.796	29.08
343.927	20.08
344.058	17.08
344.189	10.08
344.319	-1.92
344.45	-11.92
344.581	-0.92
344.712	-11.92
344.842	18.08
344.973	4.08
345.104	8.08
345.234	-11.92
345.365	-12.92
345.496	4.08
345.626	12.08
345.757	10.08
345.888	-6.92
346.018	2.08
346.149	0.08
346.28	24.08
346.41	-3.92
346.541	28.08
346.672	15.08
346.802	23.08
346.933	1.08
347.063	3.08
347.194	-2.92
347.325	9.08
347.455	5.08
347.586	-4.92
347.716	2.08
347.847	8.08
347.977	15.08
348.108	3.08
348.238	22.08
348.369	5.08
348.499	9.08
348.63	16.08
348.76	2.08
348.891	18.08
349.021	12.08
349.152	-5.92
349.282	1.08
349.413	-5.92
349.543	0.08
349.674	-5.92
349.804	23.08
349.935	-4.92
350.065	-7.92
350.196	4.08
350.326	12.08
350.456	-6.92
350.587	22.08
350.717	19.08
350.848	32.08
350.978	16.08
351.108	3.08
351.239	28.08
351.369	-20.92
351.499	-6.92
351.63	0.08
351.76	4.08
351.89	0.08
352.021	4.08
352.151	-6.92
352.281	19.08
352.412	35.08
352.542	26.08
352.672	-17.92
352.803	-3.92
352.933	21.08
353.063	18.08
353.193	1.08
353.324	-2.92
353.454	26.08
353.584	29.08
353.714	-1.92
353.845	15.08
353.975	-7.92
354.105	7.08
354.235	-2.92
354.365	3.08
354.496	-2.92
354.626	12.08
354.756	17.08
354.886	-14.92
355.016	22.08
355.146	-5.92
355.277	7.08
355.407	17.08
355.537	7.08
355.667	14.08
355.797	3.08
355.927	-0.92
356.057	4.08
356.187	-11.92
356.318	-6.92
356.448	0.08
356.578	13.08
356.708	19.08
356.838	-0.92
356.968	5.08
357.098	23.08
357.228	6.08
357.358	10.08
357.488	1.08
357.618	27.08
357.748	20.08
357.878	-4.92
358.008	13.08
358.138	4.08
358.268	-12.92
358.398	7.08
358.528	-26.92
358.658	9.08
358.788	20.08
358.918	9.08
359.048	9.08
359.178	18.08
359.308	5.08
359.438	41.08
359.568	19.08
359.698	17.08
359.827	8.08
359.957	-9.92
360.087	9.08
360.217	10.08
360.347	1.08
360.477	19.08
360.607	-18.92
360.737	20.08
360.866	0.08
360.996	-3.92
361.126	-0.92
361.256	19.08
361.386	10.08
361.516	19.08
361.645	2.08
361.775	19.08
361.905	-14.92
362.035	13.08
362.165	-12.92
362.294	11.08
362.424	22.08
362.554	2.08
362.684	-18.92
362.813	-0.92
362.943	17.08
363.073	28.08
363.203	21.08
363.332	19.08
363.462	-8.92
363.592	-6.92
363.721	-2.92
363.851	7.08
363.981	9.08
364.111	-14.92
364.24	-26.92
364.37	10.08
364.5	15.08
364.629	-6.92
364.759	-9.92
364.888	1.08
365.018	15.08
365.148	-7.92
365.277	-1.92
365.407	9.08
365.537	15.08
365.666	6.08
365.796	-4.92
365.925	3.08
366.055	5.08
366.184	-11.92
366.314	3.08
366.444	15.08
366.573	4.08
366.703	18.08
366.832	20.08
366.962	18.08
367.091	31.08
367.221	3.08
367.35	13.08
367.48	47.08
367.609	1.08
367.739	8.08
367.868	-17.92
367.998	6.08
368.127	20.08
368.257	37.08
368.386	13.08
368.516	14.08
368.645	10.08
368.775	25.08
368.904	-1.92
369.033	-5.92
369.163	-0.92
369.292	13.08
369.422	-7.92
369.551	23.08
369.68	14.08
369.81	11.08
369.939	1.08
370.069	33.08
370.198	34.08
370.327	-27.92
370.457	10.08
370.586	22.08
370.715	2.08
370.845	-10.92
370.974	8.08
371.103	22.08
371.233	21.08
371.362	15.08
371.491	-20.92
371.621	20.08
371.75	8.08
371.879	-6.92
372.008	6.08
372.138	8.08
372.267	20.08
372.396	13.08
372.525	2.08
372.655	13.08
372.784	8.08
372.913	13.08
373.042	5.08
373.172	20.08
373.301	-8.92
373.43	-17.92
373.559	-6.92
373.688	25.08
373.818	14.08
373.947	16.08
374.076	19.08
374.205	24.08
374.334	4.08
374.463	-9.92
374.593	14.08
374.722	6.08
374.851	28.08
374.98	9.08
375.109	16.08
375.238	0.08
375.367	41.08
375.496	-4.92
375.625	-16.92
375.755	15.08
375.884	25.08
376.013	27.08
376.142	1.08
376.271	-9.92
376.4	18.08
376.529	-6.92
376.658	-1.92
376.787	4.08
376.916	4.08
377.045	-5.92
377.174	-12.92
377.303	21.08
377.432	34.08
377.561	37.08
377.69	11.08
377.819	19.08
377.948	-0.92
378.077	0.08
378.206	-2.92
378.335	1.08
378.464	10.08
378.593	21.08
378.722	8.08
378.851	-8.92
378.98	26.08
379.108	-1.92
379.237	-6.92
379.366	9.08
379.495	23.08
379.624	23.08
379.753	19.08
379.882	28.08
380.011	-6.92
380.14	4.08
380.268	12.08
380.397	-3.92
380.526	30.08
380.655	-2.92
380.784	-15.92
380.913	-11.92
381.041	24.08
381.17	-9.92
381.299	-3.92
381.428	0.08
381.557	32.08
381.685	11.08
381.814	9.08
381.943	-20.92
382.072	-7.92
382.2	-12.92
382.329	5.08
382.458	25.08
382.587	35.08
382.715	29.08
382.844	-2.92
382.973	11.08
383.102	-16.92
383.23	-14.92
383.359	-4.92
383.488	7.08
383.616	-8.92
383.745	-2.92
383.874	4.08
384.003	5.08
384.131	-2.92
384.26	11.08
384.389	12.08
384.517	-4.92
384.646	-8.92
384.774	-6.92
384.903	27.08
385.032	20.08
385.16	12.08
385.289	7.08
385.418	19.08
385.546	15.08
385.675	22.08
385.803	1.08
385.932	26.08
386.06	-20.92
386.189	5.08
386.318	12.08
386.446	-4.92
386.575	21.08
386.703	15.08
386.832	-5.92
386.96	-13.92
387.089	21.08
387.217	8.08
387.346	0.08
387.474	22.08
387.603	11.08
387.731	1.08
387.86	13.08
387.988	13.08
388.117	21.08
388.245	0.08
388.374	-7.92
388.502	4.08
388.631	4.08
388.759	7.08
388.888	21.08
389.016	-1.92
389.144	18.08
389.273	1.08
389.401	10.08
389.53	-11.92
389.658	2.08
389.786	-6.92
389.915	-13.92
390.043	-17.92
390.172	3.08
390.3	24.08
390.428	18.08
390.557	-1.92
390.685	7.08
390.813	15.08
390.942	20.08
391.07	8.08
391.198	-6.92
391.327	-8.92
391.455	-10.92
391.583	3.08
391.712	6.08
391.84	11.08
391.968	-10.92
392.096	2.08
392.225	5.08
392.353	-6.92
392.481	-4.92
392.609	12.08
392.738	12.08
392.866	10.08
392.994	-6.92
393.122	12.08
393.251	0.08
393.379	-2.92
393.507	-8.92
393.635	2.08
393.764	24.08
393.892	21.08
394.02	-12.92
394.148	3.08
394.276	1.08
394.404	30.08
394.533	-4.92
394.661	8.08
394.789	8.08
394.917	31.08
395.045	8.08
395.173	-3.92
395.302	-2.92
395.43	5.08
395.558	13.08
395.686	19.08
395.814	1.08
395.942	-2.92
396.07	-2.92
396.198	-2.92
396.326	11.08
396.454	13.08
396.582	6.08
396.711	18.08
396.839	20.08
396.967	3.08
397.095	4.08
397.223	10.08
397.351	30.08
397.479	17.08
397.607	5.08
397.735	37.08
397.863	26.08
397.991	19.08
398.119	-7.92
398.247	7.08
398.375	1.08
398.503	5.08
398.631	12.08
398.759	17.08
398.887	13.08
399.015	-17.92
399.143	-3.92
399.271	22.08
399.399	4.08
399.526	15.08
399.654	16.08
399.782	-2.92
399.91	26.08
400.038	19.08
400.166	5.08
400.294	5.08
400.422	-2.92
400.55	21.08
400.678	10.08
400.805	11.08
400.933	11.08
401.061	24.08
401.189	1.08
401.317	21.08
401.445	40.08
401.573	28.08
401.7	3.08
401.828	0.08
401.956	5.08
402.084	30.08
402.212	18.08
402.34	19.08
402.467	9.08
402.595	15.08
402.723	1.08
402.851	27.08
402.978	5.08
403.106	15.08
403.234	5.08
403.362	34.08
403.489	30.08
403.617	18.08
403.745	4.08
403.873	17.08
404	24.08
404.128	29.08
404.256	25.08
404.384	32.08
404.511	19.08
404.639	13.08
404.767	-13.92
404.894	6.08
405.022	6.08
405.15	20.08
405.277	-11.92
405.405	7.08
405.533	14.08
405.66	2.08
405.788	-9.92
405.916	-12.92
406.043	8.08
406.171	1.08
406.299	24.08
406.426	24.08
406.554	18.08
406.681	29.08
406.809	14.08
406.937	13.08
407.064	3.08
407.192	34.08
407.319	4.08
407.447	5.08
407.574	25.08
407.702	18.08
407.83	12.08
407.957	-15.92
408.085	16.08
408.212	7.08
408.34	-3.92
408.467	1.08
408.595	24.08
408.722	21.08
408.85	22.08
408.977	2.08
409.105	7.08
409.232	9.08
409.36	-6.92
409.487	3.08
409.615	24.08
409.742	37.08
409.87	17.08
409.997	22.08
410.125	29.08
410.252	37.08
410.379	40.08
410.507	51.08
410.634	8.08
410.762	12.08
410.889	10.08
411.017	-2.92
411.144	23.08
411.271	-9.92
411.399	-3.92
411.526	8.08
411.653	20.08
411.781	33.08
411.908	1.08
412.036	6.08
412.163	28.08
412.29	14.08
412.418	-0.92
412.545	22.08
412.672	4.08
412.8	36.08
412.927	-2.92
413.054	17.08
413.182	13.08
413.309	3.08
413.436	13.08
413.564	2.08
413.691	-6.92
413.818	19.08
413.945	7.08
414.073	4.08
414.2	13.08
414.327	14.08
414.454	22.08
414.582	-2.92
414.709	-3.92
414.836	8.08
414.963	10.08
415.091	-3.92
415.218	-4.92
415.345	5.08
415.472	14.08
415.6	-8.92
415.727	19.08
415.854	19.08
415.981	13.08
416.108	12.08
416.236	10.08
416.363	24.08
416.49	-8.92
416.617	2.08
416.744	30.08
416.871	-3.92
416.998	-3.92
417.126	3.08
417.253	5.08
417.38	16.08
417.507	2.08
417.634	19.08
417.761	17.08
417.888	11.08
418.015	24.08
418.143	27.08
418.27	37.08
418.397	8.08
418.524	23.08
418.651	6.08
418.778	22.08
418.905	23.08
419.032	9.08
419.159	8.08
419.286	30.08
419.413	47.08
419.54	27.08
419.667	-5.92
419.794	-19.92
419.921	17.08
420.048	5.08
420.175	16.08
420.302	-4.92
420.429	10.08
420.556	0.08
420.683	-6.92
420.81	16.08
420.937	29.08
421.064	20.08
421.191	10.08
421.318	32.08
421.445	22.08
421.572	-1.92
421.699	7.08
421.826	10.08
421.953	5.08
422.08	8.08
422.207	0.08
422.334	-0.92
422.461	17.08
422.588	-2.92
422.714	14.08
422.841	27.08
422.968	34.08
423.095	3.08
423.222	-1.92
423.349	6.08
423.476	21.08
423.603	1.08
423.729	18.08
423.856	12.08
423.983	19.08
424.11	-12.92
424.237	13.08
424.364	15.08
424.491	10.08
424.617	-5.92
424.744	-4.92
424.871	2.08
424.998	-1.92
425.125	4.08
425.251	10.08
425.378	-1.92
425.505	17.08
425.632	15.08
425.758	-2.92
425.885	4.08
426.012	8.08
426.139	22.08
426.266	2.08
426.392	18.08
426.519	23.08
426.646	-3.92
426.772	34.08
426.899	1.08
427.026	13.08
427.153	15.08
427.279	19.08
427.406	18.08
427.533	5.08
427.659	19.08
427.786	29.08
427.913	29.08
428.039	-3.92
428.166	-5.92
428.293	-9.92
428.419	11.08
428.546	3.08
428.673	20.08
428.799	-11.92
428.926	10.08
429.053	29.08
429.179	14.08
429.306	-2.92
429.433	17.08
429.559	15.08
429.686	-10.92
429.812	-10.92
429.939	-14.92
430.066	10.08
430.192	5.08
430.319	25.08
430.445	14.08
430.572	16.08
430.699	0.08
430.825	-3.92
430.952	1.08
431.078	19.08
431.205	20.08
431.331	6.08
431.458	8.08
431.584	17.08
431.711	-20.92
431.837	-0.92
431.964	-5.92
432.09	19.08
432.217	2.08
432.343	6.08
432.47	27.08
432.596	20.08
432.723	6.08
432.849	-14.92
432.976	6.08
433.102	3.08
433.229	8.08
433.355	35.08
433.482	78.08
433.608	157.08
433.735	125.08
433.861	143.08
433.987	154.08
434.114	244.08
434.24	193.08
434.367	77.08
434.493	5.08
434.62	19.08
434.746	12.08
434.872	17.08
434.999	21.08
435.125	10.08
435.252	9.08
435.378	18.08
435.504	1.08
435.631	29.08
435.757	9.08
435.883	29.08
436.01	18.08
436.136	14.08
436.262	7.08
436.389	8.08
436.515	26.08
436.641	5.08
436.768	20.08
436.894	22.08
437.02	11.08
437.147	13.08
437.273	12.08
437.399	4.08
437.526	19.08
437.652	-7.92
437.778	20.08
437.904	-6.92
438.031	9.08
438.157	14.08
438.283	12.08
438.409	2.08
438.536	1.08
438.662	17.08
438.788	20.08
438.914	30.08
439.041	19.08
439.167	37.08
439.293	-8.92
439.419	13.08
439.546	29.08
439.672	21.08
439.798	28.08
439.924	10.08
440.05	25.08
440.177	20.08
440.303	13.08
440.429	6.08
440.555	10.08
440.681	12.08
440.807	35.08
440.934	14.08
441.06	10.08
441.186	37.08
441.312	14.08
441.438	1.08
441.564	14.08
441.69	23.08
441.816	10.08
441.943	-4.92
442.069	7.08
442.195	20.08
442.321	18.08
442.447	-10.92
442.573	-5.92
442.699	-5.92
442.825	-1.92
442.951	23.08
443.077	33.08
443.203	28.08
443.33	7.08
443.456	-16.92
443.582	11.08
443.708	14.08
443.834	29.08
443.96	12.08
444.086	23.08
444.212	34.08
444.338	39.08
444.464	16.08
444.59	23.08
444.716	25.08
444.842	11.08
444.968	-9.92
445.094	9.08
445.22	12.08
445.346	-1.92
445.472	-16.92
445.598	19.08
445.724	7.08
445.85	4.08
445.976	23.08
446.102	30.08
446.228	27.08
446.354	12.08
446.48	9.08
446.605	3.08
446.731	22.08
446.857	-15.92
446.983	1.08
447.109	22.08
447.235	18.08
447.361	6.08
447.487	16.08
447.613	10.08
447.739	-1.92
447.865	4.08
447.99	11.08
448.116	24.08
448.242	28.08
448.368	-4.92
448.494	-5.92
448.62	17.08
448.746	12.08
448.872	5.08
448.997	4.08
449.123	-2.92
449.249	27.08
449.375	35.08
449.501	1.08
449.627	1.08
449.752	28.08
449.878	-19.92
450.004	6.08
450.13	11.08
450.256	-4.92
450.381	-5.92
450.507	17.08
450.633	3.08
450.759	29.08
450.884	-7.92
451.01	-9.92
451.136	18.08
451.262	6.08
451.388	13.08
451.513	8.08
451.639	21.08
451.765	17.08
451.89	17.08
452.016	9.08
452.142	5.08
452.268	25.08
452.393	19.08
452.519	10.08
452.645	19.08
452.771	17.08
452.896	6.08
453.022	-1.92
453.148	24.08
453.273	14.08
453.399	10.08
453.525	3.08
453.65	12.08
453.776	13.08
453.902	29.08
454.027	9.08
454.153	11.08
454.279	21.08
454.404	5.08
454.53	23.08
454.656	18.08
454.781	12.08
454.907	26.08
455.032	16.08
455.158	27.08
455.284	8.08
455.409	17.08
455.535	17.08
455.66	15.08
455.786	33.08
455.912	23.08
456.037	-5.92
456.163	24.08
456.288	17.08
456.414	-10.92
456.539	6.08
456.665	23.08
456.791	20.08
456.916	2.08
457.042	3.08
457.167	-17.92
457.293	0.08
457.418	28.08
457.544	9.08
457.669	-4.92
457.795	0.08
457.92	2.08
458.046	21.08
458.171	20.08
458.297	-3.92
458.422	-9.92
458.548	-9.92
458.673	19.08
458.799	-5.92
458.924	-2.92
459.05	23.08
459.175	12.08
459.301	12.08
459.426	20.08
459.552	-7.92
459.677	8.08
459.803	40.08
459.928	14.08
460.053	1.08
460.179	4.08
460.304	9.08
460.43	-6.92
460.555	13.08
460.681	20.08
460.806	17.08
460.931	11.08
461.057	19.08
461.182	17.08
461.308	17.08
461.433	3.08
461.558	-11.92
461.684	23.08
461.809	17.08
461.934	27.08
462.06	45.08
462.185	-0.92
462.311	6.08
462.436	5.08
462.561	11.08
462.687	7.08
462.812	8.08
462.937	-14.92
463.063	-7.92
463.188	3.08
463.313	21.08
463.439	-5.92
463.564	4.08
463.689	12.08
463.814	7.08
463.94	5.08
464.065	13.08
464.19	17.08
464.316	-5.92
464.441	7.08
464.566	-3.92
464.692	-1.92
464.817	4.08
464.942	19.08
465.067	22.08
465.193	-26.92
465.318	9.08
465.443	5.08
465.568	5.08
465.694	21.08
465.819	26.08
465.944	-2.92
466.069	23.08
466.194	9.08
466.32	30.08
466.445	3.08
466.57	10.08
466.695	-3.92
466.82	-0.92
466.946	6.08
467.071	17.08
467.196	-2.92
467.321	22.08
467.446	-21.92
467.572	-1.92
467.697	-15.92
467.822	6.08
467.947	-0.92
468.072	-1.92
468.197	3.08
468.323	9.08
468.448	11.08
468.573	4.08
468.698	21.08
468.823	19.08
468.948	11.08
469.073	7.08
469.198	11.08
469.324	26.08
469.449	1.08
469.574	20.08
469.699	27.08
469.824	18.08
469.949	14.08
470.074	20.08
470.199	55.08
470.324	30.08
470.449	26.08
470.574	23.08
470.7	28.08
470.825	16.08
470.95	25.08
471.075	0.08
471.2	11.08
471.325	20.08
471.45	10.08
471.575	29.08
471.7	9.08
471.825	-12.92
471.95	11.08
472.075	-5.92
472.2	7.08
472.325	30.08
472.45	1.08
472.575	11.08
472.7	16.08
472.825	30.08
472.95	18.08
473.075	5.08
473.2	7.08
473.325	10.08
473.45	12.08
473.575	2.08
473.7	9.08
473.825	20.08
473.95	20.08
474.075	29.08
474.2	0.08
474.325	8.08
474.45	30.08
474.574	18.08
474.699	18.08
474.824	26.08
474.949	6.08
475.074	5.08
475.199	9.08
475.324	27.08
475.449	15.08
475.574	11.08
475.699	0.08
475.824	4.08
475.949	17.08
476.073	14.08
476.198	4.08
476.323	20.08
476.448	15.08
476.573	25.08
476.698	38.08
476.823	29.08
476.947	23.08
477.072	11.08
477.197	1.08
477.322	7.08
477.447	7.08
477.572	9.08
477.697	13.08
477.821	9.08
477.946	12.08
478.071	22.08
478.196	25.08
478.321	23.08
478.445	18.08
478.57	5.08
478.695	7.08
478.82	19.08
478.945	21.08
479.069	21.08
479.194	14.08
479.319	10.08
479.444	26.08
479.569	5.08
479.693	6.08
479.818	2.08
479.943	29.08
480.068	21.08
480.192	16.08
480.317	12.08
480.442	-1.92
480.567	9.08
480.691	18.08
480.816	20.08
480.941	-6.92
481.066	10.08
481.19	15.08
481.315	14.08
481.44	2.08
481.564	1.08
481.689	22.08
481.814	21.08
481.938	13.08
482.063	10.08
482.188	25.08
482.313	45.08
482.437	7.08
482.562	18.08
482.687	46.08
482.811	37.08
482.936	22.08
483.061	33.08
483.185	22.08
483.31	22.08
483.435	32.08
483.559	26.08
483.684	-6.92
483.808	26.08
483.933	20.08
484.058	30.08
484.182	6.08
484.307	11.08
484.432	26.08
484.556	24.08
484.681	15.08
484.805	22.08
484.93	32.08
485.055	48.08
485.179	61.08
485.304	126.08
485.428	373.08
485.553	1261.08
485.678	1772.08
485.802	1646.08
485.927	1822.08
486.051	2692.08
486.176	1654.08
486.3	459.08
486.425	152.08
486.549	73.08
486.674	57.08
486.799	32.08
486.923	22.08
487.048	35.08
487.172	14.08
487.297	26.08
487.421	23.08
487.546	11.08
487.67	10.08
487.795	11.08
487.919	3.08
488.044	37.08
488.168	36.08
488.293	24.08
488.417	0.08
488.542	31.08
488.666	24.08
488.791	35.08
488.915	14.08
489.04	20.08
489.164	14.08
489.289	14.08
489.413	5.08
489.538	8.08
489.662	31.08
489.786	10.08
489.911	34.08
490.035	17.08
490.16	11.08
490.284	7.08
490.409	1.08
490.533	2.08
490.658	22.08
490.782	21.08
490.906	18.08
491.031	23.08
491.155	12.08
491.28	6.08
491.404	12.08
491.528	16.08
491.653	24.08
491.777	28.08
491.902	9.08
492.026	27.08
492.15	27.08
492.275	29.08
492.399	47.08
492.524	14.08
492.648	26.08
492.772	12.08
492.897	30.08
493.021	15.08
493.145	24.08
493.27	16.08
493.394	10.08
493.518	13.08
493.643	27.08
493.767	19.08
493.891	19.08
494.016	-3.92
494.14	5.08
494.264	19.08
494.389	32.08
494.513	16.08
494.637	4.08
494.762	14.08
494.886	29.08
495.01	13.08
495.134	18.08
495.259	10.08
495.383	18.08
495.507	8.08
495.632	35.08
495.756	35.08
495.88	23.08
496.004	16.08
496.129	19.08
496.253	25.08
496.377	17.08
496.501	34.08
496.626	7.08
496.75	5.08
496.874	16.08
496.998	33.08
497.123	33.08
497.247	24.08
497.371	1.08
497.495	13.08
497.62	6.08
497.744	6.08
497.868	0.08
497.992	8.08
498.116	4.08
498.241	28.08
498.365	10.08
498.489	-10.92
498.613	46.08
498.737	7.08
498.862	5.08
498.986	3.08
499.11	14.08
499.234	15.08
499.358	-10.92
499.482	9.08
499.607	7.08
499.731	20.08
499.855	17.08
499.979	14.08
500.103	10.08
500.227	6.08
500.351	7.08
500.476	2.08
500.6	8.08
500.724	21.08
500.848	20.08
500.972	30.08
501.096	24.08
501.22	34.08
501.344	21.08
501.469	19.08
501.593	14.08
501.717	19.08
501.841	-2.92
501.965	0.08
502.089	-2.92
502.213	21.08
502.337	-3.92
502.461	-2.92
502.585	36.08
502.709	6.08
502.834	17.08
502.958	8.08
503.082	0.08
503.206	16.08
503.33	15.08
503.454	10.08
503.578	18.08
503.702	9.08
503.826	13.08
503.95	30.08
504.074	5.08
504.198	7.08
504.322	7.08
504.446	-6.92
504.57	2.08
504.694	28.08
504.818	21.08
504.942	36.08
505.066	13.08
505.19	3.08
505.314	4.08
505.438	33.08
505.562	25.08
505.686	24.08
505.81	14.08
505.934	20.08
506.058	5.08
506.182	5.08
506.306	13.08
506.43	11.08
506.554	1.08
506.678	6.08
506.802	11.08
506.926	19.08
507.05	21.08
507.174	18.08
507.298	13.08
507.422	13.08
507.546	17.08
507.67	20.08
507.794	-2.92
507.918	31.08
508.042	19.08
508.165	-7.92
508.289	8.08
508.413	15.08
508.537	9.08
508.661	6.08
508.785	4.08
508.909	9.08
509.033	9.08
509.157	19.08
509.281	10.08
509.405	10.08
509.528	17.08
509.652	17.08
509.776	6.08
509.9	19.08
510.024	3.08
510.148	9.08
510.272	6.08
510.396	26.08
510.519	8.08
510.643	20.08
510.767	5.08
510.891	33.08
511.015	19.08
511.139	24.08
511.263	30.08
511.386	4.08
511.51	10.08
511.634	14.08
511.758	-3.92
511.882	1.08
512.006	15.08
512.129	36.08
512.253	33.08
512.377	11.08
512.501	28.08
512.625	9.08
512.748	-0.92
512.872	-10.92
512.996	12.08
513.12	35.08
513.244	1.08
513.367	25.08
513.491	3.08
513.615	7.08
513.739	-7.92
513.862	20.08
513.986	11.08
514.11	24.08
514.234	-6.92
514.358	23.08
514.481	22.08
514.605	2.08
514.729	16.08
514.853	17.08
514.976	9.08
515.1	17.08
515.224	16.08
515.348	14.08
515.471	7.08
515.595	4.08
515.719	2.08
515.842	18.08
515.966	9.08
516.09	36.08
516.214	15.08
516.337	26.08
516.461	21.08
516.585	17.08
516.708	19.08
516.832	14.08
516.956	-5.92
517.08	25.08
517.203	-7.92
517.327	25.08
517.451	38.08
517.574	43.08
517.698	22.08
517.822	30.08
517.945	32.08
518.069	44.08
518.193	66.08
518.316	29.08
518.44	21.08
518.564	33.08
518.687	30.08
518.811	42.08
518.935	50.08
519.058	22.08
519.182	38.08
519.306	45.08
519.429	19.08
519.553	45.08
519.676	24.08
519.8	26.08
519.924	-1.92
520.047	9.08
520.171	19.08
520.294	26.08
520.418	7.08
520.542	21.08
520.665	11.08
520.789	6.08
520.913	-13.92
521.036	0.08
521.16	8.08
521.283	16.08
521.407	16.08
521.53	5.08
521.654	-6.92
521.778	50.08
521.901	18.08
522.025	32.08
522.148	17.08
522.272	15.08
522.395	18.08
522.519	24.08
522.643	8.08
522.766	11.08
522.89	10.08
523.013	33.08
523.137	-1.92
523.26	18.08
523.384	10.08
523.507	19.08
523.631	2.08
523.754	13.08
523.878	8.08
524.002	20.08
524.125	-14.92
524.249	-1.92
524.372	25.08
524.496	29.08
524.619	11.08
524.743	4.08
524.866	0.08
524.99	-6.92
525.113	-10.92
525.237	22.08
525.36	9.08
525.484	14.08
525.607	5.08
525.731	-19.92
525.854	12.08
525.978	21.08
526.101	-9.92
526.224	11.08
526.348	5.08
526.471	20.08
526.595	-1.92
526.718	3.08
526.842	7.08
526.965	20.08
527.089	13.08
527.212	-6.92
527.336	6.08
527.459	20.08
527.582	17.08
527.706	29.08
527.829	8.08
527.953	30.08
528.076	-3.92
528.2	0.08
528.323	33.08
528.446	29.08
528.57	11.08
528.693	38.08
528.817	22.08
528.94	18.08
529.064	45.08
529.187	18.08
529.31	13.08
529.434	0.08
529.557	6.08
529.68	13.08
529.804	14.08
529.927	23.08
530.051	1.08
530.174	-2.92
530.297	20.08
530.421	19.08
530.544	28.08
530.668	13.08
530.791	8.08
530.914	29.08
531.038	18.08
531.161	16.08
531.284	7.08
531.408	19.08
531.531	10.08
531.654	19.08
531.778	13.08
531.901	2.08
532.024	24.08
532.148	8.08
532.271	16.08
532.394	22.08
532.518	22.08
532.641	19.08
532.764	34.08
532.888	24.08
533.011	9.08
533.134	19.08
533.258	22.08
533.381	8.08
533.504	-0.92
533.628	6.08
533.751	23.08
533.874	15.08
533.997	20.08
534.121	4.08
534.244	8.08
534.367	20.08
534.491	14.08
534.614	9.08
534.737	21.08
534.86	21.08
534.984	19.08
535.107	12.08
535.23	16.08
535.354	19.08
535.477	16.08
535.6	13.08
535.723	13.08
535.847	20.08
535.97	1.08
536.093	6.08
536.216	4.08
536.34	15.08
536.463	-17.92
536.586	14.08
536.709	21.08
536.833	14.08
536.956	14.08
537.079	4.08
537.202	26.08
537.325	-0.92
537.449	4.08
537.572	11.08
537.695	-5.92
537.818	6.08
537.941	8.08
538.065	14.08
538.188	-8.92
538.311	-5.92
538.434	7.08
538.558	34.08
538.681	20.08
538.804	24.08
538.927	3.08
539.05	-1.92
539.173	2.08
539.297	-0.92
539.42	8.08
539.543	4.08
539.666	10.08
539.789	22.08
539.913	7.08
540.036	9.08
540.159	13.08
540.282	-8.92
540.405	-24.92
540.528	15.08
540.651	14.08
540.775	2.08
540.898	4.08
541.021	26.08
541.144	29.08
541.267	37.08
541.39	16.08
541.513	14.08
541.637	-1.92
541.76	-1.92
541.883	4.08
542.006	16.08
542.129	15.08
542.252	7.08
542.375	17.08
542.498	16.08
542.622	10.08
542.745	17.08
542.868	-4.92
542.991	27.08
543.114	23.08
543.237	42.08
543.36	33.08
543.483	18.08
543.606	23.08
543.73	28.08
543.853	-10.92
543.976	0.08
544.099	5.08
544.222	29.08
544.345	5.08
544.468	13.08
544.591	9.08
544.714	17.08
544.837	36.08
544.96	11.08
545.083	39.08
545.206	25.08
545.329	27.08
545.453	3.08
545.576	7.08
545.699	-1.92
545.822	22.08
545.945	11.08
546.068	-9.92
546.191	23.08
546.314	16.08
546.437	33.08
546.56	31.08
546.683	23.08
546.806	22.08
546.929	12.08
547.052	2.08
547.175	-8.92
547.298	14.08
547.421	4.08
547.544	3.08
547.667	24.08
547.79	18.08
547.913	12.08
548.036	-2.92
548.159	14.08
548.282	0.08
548.405	3.08
548.528	16.08
548.651	16.08
548.774	10.08
548.897	19.08
549.02	40.08
549.143	31.08
549.266	23.08
549.389	18.08
549.512	6.08
549.635	24.08
549.758	28.08
549.881	11.08
550.004	8.08
550.127	26.08
550.25	13.08
550.373	-11.92
550.496	13.08
550.619	-1.92
550.742	10.08
550.865	11.08
550.988	21.08
551.111	22.08
551.234	12.08
551.356	11.08
551.479	2.08
551.602	3.08
551.725	4.08
551.848	18.08
551.971	21.08
552.094	18.08
552.217	-1.92
552.34	10.08
552.463	-7.92
552.586	-0.92
552.709	-0.92
552.832	16.08
552.955	29.08
553.077	20.08
553.2	12.08
553.323	-11.92
553.446	13.08
553.569	0.08
553.692	9.08
553.815	5.08
553.938	30.08
554.061	15.08
554.184	15.08
554.306	29.08
554.429	-2.92
554.552	18.08
554.675	-2.92
554.798	21.08
554.921	22.08
555.044	16.08
555.167	20.08
555.29	10.08
555.412	6.08
555.535	16.08
555.658	11.08
555.781	4.08
555.904	41.08
556.027	4.08
556.15	10.08
556.272	14.08
556.395	28.08
556.518	6.08
556.641	-3.92
556.764	23.08
556.887	-2.92
557.01	2.08
557.132	-3.92
557.255	19.08
557.378	1.08
557.501	6.08
557.624	16.08
557.747	25.08
557.869	16.08
557.992	35.08
558.115	24.08
558.238	-5.92
558.361	10.08
558.483	37.08
558.606	18.08
558.729	14.08
558.852	33.08
558.975	44.08
559.098	42.08
559.22	13.08
559.343	13.08
559.466	13.08
559.589	-0.92
559.712	25.08
559.834	13.08
559.957	18.08
560.08	8.08
560.203	5.08
560.325	27.08
560.448	37.08
560.571	9.08
560.694	0.08
560.817	29.08
560.939	13.08
561.062	-1.92
561.185	9.08
561.308	-0.92
561.43	0.08
561.553	-8.92
561.676	8.08
561.799	13.08
561.921	2.08
562.044	14.08
562.167	2.08
562.29	22.08
562.413	19.08
562.535	20.08
562.658	19.08
562.781	-5.92
562.903	16.08
563.026	14.08
563.149	34.08
563.272	5.08
563.394	7.08
563.517	13.08
563.64	4.08
563.763	10.08
563.885	35.08
564.008	33.08
564.131	17.08
564.254	-8.92
564.376	24.08
564.499	-5.92
564.622	-4.92
564.744	26.08
564.867	6.08
564.99	21.08
565.113	24.08
565.235	9.08
565.358	4.08
565.481	-5.92
565.603	12.08
565.726	2.08
565.849	25.08
565.971	32.08
566.094	14.08
566.217	14.08
566.34	14.08
566.462	10.08
566.585	13.08
566.708	6.08
566.83	18.08
566.953	29.08
567.076	7.08
567.198	15.08
567.321	2.08
567.444	25.08
567.566	21.08
567.689	12.08
567.812	5.08
567.934	17.08
568.057	13.08
568.18	6.08
568.302	13.08
568.425	4.08
568.548	2.08
568.67	16.08
568.793	18.08
568.916	4.08
569.038	-2.92
569.161	-6.92
569.283	23.08
569.406	4.08
569.529	1.08
569.651	1.08
569.774	-10.92
569.897	15.08
570.019	19.08
570.142	19.08
570.265	15.08
570.387	1.08
570.51	12.08
570.632	28.08
570.755	-0.92
570.878	4.08
571	16.08
571.123	3.08
571.246	21.08
571.368	6.08
571.491	-2.92
571.613	13.08
571.736	1.08
571.859	6.08
571.981	-4.92
572.104	-8.92
572.226	10.08
572.349	-10.92
572.472	18.08
572.594	27.08
572.717	16.08
572.839	-0.92
572.962	10.08
573.085	13.08
573.207	7.08
573.33	16.08
573.452	30.08
573.575	19.08
573.697	17.08
573.82	14.08
573.943	10.08
574.065	-5.92
574.188	13.08
574.31	7.08
574.433	21.08
574.555	20.08
574.678	-4.92
574.801	6.08
574.923	-1.92
575.046	16.08
575.168	14.08
575.291	-8.92
575.413	14.08
575.536	8.08
575.659	27.08
575.781	9.08
575.904	20.08
576.026	19.08
576.149	10.08
576.271	22.08
576.394	1.08
576.516	5.08
576.639	17.08
576.761	-1.92
576.884	7.08
577.007	15.08
577.129	6.08
577.252	3.08
577.374	33.08
577.497	2.08
577.619	5.08
577.742	4.08
577.864	30.08
577.987	23.08
578.109	32.08
578.232	8.08
578.354	26.08
578.477	10.08
578.599	14.08
578.722	12.08
578.844	16.08
578.967	5.08
579.089	10.08
579.212	-2.92
579.334	12.08
579.457	20.08
579.579	27.08
579.702	-3.92
579.824	5.08
579.947	-6.92
580.069	-7.92
580.192	1.08
580.314	30.08
580.437	-7.92
580.559	45.08
580.682	16.08
580.804	20.08
580.927	21.08
581.049	23.08
581.172	8.08
581.294	15.08
581.417	22.08
581.539	17.08
581.662	32.08
581.784	24.08
581.907	14.08
582.029	20.08
582.152	3.08
582.274	19.08
582.396	11.08
582.519	28.08
582.641	5.08
582.764	13.08
582.886	12.08
583.009	-2.92
583.131	2.08
583.254	16.08
583.376	22.08
583.499	12.08
583.621	20.08
583.743	7.08
583.866	5.08
583.988	10.08
584.111	19.08
584.233	12.08
584.356	5.08
584.478	14.08
584.601	-11.92
584.723	12.08
584.845	27.08
584.968	9.08
585.09	0.08
585.213	34.08
585.335	5.08
585.458	16.08
585.58	-3.92
585.702	18.08
585.825	9.08
585.947	5.08
586.07	-13.92
586.192	7.08
586.315	9.08
586.437	6.08
586.559	18.08
586.682	-6.92
586.804	21.08
586.927	17.08
587.049	1.08
587.171	8.08
587.294	5.08
587.416	21.08
587.539	-2.92
587.661	16.08
587.783	6.08
587.906	7.08
588.028	18.08
588.151	17.08
588.273	27.08
588.395	0.08
588.518	2.08
588.64	17.08
588.763	29.08
588.885	21.08
589.007	29.08
589.13	-10.92
589.252	-6.92
589.375	13.08
589.497	-3.92
589.619	8.08
589.742	14.08
589.864	22.08
589.986	10.08
590.109	-9.92
590.231	-0.92
590.354	6.08
590.476	-3.92
590.598	9.08
590.721	6.08
590.843	28.08
590.965	24.08
591.088	11.08
591.21	2.08
591.332	31.08
591.455	-4.92
591.577	21.08
591.7	16.08
591.822	14.08
591.944	7.08
592.067	9.08
592.189	-2.92
592.311	25.08
592.434	1.08
592.556	17.08
592.678	-2.92
592.801	26.08
592.923	12.08
593.045	7.08
593.168	17.08
593.29	30.08
593.412	17.08
593.535	5.08
593.657	12.08
593.779	20.08
593.902	20.08
594.024	11.08
594.146	11.08
594.269	19.08
594.391	10.08
594.513	11.08
594.636	12.08
594.758	7.08
594.88	8.08
595.003	20.08
595.125	4.08
595.247	16.08
595.37	14.08
595.492	17.08
595.614	52.08
595.737	13.08
595.859	1.08
595.981	16.08
596.104	3.08
596.226	10.08
596.348	18.08
596.471	16.08
596.593	20.08
596.715	5.08
596.838	-2.92
596.96	16.08
597.082	10.08
597.204	25.08
597.327	0.08
597.449	14.08
597.571	-1.92
597.694	21.08
597.816	13.08
597.938	11.08
598.061	6.08
598.183	6.08
598.305	34.08
598.427	11.08
598.55	11.08
598.672	24.08
598.794	14.08
598.917	9.08
599.039	18.08
599.161	34.08
599.283	14.08
599.406	14.08
599.528	4.08
599.65	22.08
599.773	6.08
599.895	31.08
600.017	26.08
600.139	12.08
600.262	2.08
600.384	-3.92
600.506	-2.92
600.628	31.08
600.751	18.08
600.873	18.08
600.995	2.08
601.118	28.08
601.24	19.08
601.362	28.08
601.484	11.08
601.607	16.08
601.729	8.08
601.851	21.08
601.973	4.08
602.096	26.08
602.218	20.08
602.34	24.08
602.462	9.08
602.585	7.08
602.707	0.08
602.829	19.08
602.951	0.08
603.074	-7.92
603.196	10.08
603.318	12.08
603.44	17.08
603.563	27.08
603.685	12.08
603.807	21.08
603.929	9.08
604.052	11.08
604.174	21.08
604.296	16.08
604.418	17.08
604.541	13.08
604.663	-2.92
604.785	9.08
604.907	22.08
605.03	19.08
605.152	43.08
605.274	18.08
605.396	17.08
605.519	10.08
605.641	12.08
605.763	8.08
605.885	18.08
606.008	-6.92
606.13	13.08
606.252	22.08
606.374	8.08
606.496	16.08
606.619	28.08
606.741	5.08
606.863	17.08
606.985	33.08
607.108	21.08
607.23	6.08
607.352	6.08
607.474	23.08
607.596	15.08
607.719	28.08
607.841	10.08
607.963	-3.92
608.085	2.08
608.207	22.08
608.33	8.08
608.452	13.08
608.574	8.08
608.696	20.08
608.819	16.08
608.941	9.08
609.063	9.08
609.185	22.08
609.307	2.08
609.43	25.08
609.552	20.08
609.674	14.08
609.796	15.08
609.918	26.08
610.041	18.08
610.163	21.08
610.285	12.08
610.407	6.08
610.529	2.08
610.652	8.08
610.774	22.08
610.896	7.08
611.018	-3.92
611.14	4.08
611.263	8.08
611.385	-6.92
611.507	9.08
611.629	7.08
611.751	14.08
611.873	34.08
611.996	6.08
612.118	18.08
612.24	5.08
612.362	18.08
612.484	28.08
612.607	18.08
612.729	20.08
612.851	20.08
612.973	-2.92
613.095	-1.92
613.218	15.08
613.34	34.08
613.462	26.08
613.584	5.08
613.706	16.08
613.828	36.08
613.951	9.08
614.073	26.08
614.195	10.08
614.317	16.08
614.439	24.08
614.561	20.08
614.684	18.08
614.806	9.08
614.928	13.08
615.05	1.08
615.172	26.08
615.294	37.08
615.417	17.08
615.539	14.08
615.661	13.08
615.783	41.08
615.905	38.08
616.027	60.08
616.15	102.08
616.272	88.08
616.394	44.08
616.516	35.08
616.638	32.08
616.76	26.08
616.883	26.08
617.005	14.08
617.127	13.08
617.249	9.08
617.371	16.08
617.493	30.08
617.615	16.08
617.738	9.08
617.86	15.08
617.982	4.08
618.104	10.08
618.226	0.08
618.348	9.08
618.471	26.08
618.593	2.08
618.715	-13.92
618.837	22.08
618.959	12.08
619.081	22.08
619.203	4.08
619.326	1.08
619.448	3.08
619.57	6.08
619.692	13.08
619.814	11.08
619.936	18.08
620.058	12.08
620.181	28.08
620.303	14.08
620.425	16.08
620.547	1.08
620.669	19.08
620.791	4.08
620.913	1.08
621.036	11.08
621.158	20.08
621.28	4.08
621.402	-2.92
621.524	1.08
621.646	-3.92
621.768	6.08
621.891	2.08
622.013	2.08
622.135	21.08
622.257	0.08
622.379	-0.92
622.501	5.08
622.623	11.08
622.745	22.08
622.868	5.08
622.99	12.08
623.112	12.08
623.234	-0.92
623.356	12.08
623.478	6.08
623.6	24.08
623.722	5.08
623.845	19.08
623.967	4.08
624.089	0.08
624.211	-8.92
624.333	10.08
624.455	9.08
624.577	3.08
624.699	19.08
624.822	8.08
624.944	3.08
625.066	0.08
625.188	-2.92
625.31	11.08
625.432	8.08
625.554	-2.92
625.676	19.08
625.799	5.08
625.921	-1.92
626.043	6.08
626.165	-8.92
626.287	-19.92
626.409	3.08
626.531	10.08
626.653	11.08
626.775	11.08
626.898	21.08
627.02	20.08
627.142	12.08
627.264	14.08
627.386	-5.92
627.508	11.08
627.63	6.08
627.752	13.08
627.874	7.08
627.997	11.08
628.119	21.08
628.241	24.08
628.363	27.08
628.485	13.08
628.607	13.08
628.729	16.08
628.851	-8.92
628.973	5.08
629.096	8.08
629.218	15.08
629.34	33.08
629.462	10.08
629.584	6.08
629.706	4.08
629.828	28.08
629.95	37.08
630.072	18.08
630.195	7.08
630.317	8.08
630.439	-7.92
630.561	2.08
630.683	0.08
630.805	13.08
630.927	26.08
631.049	6.08
631.171	8.08
631.293	-9.92
631.416	10.08
631.538	18.08
631.66	5.08
631.782	29.08
631.904	31.08
632.026	-8.92
632.148	12.08
632.27	-5.92
632.392	15.08
632.514	21.08
632.637	4.08
632.759	7.08
632.881	-14.92
633.003	-6.92
633.125	16.08
633.247	18.08
633.369	6.08
633.491	25.08
633.613	14.08
633.735	12.08
633.858	15.08
633.98	4.08
634.102	-1.92
634.224	-6.92
634.346	6.08
634.468	13.08
634.59	23.08
634.712	3.08
634.834	3.08
634.956	-15.92
635.078	-0.92
635.201	-10.92
635.323	5.08
635.445	8.08
635.567	8.08
635.689	2.08
635.811	16.08
635.933	9.08
636.055	6.08
636.177	4.08
636.299	25.08
636.421	0.08
636.544	-5.92
636.666	19.08
636.788	20.08
636.91	9.08
637.032	5.08
637.154	16.08
637.276	38.08
637.398	16.08
637.52	20.08
637.642	15.08
637.764	0.08
637.887	4.08
638.009	17.08
638.131	9.08
638.253	0.08
638.375	2.08
638.497	0.08
638.619	-5.92
638.741	10.08
638.863	-12.92
638.985	2.08
639.107	3.08
639.23	-8.92
639.352	29.08
639.474	19.08
639.596	13.08
639.718	-14.92
639.84	15.08
639.962	8.08
640.084	10.08
640.206	16.08
640.328	6.08
640.45	5.08
640.573	8.08
640.695	10.08
640.817	17.08
640.939	16.08
641.061	-8.92
641.183	-8.92
641.305	-5.92
641.427	5.08
641.549	1.08
641.671	4.08
641.793	-7.92
641.915	12.08
642.038	17.08
642.16	18.08
642.282	16.08
642.404	3.08
642.526	10.08
642.648	0.08
642.77	7.08
642.892	7.08
643.014	5.08
643.136	19.08
643.258	19.08
643.381	36.08
643.503	32.08
643.625	15.08
643.747	-6.92
643.869	2.08
643.991	8.08
644.113	20.08
644.235	11.08
644.357	9.08
644.479	14.08
644.601	17.08
644.723	12.08
644.846	10.08
644.968	9.08
645.09	11.08
645.212	8.08
645.334	12.08
645.456	19.08
645.578	29.08
645.7	14.08
645.822	32.08
645.944	8.08
646.066	24.08
646.188	10.08
646.311	38.08
646.433	7.08
646.555	33.08
646.677	55.08
646.799	59.08
646.921	24.08
647.043	53.08
647.165	8.08
647.287	18.08
647.409	3.08
647.531	14.08
647.654	-22.92
647.776	15.08
647.898	13.08
648.02	11.08
648.142	-11.92
648.264	6.08
648.386	-2.92
648.508	0.08
648.63	-9.92
648.752	5.08
648.874	21.08
648.997	16.08
649.119	9.08
649.241	13.08
649.363	17.08
649.485	13.08
649.607	-15.92
649.729	-9.92
649.851	-11.92
649.973	7.08
650.095	18.08
650.217	-6.92
650.34	3.08
650.462	20.08
650.584	17.08
650.706	16.08
650.828	20.08
650.95	-9.92
651.072	19.08
651.194	1.08
651.316	26.08
651.438	6.08
651.56	1.08
651.683	2.08
651.805	12.08
651.927	4.08
652.049	5.08
652.171	3.08
652.293	0.08
652.415	3.08
652.537	-8.92
652.659	1.08
652.781	-1.92
652.903	1.08
653.026	26.08
653.148	4.08
653.27	0.08
653.392	19.08
653.514	14.08
653.636	25.08
653.758	9.08
653.88	5.08
654.002	7.08
654.124	4.08
654.247	-2.92
654.369	20.08
654.491	8.08
654.613	9.08
654.735	-4.92
654.857	20.08
654.979	-2.92
655.101	25.08
655.223	29.08
655.345	30.08
655.468	38.08
655.59	16.08
655.712	27.08
655.834	32.08
655.956	31.08
656.078	25.08
656.2	46.08
656.322	54.08
656.444	24.08
656.566	62.08
656.689	54.08
656.811	55.08
656.933	85.08
657.055	108.08
657.177	154.08
657.299	252.08
657.421	479.08
657.543	1913.08
657.665	12566.08
657.787	15170.08
657.91	15282.08
658.032	15663.08
658.154	4634.08
658.276	3555.08
658.398	1173.08
658.52	1036.08
658.642	483.08
658.764	574.08
658.886	277.08
659.009	418.08
659.131	218.08
659.253	339.08
659.375	174.08
659.497	243.08
659.619	140.08
659.741	208.08
659.863	101.08
659.985	164.08
660.108	106.08
660.23	144.08
660.352	94.08
660.474	150.08
660.596	74.08
660.718	134.08
660.84	57.08
660.962	117.08
661.084	52.08
661.207	90.08
661.329	56.08
661.451	89.08
661.573	53.08
661.695	114.08
661.817	51.08
661.939	123.08
662.061	76.08
662.184	91.08
662.306	65.08
662.428	90.08
662.55	56.08
662.672	62.08
662.794	46.08
662.916	68.08
663.038	29.08
663.161	66.08
663.283	51.08
663.405	72.08
663.527	25.08
663.649	56.08
663.771	26.08
663.893	60.08
664.015	34.08
664.138	59.08
664.26	19.08
664.382	48.08
664.504	23.08
664.626	41.08
664.748	26.08
664.87	48.08
664.992	36.08
665.115	51.08
665.237	30.08
665.359	44.08
665.481	26.08
665.603	56.08
665.725	26.08
665.847	13.08
665.97	7.08
666.092	35.08
666.214	34.08
666.336	44.08
666.458	24.08
666.58	43.08
666.702	6.08
666.825	43.08
666.947	-2.92
667.069	30.08
667.191	23.08
667.313	40.08
667.435	6.08
667.557	30.08
667.68	17.08
667.802	43.08
667.924	32.08
668.046	44.08
668.168	31.08
668.29	53.08
668.412	13.08
668.535	38.08
668.657	22.08
668.779	45.08
668.901	21.08
669.023	45.08
669.145	13.08
669.267	32.08
669.39	15.08
669.512	24.08
669.634	10.08
669.756	17.08
669.878	26.08
670	33.08
670.123	17.08
670.245	22.08
670.367	26.08
670.489	36.08
670.611	6.08
670.733	16.08
670.856	15.08
670.978	30.08
671.1	27.08
671.222	22.08
671.344	22.08
671.466	29.08
671.589	0.08
671.711	10.08
671.833	-1.92
671.955	18.08
672.077	9.08
672.199	34.08
672.322	44.08
672.444	37.08
672.566	12.08
672.688	13.08
672.81	18.08
672.932	42.08
673.055	9.08
673.177	13.08
673.299	10.08
673.421	11.08
673.543	6.08
673.665	32.08
673.788	6.08
673.91	6.08
674.032	-6.92
674.154	20.08
674.276	21.08
674.399	7.08
674.521	5.08
674.643	23.08
674.765	1.08
674.887	11.08
675.009	3.08
675.132	16.08
675.254	2.08
675.376	6.08
675.498	20.08
675.62	34.08
675.743	38.08
675.865	44.08
675.987	0.08
676.109	22.08
676.231	11.08
676.354	15.08
676.476	7.08
676.598	20.08
676.72	14.08
676.842	16.08
676.965	5.08
677.087	28.08
677.209	4.08
677.331	24.08
677.453	27.08
677.576	26.08
677.698	11.08
677.82	19.08
677.942	-6.92
678.064	14.08
678.187	14.08
678.309	8.08
678.431	3.08
678.553	22.08
678.675	7.08
678.798	17.08
678.92	-3.92
679.042	11.08
679.164	10.08
679.286	41.08
679.409	-1.92
679.531	-3.92
679.653	-4.92
679.775	12.08
679.898	17.08
680.02	8.08
680.142	-11.92
680.264	28.08
680.386	12.08
680.509	8.08
680.631	12.08
680.753	3.08
680.875	5.08
680.998	30.08
681.12	-5.92
681.242	22.08
681.364	-2.92
681.486	1.08
681.609	-11.92
681.731	-2.92
681.853	-4.92
681.975	17.08
682.098	20.08
682.22	38.08
682.342	11.08
682.464	13.08
682.587	-5.92
682.709	22.08
682.831	5.08
682.953	9.08
683.076	-2.92
683.198	11.08
683.32	15.08
683.442	21.08
683.565	17.08
683.687	19.08
683.809	-1.92
683.931	0.08
684.054	24.08
684.176	18.08
684.298	-4.92
684.42	23.08
684.543	9.08
684.665	32.08
684.787	8.08
684.909	24.08
685.032	13.08
685.154	6.08
685.276	5.08
685.398	3.08
685.521	-22.92
685.643	37.08
685.765	-6.92
685.887	1.08
686.01	9.08
686.132	25.08
686.254	19.08
686.377	36.08
686.499	10.08
686.621	24.08
686.743	14.08
686.866	9.08
686.988	24.08
687.11	17.08
687.232	4.08
687.355	1.08
687.477	7.08
687.599	19.08
687.722	1.08
687.844	32.08
687.966	8.08
688.088	26.08
688.211	28.08
688.333	24.08
688.455	10.08
688.578	28.08
688.7	22.08
688.822	13.08
688.944	-7.92
689.067	61.08
689.189	29.08
689.311	5.08
689.434	1.08
689.556	1.08
689.678	13.08
689.801	-12.92
689.923	17.08
690.045	34.08
690.167	19.08
690.29	17.08
690.412	23.08
690.534	22.08
690.657	1.08
690.779	-7.92
690.901	19.08
691.024	21.08
691.146	2.08
691.268	6.08
691.391	15.08
691.513	25.08
691.635	15.08
691.758	33.08
691.88	25.08
692.002	-2.92
692.125	9.08
692.247	-1.92
692.369	13.08
692.492	4.08
692.614	25.08
692.736	18.08
692.859	4.08
692.981	-0.92
693.103	31.08
693.226	31.08
693.348	50.08
693.47	17.08
693.593	-7.92
693.715	-5.92
693.837	-4.92
693.96	-3.92
694.082	-9.92
694.204	5.08
694.327	0.08
694.449	8.08
694.571	2.08
694.694	15.08
694.816	6.08
694.938	2.08
695.061	15.08
695.183	16.08
695.305	20.08
695.428	-5.92
695.55	9.08
695.672	7.08
695.795	16.08
695.917	29.08
696.04	2.08
696.162	5.08
696.284	22.08
696.407	18.08
696.529	12.08
696.651	46.08
696.774	-0.92
696.896	21.08
697.019	6.08
697.141	36.08
697.263	-6.92
697.386	3.08
697.508	22.08
697.63	13.08
697.753	23.08
697.875	22.08
697.998	-2.92
698.12	20.08
698.242	20.08
698.365	5.08
698.487	10.08
698.61	13.08
698.732	10.08
698.854	21.08
698.977	10.08
699.099	14.08
699.221	-6.92
699.344	8.08
699.466	15.08
699.589	10.08
699.711	1.08
699.834	0.08
699.956	4.08
700.078	14.08
700.201	4.08
700.323	24.08
700.446	0.08
700.568	13.08
700.69	-10.92
700.813	22.08
700.935	0.08
701.058	29.08
701.18	13.08
701.302	9.08
701.425	5.08
701.547	-3.92
701.67	-13.92
701.792	23.08
701.915	-5.92
702.037	2.08
702.159	11.08
702.282	15.08
702.404	14.08
702.527	0.08
702.649	6.08
702.772	23.08
702.894	15.08
703.017	27.08
703.139	-0.92
703.261	25.08
703.384	21.08
703.506	6.08
703.629	2.08
703.751	14.08
703.874	14.08
703.996	-1.92
704.119	2.08
704.241	-5.92
704.364	-14.92
704.486	10.08
704.608	6.08
704.731	12.08
704.853	15.08
704.976	5.08
705.098	-2.92
705.221	9.08
705.343	19.08
705.466	6.08
705.588	13.08
705.711	18.08
705.833	16.08
705.956	9.08
706.078	23.08
706.201	5.08
706.323	6.08
706.446	16.08
