Data from LowRes_H2_15_26_11_07_2024_HR4C61881__46__15-28-18-237.txt Node

Date: Thu Nov 07 15:28:18 EST 2024
User: crc00042
Spectrometer: HR4C6188
Trigger mode: 4
Integration Time (sec): 1.000000E-1
Scans to average: 1
Electric dark correction enabled: true
Nonlinearity correction enabled: false
Boxcar width: 0
XAxis mode: Wavelengths
Number of Pixels in Spectrum: 3648
>>>>>Begin Spectral Data<<<<<
245.66	-108.31
245.797	-108.31
245.934	-108.31
246.071	-84.31
246.208	-1.31
246.344	-16.31
246.481	-4.31
246.618	-9.31
246.755	33.69
246.892	15.69
247.029	-17.31
247.165	-15.31
247.302	23.69
247.439	3.69
247.576	-0.31
247.713	-21.31
247.849	19.69
247.986	-12.31
248.123	4.69
248.26	-23.31
248.396	0.69
248.533	-11.31
248.67	0.69
248.806	5.69
248.943	-32.31
249.08	0.69
249.216	5.69
249.353	-11.31
249.49	-13.31
249.626	-0.31
249.763	13.69
249.9	-10.31
250.036	4.69
250.173	6.69
250.309	-4.31
250.446	12.69
250.582	27.69
250.719	-13.31
250.856	-14.31
250.992	-7.31
251.129	-30.31
251.265	-2.31
251.402	0.69
251.538	-11.31
251.675	-6.31
251.811	19.69
251.948	8.69
252.084	-0.31
252.221	-7.31
252.357	-12.31
252.493	33.69
252.63	4.69
252.766	20.69
252.903	-5.31
253.039	-4.31
253.175	-16.31
253.312	4.69
253.448	-12.31
253.585	-17.31
253.721	2.69
253.857	1.69
253.994	23.69
254.13	-0.31
254.266	-6.31
254.403	3.69
254.539	8.69
254.675	10.69
254.811	-5.31
254.948	-5.31
255.084	-2.31
255.22	-14.31
255.356	-4.31
255.493	-4.31
255.629	-6.31
255.765	-9.31
255.901	10.69
256.037	5.69
256.174	3.69
256.31	-3.31
256.446	-16.31
256.582	-13.31
256.718	9.69
256.854	25.69
256.991	-8.31
257.127	23.69
257.263	-10.31
257.399	5.69
257.535	-4.31
257.671	-10.31
257.807	-16.31
257.943	-18.31
258.079	-0.31
258.215	-1.31
258.351	10.69
258.487	-5.31
258.623	21.69
258.759	-2.31
258.895	15.69
259.031	-3.31
259.167	-18.31
259.303	14.69
259.439	-3.31
259.575	-23.31
259.711	-7.31
259.847	-11.31
259.983	-2.31
260.119	-17.31
260.255	-7.31
260.391	3.69
260.527	-4.31
260.663	20.69
260.799	10.69
260.934	-12.31
261.07	-4.31
261.206	-19.31
261.342	-18.31
261.478	9.69
261.614	-7.31
261.749	1.69
261.885	-5.31
262.021	17.69
262.157	16.69
262.293	-0.31
262.428	-14.31
262.564	-1.31
262.7	7.69
262.836	-10.31
262.971	15.69
263.107	8.69
263.243	30.69
263.378	-3.31
263.514	-2.31
263.65	-15.31
263.785	-11.31
263.921	3.69
264.057	2.69
264.192	23.69
264.328	4.69
264.464	0.69
264.599	5.69
264.735	27.69
264.871	-15.31
265.006	0.69
265.142	1.69
265.277	7.69
265.413	23.69
265.548	6.69
265.684	-2.31
265.819	2.69
265.955	-11.31
266.091	-22.31
266.226	-19.31
266.362	4.69
266.497	4.69
266.633	2.69
266.768	-3.31
266.903	21.69
267.039	4.69
267.174	31.69
267.31	-9.31
267.445	-18.31
267.581	-1.31
267.716	5.69
267.851	-10.31
267.987	7.69
268.122	10.69
268.258	-12.31
268.393	7.69
268.528	0.69
268.664	-32.31
268.799	-17.31
268.934	-15.31
269.07	-10.31
269.205	-8.31
269.34	24.69
269.476	7.69
269.611	-28.31
269.746	1.69
269.881	-2.31
270.017	8.69
270.152	3.69
270.287	5.69
270.422	-7.31
270.558	8.69
270.693	6.69
270.828	3.69
270.963	-9.31
271.098	-6.31
271.234	1.69
271.369	-1.31
271.504	-6.31
271.639	-14.31
271.774	2.69
271.909	-15.31
272.045	-19.31
272.18	-18.31
272.315	-10.31
272.45	12.69
272.585	-5.31
272.72	13.69
272.855	-10.31
272.99	30.69
273.125	-17.31
273.26	-15.31
273.395	-8.31
273.53	-13.31
273.665	7.69
273.8	12.69
273.935	18.69
274.07	-2.31
274.205	18.69
274.34	13.69
274.475	1.69
274.61	13.69
274.745	-12.31
274.88	14.69
275.015	-14.31
275.15	-4.31
275.285	-2.31
275.42	-4.31
275.555	22.69
275.69	14.69
275.825	-17.31
275.959	8.69
276.094	0.69
276.229	-14.31
276.364	-5.31
276.499	-17.31
276.634	2.69
276.768	-19.31
276.903	23.69
277.038	18.69
277.173	9.69
277.308	-2.31
277.442	-6.31
277.577	-0.31
277.712	-9.31
277.847	-16.31
277.981	20.69
278.116	-34.31
278.251	-11.31
278.386	-1.31
278.52	11.69
278.655	10.69
278.79	7.69
278.924	24.69
279.059	21.69
279.194	-18.31
279.328	22.69
279.463	2.69
279.598	7.69
279.732	16.69
279.867	9.69
280.001	-3.31
280.136	-18.31
280.271	5.69
280.405	-15.31
280.54	-20.31
280.674	-2.31
280.809	25.69
280.943	7.69
281.078	-8.31
281.213	10.69
281.347	-5.31
281.482	-6.31
281.616	-0.31
281.751	7.69
281.885	-6.31
282.02	-12.31
282.154	4.69
282.288	-11.31
282.423	-12.31
282.557	-6.31
282.692	10.69
282.826	6.69
282.961	8.69
283.095	-9.31
283.229	-8.31
283.364	-21.31
283.498	1.69
283.633	8.69
283.767	-8.31
283.901	-18.31
284.036	-15.31
284.17	-24.31
284.304	-23.31
284.439	10.69
284.573	-13.31
284.707	5.69
284.842	-6.31
284.976	-16.31
285.11	-16.31
285.244	12.69
285.379	37.69
285.513	-10.31
285.647	6.69
285.781	-2.31
285.916	13.69
286.05	-11.31
286.184	11.69
286.318	6.69
286.453	-14.31
286.587	-27.31
286.721	-8.31
286.855	20.69
286.989	-9.31
287.123	2.69
287.258	-7.31
287.392	-0.31
287.526	-2.31
287.66	7.69
287.794	-7.31
287.928	-21.31
288.062	-10.31
288.196	3.69
288.33	-3.31
288.464	-4.31
288.598	0.69
288.733	6.69
288.867	13.69
289.001	-4.31
289.135	-3.31
289.269	-14.31
289.403	-8.31
289.537	-0.31
289.671	1.69
289.805	0.69
289.939	-1.31
290.073	1.69
290.207	12.69
290.34	1.69
290.474	3.69
290.608	30.69
290.742	-0.31
290.876	-1.31
291.01	-13.31
291.144	19.69
291.278	12.69
291.412	-7.31
291.546	-18.31
291.679	-10.31
291.813	-16.31
291.947	0.69
292.081	-0.31
292.215	-9.31
292.349	10.69
292.482	9.69
292.616	-7.31
292.75	-6.31
292.884	12.69
293.018	-2.31
293.151	-10.31
293.285	1.69
293.419	-14.31
293.553	-3.31
293.686	-9.31
293.82	10.69
293.954	12.69
294.088	10.69
294.221	-6.31
294.355	-14.31
294.489	-9.31
294.622	-23.31
294.756	-8.31
294.89	2.69
295.023	-3.31
295.157	0.69
295.291	-13.31
295.424	-0.31
295.558	5.69
295.691	5.69
295.825	2.69
295.959	-0.31
296.092	-8.31
296.226	-1.31
296.359	-0.31
296.493	-5.31
296.627	-8.31
296.76	-6.31
296.894	-6.31
297.027	0.69
297.161	-3.31
297.294	-22.31
297.428	-12.31
297.561	21.69
297.695	-17.31
297.828	-8.31
297.962	-11.31
298.095	-19.31
298.229	-7.31
298.362	-9.31
298.495	-16.31
298.629	-16.31
298.762	0.69
298.896	1.69
299.029	-29.31
299.162	9.69
299.296	-6.31
299.429	-0.31
299.563	-1.31
299.696	5.69
299.829	-2.31
299.963	10.69
300.096	9.69
300.229	13.69
300.363	2.69
300.496	-8.31
300.629	-11.31
300.763	-11.31
300.896	-1.31
301.029	-7.31
301.162	-16.31
301.296	-25.31
301.429	-6.31
301.562	-22.31
301.695	17.69
301.829	10.69
301.962	19.69
302.095	1.69
302.228	-19.31
302.362	4.69
302.495	-9.31
302.628	-0.31
302.761	-1.31
302.894	7.69
303.027	1.69
303.161	-7.31
303.294	-8.31
303.427	2.69
303.56	15.69
303.693	-13.31
303.826	-12.31
303.959	12.69
304.092	3.69
304.225	-13.31
304.359	-1.31
304.492	-4.31
304.625	-6.31
304.758	8.69
304.891	-30.31
305.024	-5.31
305.157	-4.31
305.29	-23.31
305.423	-5.31
305.556	-7.31
305.689	3.69
305.822	-12.31
305.955	-1.31
306.088	-8.31
306.221	-4.31
306.354	-1.31
306.487	5.69
306.62	-8.31
306.752	-1.31
306.885	-1.31
307.018	-22.31
307.151	-3.31
307.284	-2.31
307.417	-17.31
307.55	-3.31
307.683	-12.31
307.816	3.69
307.948	3.69
308.081	6.69
308.214	-1.31
308.347	20.69
308.48	-11.31
308.613	-20.31
308.745	3.69
308.878	-9.31
309.011	-5.31
309.144	0.69
309.277	1.69
309.409	7.69
309.542	-11.31
309.675	27.69
309.808	4.69
309.94	8.69
310.073	-7.31
310.206	4.69
310.339	8.69
310.471	-19.31
310.604	11.69
310.737	-5.31
310.869	-13.31
311.002	-8.31
311.135	-16.31
311.267	-15.31
311.4	-9.31
311.533	-2.31
311.665	8.69
311.798	1.69
311.93	-7.31
312.063	2.69
312.196	-1.31
312.328	-2.31
312.461	-3.31
312.593	-6.31
312.726	-8.31
312.859	-2.31
312.991	9.69
313.124	-20.31
313.256	6.69
313.389	-3.31
313.521	0.69
313.654	2.69
313.786	-18.31
313.919	-14.31
314.051	1.69
314.184	16.69
314.316	5.69
314.449	-18.31
314.581	6.69
314.714	0.69
314.846	0.69
314.978	-16.31
315.111	5.69
315.243	14.69
315.376	13.69
315.508	-16.31
315.641	-2.31
315.773	40.69
315.905	11.69
316.038	-15.31
316.17	9.69
316.302	11.69
316.435	-7.31
316.567	-8.31
316.699	7.69
316.832	-23.31
316.964	-6.31
317.096	-14.31
317.229	-9.31
317.361	-23.31
317.493	-7.31
317.625	-3.31
317.758	17.69
317.89	3.69
318.022	1.69
318.155	-5.31
318.287	-2.31
318.419	-13.31
318.551	-0.31
318.683	0.69
318.816	-1.31
318.948	-17.31
319.08	-12.31
319.212	4.69
319.344	7.69
319.477	-0.31
319.609	14.69
319.741	7.69
319.873	-15.31
320.005	-7.31
320.137	15.69
320.269	16.69
320.401	-7.31
320.534	-3.31
320.666	-29.31
320.798	-25.31
320.93	-4.31
321.062	-23.31
321.194	-9.31
321.326	-25.31
321.458	7.69
321.59	-1.31
321.722	-8.31
321.854	-18.31
321.986	-6.31
322.118	9.69
322.25	9.69
322.382	-0.31
322.514	-6.31
322.646	-6.31
322.778	-0.31
322.91	-11.31
323.042	-1.31
323.174	-5.31
323.306	-4.31
323.438	-8.31
323.57	12.69
323.702	18.69
323.834	0.69
323.966	-13.31
324.097	-3.31
324.229	8.69
324.361	2.69
324.493	-0.31
324.625	-6.31
324.757	0.69
324.889	-1.31
325.021	5.69
325.152	28.69
325.284	-2.31
325.416	-13.31
325.548	8.69
325.68	-29.31
325.811	-4.31
325.943	7.69
326.075	-18.31
326.207	-8.31
326.339	13.69
326.47	-8.31
326.602	12.69
326.734	13.69
326.866	4.69
326.997	-16.31
327.129	-20.31
327.261	-36.31
327.392	-0.31
327.524	-15.31
327.656	4.69
327.787	-0.31
327.919	2.69
328.051	10.69
328.182	11.69
328.314	6.69
328.446	3.69
328.577	17.69
328.709	13.69
328.841	-11.31
328.972	-16.31
329.104	-3.31
329.235	9.69
329.367	4.69
329.499	-8.31
329.63	-11.31
329.762	-8.31
329.893	0.69
330.025	10.69
330.156	-8.31
330.288	15.69
330.419	8.69
330.551	3.69
330.683	15.69
330.814	-3.31
330.946	-2.31
331.077	-13.31
331.208	-2.31
331.34	-2.31
331.471	-10.31
331.603	-10.31
331.734	-8.31
331.866	-16.31
331.997	-8.31
332.129	-6.31
332.26	-2.31
332.392	42.69
332.523	10.69
332.654	-17.31
332.786	7.69
332.917	-7.31
333.048	9.69
333.18	20.69
333.311	-12.31
333.443	-1.31
333.574	1.69
333.705	16.69
333.837	-12.31
333.968	3.69
334.099	28.69
334.231	4.69
334.362	-5.31
334.493	5.69
334.624	18.69
334.756	11.69
334.887	13.69
335.018	5.69
335.15	9.69
335.281	2.69
335.412	23.69
335.543	8.69
335.675	-4.31
335.806	12.69
335.937	2.69
336.068	9.69
336.199	41.69
336.331	-0.31
336.462	-27.31
336.593	10.69
336.724	8.69
336.855	-0.31
336.986	9.69
337.118	5.69
337.249	10.69
337.38	-10.31
337.511	1.69
337.642	14.69
337.773	4.69
337.904	13.69
338.035	0.69
338.166	-2.31
338.298	1.69
338.429	-18.31
338.56	11.69
338.691	11.69
338.822	-6.31
338.953	-9.31
339.084	9.69
339.215	-1.31
339.346	-2.31
339.477	-4.31
339.608	6.69
339.739	5.69
339.87	13.69
340.001	-5.31
340.132	1.69
340.263	-10.31
340.394	-0.31
340.525	6.69
340.656	-15.31
340.787	-11.31
340.918	18.69
341.049	-10.31
341.179	13.69
341.31	10.69
341.441	8.69
341.572	9.69
341.703	-11.31
341.834	-10.31
341.965	14.69
342.096	-8.31
342.227	-3.31
342.357	1.69
342.488	-9.31
342.619	-7.31
342.75	-8.31
342.881	2.69
343.012	21.69
343.142	30.69
343.273	-1.31
343.404	8.69
343.535	9.69
343.666	5.69
343.796	16.69
343.927	10.69
344.058	14.69
344.189	12.69
344.319	-8.31
344.45	-14.31
344.581	-6.31
344.712	-29.31
344.842	-6.31
344.973	-29.31
345.104	5.69
345.234	-10.31
345.365	-19.31
345.496	-0.31
345.626	4.69
345.757	15.69
345.888	-9.31
346.018	12.69
346.149	-5.31
346.28	15.69
346.41	-7.31
346.541	13.69
346.672	-10.31
346.802	5.69
346.933	1.69
347.063	0.69
347.194	7.69
347.325	9.69
347.455	7.69
347.586	-0.31
347.716	-14.31
347.847	3.69
347.977	8.69
348.108	21.69
348.238	15.69
348.369	10.69
348.499	12.69
348.63	-5.31
348.76	1.69
348.891	17.69
349.021	14.69
349.152	-0.31
349.282	-5.31
349.413	-18.31
349.543	22.69
349.674	2.69
349.804	14.69
349.935	-11.31
350.065	-5.31
350.196	-0.31
350.326	10.69
350.456	10.69
350.587	14.69
350.717	6.69
350.848	0.69
350.978	11.69
351.108	-25.31
351.239	2.69
351.369	-16.31
351.499	0.69
351.63	13.69
351.76	-5.31
351.89	-2.31
352.021	13.69
352.151	0.69
352.281	1.69
352.412	11.69
352.542	14.69
352.672	7.69
352.803	-2.31
352.933	-4.31
353.063	7.69
353.193	3.69
353.324	-4.31
353.454	19.69
353.584	24.69
353.714	-13.31
353.845	-10.31
353.975	-23.31
354.105	-14.31
354.235	7.69
354.365	-16.31
354.496	-11.31
354.626	21.69
354.756	23.69
354.886	5.69
355.016	2.69
355.146	-2.31
355.277	17.69
355.407	-7.31
355.537	5.69
355.667	-12.31
355.797	-6.31
355.927	-8.31
356.057	0.69
356.187	-10.31
356.318	-2.31
356.448	0.69
356.578	13.69
356.708	6.69
356.838	-16.31
356.968	8.69
357.098	7.69
357.228	19.69
357.358	-13.31
357.488	-1.31
357.618	31.69
357.748	12.69
357.878	4.69
358.008	-3.31
358.138	5.69
358.268	-2.31
358.398	23.69
358.528	-11.31
358.658	4.69
358.788	-7.31
358.918	23.69
359.048	4.69
359.178	4.69
359.308	13.69
359.438	12.69
359.568	6.69
359.698	-0.31
359.827	-6.31
359.957	15.69
360.087	5.69
360.217	-6.31
360.347	-2.31
360.477	19.69
360.607	-10.31
360.737	17.69
360.866	6.69
360.996	-12.31
361.126	-8.31
361.256	29.69
361.386	2.69
361.516	23.69
361.645	-10.31
361.775	-2.31
361.905	-19.31
362.035	16.69
362.165	17.69
362.294	11.69
362.424	13.69
362.554	20.69
362.684	-5.31
362.813	6.69
362.943	4.69
363.073	-3.31
363.203	-2.31
363.332	11.69
363.462	-22.31
363.592	-9.31
363.721	1.69
363.851	-1.31
363.981	9.69
364.111	11.69
364.24	-11.31
364.37	8.69
364.5	8.69
364.629	15.69
364.759	-14.31
364.888	-17.31
365.018	6.69
365.148	-6.31
365.277	5.69
365.407	3.69
365.537	10.69
365.666	16.69
365.796	-5.31
365.925	7.69
366.055	9.69
366.184	-20.31
366.314	5.69
366.444	16.69
366.573	-8.31
366.703	-9.31
366.832	9.69
366.962	-1.31
367.091	6.69
367.221	9.69
367.35	5.69
367.48	30.69
367.609	9.69
367.739	21.69
367.868	-4.31
367.998	-6.31
368.127	-0.31
368.257	-0.31
368.386	22.69
368.516	-7.31
368.645	9.69
368.775	1.69
368.904	-7.31
369.033	-15.31
369.163	-18.31
369.292	-0.31
369.422	13.69
369.551	-0.31
369.68	6.69
369.81	4.69
369.939	-5.31
370.069	17.69
370.198	13.69
370.327	-17.31
370.457	-6.31
370.586	-7.31
370.715	-10.31
370.845	0.69
370.974	14.69
371.103	-1.31
371.233	6.69
371.362	0.69
371.491	-6.31
371.621	22.69
371.75	7.69
371.879	-16.31
372.008	9.69
372.138	-2.31
372.267	11.69
372.396	4.69
372.525	-7.31
372.655	6.69
372.784	3.69
372.913	-7.31
373.042	8.69
373.172	13.69
373.301	-4.31
373.43	-22.31
373.559	-10.31
373.688	13.69
373.818	22.69
373.947	5.69
374.076	0.69
374.205	1.69
374.334	-5.31
374.463	14.69
374.593	7.69
374.722	14.69
374.851	24.69
374.98	1.69
375.109	7.69
375.238	20.69
375.367	21.69
375.496	-30.31
375.625	-16.31
375.755	16.69
375.884	22.69
376.013	23.69
376.142	2.69
376.271	5.69
376.4	7.69
376.529	-4.31
376.658	7.69
376.787	-8.31
376.916	8.69
377.045	0.69
377.174	9.69
377.303	0.69
377.432	18.69
377.561	27.69
377.69	1.69
377.819	13.69
377.948	-13.31
378.077	-8.31
378.206	-15.31
378.335	-13.31
378.464	-8.31
378.593	15.69
378.722	-2.31
378.851	-9.31
378.98	33.69
379.108	1.69
379.237	-4.31
379.366	-1.31
379.495	22.69
379.624	13.69
379.753	4.69
379.882	-0.31
380.011	-5.31
380.14	-3.31
380.268	1.69
380.397	-11.31
380.526	6.69
380.655	-7.31
380.784	-24.31
380.913	-14.31
381.041	15.69
381.17	-9.31
381.299	-7.31
381.428	9.69
381.557	2.69
381.685	-6.31
381.814	21.69
381.943	-7.31
382.072	-9.31
382.2	-2.31
382.329	-8.31
382.458	-7.31
382.587	23.69
382.715	15.69
382.844	2.69
382.973	0.69
383.102	-7.31
383.23	-5.31
383.359	-13.31
383.488	3.69
383.616	5.69
383.745	1.69
383.874	7.69
384.003	-17.31
384.131	-10.31
384.26	-5.31
384.389	-0.31
384.517	-14.31
384.646	-7.31
384.774	-15.31
384.903	3.69
385.032	17.69
385.16	20.69
385.289	5.69
385.418	-5.31
385.546	-2.31
385.675	17.69
385.803	-0.31
385.932	17.69
386.06	-12.31
386.189	2.69
386.318	-0.31
386.446	-15.31
386.575	13.69
386.703	9.69
386.832	-0.31
386.96	-15.31
387.089	-0.31
387.217	-5.31
387.346	-2.31
387.474	7.69
387.603	-5.31
387.731	2.69
387.86	23.69
387.988	24.69
388.117	-2.31
388.245	-8.31
388.374	-11.31
388.502	13.69
388.631	1.69
388.759	-11.31
388.888	5.69
389.016	9.69
389.144	-9.31
389.273	-2.31
389.401	3.69
389.53	-15.31
389.658	8.69
389.786	-24.31
389.915	-21.31
390.043	-13.31
390.172	-7.31
390.3	26.69
390.428	5.69
390.557	-8.31
390.685	5.69
390.813	19.69
390.942	17.69
391.07	-7.31
391.198	-3.31
391.327	-0.31
391.455	-24.31
391.583	16.69
391.712	6.69
391.84	13.69
391.968	2.69
392.096	13.69
392.225	-4.31
392.353	-3.31
392.481	-5.31
392.609	19.69
392.738	-0.31
392.866	-2.31
392.994	-7.31
393.122	14.69
393.251	-11.31
393.379	-10.31
393.507	-25.31
393.635	-1.31
393.764	-1.31
393.892	16.69
394.02	-21.31
394.148	-16.31
394.276	7.69
394.404	21.69
394.533	-7.31
394.661	3.69
394.789	23.69
394.917	20.69
395.045	-5.31
395.173	-5.31
395.302	-9.31
395.43	7.69
395.558	11.69
395.686	17.69
395.814	4.69
395.942	0.69
396.07	9.69
396.198	23.69
396.326	29.69
396.454	19.69
396.582	-8.31
396.711	6.69
396.839	10.69
396.967	2.69
397.095	12.69
397.223	-1.31
397.351	13.69
397.479	15.69
397.607	-16.31
397.735	8.69
397.863	21.69
397.991	4.69
398.119	-29.31
398.247	-5.31
398.375	9.69
398.503	0.69
398.631	7.69
398.759	-5.31
398.887	-4.31
399.015	3.69
399.143	-3.31
399.271	1.69
399.399	-9.31
399.526	1.69
399.654	14.69
399.782	-20.31
399.91	9.69
400.038	29.69
400.166	0.69
400.294	2.69
400.422	-24.31
400.55	22.69
400.678	26.69
400.805	-6.31
400.933	4.69
401.061	13.69
401.189	5.69
401.317	15.69
401.445	30.69
401.573	6.69
401.7	-4.31
401.828	-2.31
401.956	-3.31
402.084	17.69
402.212	16.69
402.34	6.69
402.467	10.69
402.595	10.69
402.723	-0.31
402.851	14.69
402.978	0.69
403.106	-10.31
403.234	7.69
403.362	16.69
403.489	6.69
403.617	16.69
403.745	16.69
403.873	-16.31
404	-1.31
404.128	-1.31
404.256	21.69
404.384	22.69
404.511	16.69
404.639	3.69
404.767	12.69
404.894	-0.31
405.022	-12.31
405.15	7.69
405.277	-14.31
405.405	-12.31
405.533	-1.31
405.66	-7.31
405.788	-27.31
405.916	-24.31
406.043	-24.31
406.171	-10.31
406.299	-0.31
406.426	-3.31
406.554	13.69
406.681	31.69
406.809	6.69
406.937	-2.31
407.064	-8.31
407.192	1.69
407.319	-10.31
407.447	-1.31
407.574	21.69
407.702	10.69
407.83	-15.31
407.957	-16.31
408.085	0.69
408.212	-23.31
408.34	1.69
408.467	3.69
408.595	-3.31
408.722	-2.31
408.85	19.69
408.977	1.69
409.105	7.69
409.232	17.69
409.36	-13.31
409.487	10.69
409.615	12.69
409.742	20.69
409.87	10.69
409.997	24.69
410.125	40.69
410.252	53.69
410.379	34.69
410.507	38.69
410.634	-3.31
410.762	-0.31
410.889	20.69
411.017	15.69
411.144	10.69
411.271	-10.31
411.399	5.69
411.526	9.69
411.653	3.69
411.781	21.69
411.908	21.69
412.036	4.69
412.163	12.69
412.29	2.69
412.418	4.69
412.545	23.69
412.672	2.69
412.8	32.69
412.927	22.69
413.054	23.69
413.182	7.69
413.309	3.69
413.436	-11.31
413.564	4.69
413.691	21.69
413.818	15.69
413.945	-15.31
414.073	19.69
414.2	8.69
414.327	1.69
414.454	13.69
414.582	3.69
414.709	-19.31
414.836	-7.31
414.963	0.69
415.091	5.69
415.218	-1.31
415.345	-7.31
415.472	10.69
415.6	22.69
415.727	14.69
415.854	-7.31
415.981	-9.31
416.108	-17.31
416.236	-5.31
416.363	14.69
416.49	3.69
416.617	8.69
416.744	-2.31
416.871	26.69
416.998	21.69
417.126	13.69
417.253	-4.31
417.38	8.69
417.507	-0.31
417.634	6.69
417.761	20.69
417.888	17.69
418.015	2.69
418.143	1.69
418.27	24.69
418.397	2.69
418.524	10.69
418.651	-5.31
418.778	0.69
418.905	29.69
419.032	30.69
419.159	0.69
419.286	20.69
419.413	10.69
419.54	20.69
419.667	-9.31
419.794	-17.31
419.921	20.69
420.048	-2.31
420.175	7.69
420.302	-12.31
420.429	13.69
420.556	-5.31
420.683	-13.31
420.81	-6.31
420.937	9.69
421.064	5.69
421.191	1.69
421.318	9.69
421.445	28.69
421.572	-7.31
421.699	7.69
421.826	11.69
421.953	17.69
422.08	21.69
422.207	-16.31
422.334	-5.31
422.461	7.69
422.588	-10.31
422.714	7.69
422.841	29.69
422.968	13.69
423.095	-6.31
423.222	-12.31
423.349	-5.31
423.476	9.69
423.603	-3.31
423.729	-15.31
423.856	10.69
423.983	18.69
424.11	-0.31
424.237	7.69
424.364	2.69
424.491	6.69
424.617	5.69
424.744	-0.31
424.871	2.69
424.998	-2.31
425.125	1.69
425.251	0.69
425.378	-10.31
425.505	9.69
425.632	17.69
425.758	-5.31
425.885	7.69
426.012	11.69
426.139	13.69
426.266	0.69
426.392	1.69
426.519	-3.31
426.646	-2.31
426.772	7.69
426.899	-20.31
427.026	3.69
427.153	-5.31
427.279	19.69
427.406	12.69
427.533	4.69
427.659	-4.31
427.786	7.69
427.913	26.69
428.039	20.69
428.166	0.69
428.293	-10.31
428.419	10.69
428.546	-5.31
428.673	-10.31
428.799	-4.31
428.926	0.69
429.053	32.69
429.179	10.69
429.306	0.69
429.433	11.69
429.559	25.69
429.686	-0.31
429.812	-4.31
429.939	0.69
430.066	-3.31
430.192	-15.31
430.319	4.69
430.445	-19.31
430.572	-9.31
430.699	-11.31
430.825	-4.31
430.952	5.69
431.078	8.69
431.205	6.69
431.331	-2.31
431.458	11.69
431.584	30.69
431.711	3.69
431.837	11.69
431.964	6.69
432.09	-2.31
432.217	-18.31
432.343	6.69
432.47	17.69
432.596	-3.31
432.723	-6.31
432.849	-4.31
432.976	16.69
433.102	10.69
433.229	7.69
433.355	30.69
433.482	56.69
433.608	146.69
433.735	158.69
433.861	114.69
433.987	140.69
434.114	224.69
434.24	185.69
434.367	55.69
434.493	0.69
434.62	30.69
434.746	13.69
434.872	8.69
434.999	25.69
435.125	3.69
435.252	2.69
435.378	7.69
435.504	10.69
435.631	9.69
435.757	-0.31
435.883	21.69
436.01	16.69
436.136	3.69
436.262	15.69
436.389	8.69
436.515	12.69
436.641	0.69
436.768	6.69
436.894	22.69
437.02	2.69
437.147	19.69
437.273	10.69
437.399	-7.31
437.526	21.69
437.652	3.69
437.778	18.69
437.904	-28.31
438.031	4.69
438.157	-8.31
438.283	14.69
438.409	-2.31
438.536	-6.31
438.662	15.69
438.788	19.69
438.914	13.69
439.041	5.69
439.167	25.69
439.293	3.69
439.419	21.69
439.546	19.69
439.672	8.69
439.798	7.69
439.924	14.69
440.05	8.69
440.177	1.69
440.303	7.69
440.429	10.69
440.555	10.69
440.681	2.69
440.807	5.69
440.934	-0.31
441.06	3.69
441.186	19.69
441.312	6.69
441.438	17.69
441.564	20.69
441.69	30.69
441.816	31.69
441.943	-2.31
442.069	28.69
442.195	17.69
442.321	-0.31
442.447	2.69
442.573	14.69
442.699	-6.31
442.825	6.69
442.951	17.69
443.077	7.69
443.203	21.69
443.33	-10.31
443.456	-19.31
443.582	4.69
443.708	-3.31
443.834	8.69
443.96	11.69
444.086	15.69
444.212	19.69
444.338	37.69
444.464	28.69
444.59	15.69
444.716	2.69
444.842	-0.31
444.968	4.69
445.094	15.69
445.22	-3.31
445.346	-2.31
445.472	1.69
445.598	2.69
445.724	-7.31
445.85	18.69
445.976	6.69
446.102	3.69
446.228	6.69
446.354	21.69
446.48	0.69
446.605	9.69
446.731	0.69
446.857	-4.31
446.983	4.69
447.109	19.69
447.235	-1.31
447.361	5.69
447.487	9.69
447.613	-2.31
447.739	-0.31
447.865	17.69
447.99	2.69
448.116	-5.31
448.242	19.69
448.368	1.69
448.494	-0.31
448.62	9.69
448.746	3.69
448.872	17.69
448.997	-14.31
449.123	-9.31
449.249	25.69
449.375	4.69
449.501	-7.31
449.627	-9.31
449.752	24.69
449.878	0.69
450.004	3.69
450.13	-2.31
450.256	-5.31
450.381	10.69
450.507	9.69
450.633	7.69
450.759	12.69
450.884	-6.31
451.01	-1.31
451.136	5.69
451.262	32.69
451.388	-0.31
451.513	-6.31
451.639	17.69
451.765	18.69
451.89	19.69
452.016	11.69
452.142	1.69
452.268	24.69
452.393	6.69
452.519	1.69
452.645	-4.31
452.771	11.69
452.896	-7.31
453.022	-6.31
453.148	5.69
453.273	-10.31
453.399	0.69
453.525	-1.31
453.65	4.69
453.776	11.69
453.902	19.69
454.027	25.69
454.153	-0.31
454.279	32.69
454.404	-4.31
454.53	8.69
454.656	28.69
454.781	4.69
454.907	-7.31
455.032	-4.31
455.158	14.69
455.284	12.69
455.409	7.69
455.535	9.69
455.66	23.69
455.786	9.69
455.912	22.69
456.037	-18.31
456.163	10.69
456.288	19.69
456.414	-4.31
456.539	-12.31
456.665	15.69
456.791	6.69
456.916	9.69
457.042	6.69
457.167	7.69
457.293	5.69
457.418	6.69
457.544	-4.31
457.669	-8.31
457.795	-2.31
457.92	-2.31
458.046	24.69
458.171	18.69
458.297	4.69
458.422	-2.31
458.548	2.69
458.673	22.69
458.799	31.69
458.924	-3.31
459.05	4.69
459.175	-3.31
459.301	22.69
459.426	19.69
459.552	20.69
459.677	3.69
459.803	16.69
459.928	-2.31
460.053	-9.31
460.179	8.69
460.304	5.69
460.43	-2.31
460.555	12.69
460.681	-5.31
460.806	3.69
460.931	12.69
461.057	7.69
461.182	-8.31
461.308	23.69
461.433	10.69
461.558	5.69
461.684	7.69
461.809	11.69
461.934	-0.31
462.06	2.69
462.185	-14.31
462.311	0.69
462.436	10.69
462.561	1.69
462.687	7.69
462.812	13.69
462.937	-9.31
463.063	5.69
463.188	-8.31
463.313	15.69
463.439	2.69
463.564	5.69
463.689	17.69
463.814	6.69
463.94	5.69
464.065	14.69
464.19	15.69
464.316	-8.31
464.441	-16.31
464.566	-14.31
464.692	-14.31
464.817	0.69
464.942	0.69
465.067	-4.31
465.193	-16.31
465.318	-1.31
465.443	-3.31
465.568	-12.31
465.694	-0.31
465.819	5.69
465.944	-3.31
466.069	0.69
466.194	6.69
466.32	0.69
466.445	6.69
466.57	-7.31
466.695	-5.31
466.82	4.69
466.946	8.69
467.071	13.69
467.196	3.69
467.321	3.69
467.446	-0.31
467.572	3.69
467.697	0.69
467.822	13.69
467.947	24.69
468.072	21.69
468.197	-8.31
468.323	-12.31
468.448	16.69
468.573	7.69
468.698	2.69
468.823	7.69
468.948	38.69
469.073	18.69
469.198	18.69
469.324	21.69
469.449	-6.31
469.574	13.69
469.699	-1.31
469.824	12.69
469.949	14.69
470.074	13.69
470.199	31.69
470.324	14.69
470.449	29.69
470.574	5.69
470.7	4.69
470.825	5.69
470.95	14.69
471.075	-14.31
471.2	4.69
471.325	12.69
471.45	21.69
471.575	-4.31
471.7	22.69
471.825	7.69
471.95	5.69
472.075	-5.31
472.2	-11.31
472.325	8.69
472.45	17.69
472.575	19.69
472.7	-3.31
472.825	37.69
472.95	24.69
473.075	9.69
473.2	-0.31
473.325	7.69
473.45	2.69
473.575	16.69
473.7	7.69
473.825	7.69
473.95	10.69
474.075	17.69
474.2	0.69
474.325	-14.31
474.45	26.69
474.574	23.69
474.699	13.69
474.824	10.69
474.949	0.69
475.074	6.69
475.199	15.69
475.324	17.69
475.449	9.69
475.574	4.69
475.699	-11.31
475.824	-0.31
475.949	4.69
476.073	10.69
476.198	-1.31
476.323	8.69
476.448	0.69
476.573	-7.31
476.698	12.69
476.823	18.69
476.947	-1.31
477.072	14.69
477.197	-16.31
477.322	4.69
477.447	-3.31
477.572	27.69
477.697	6.69
477.821	1.69
477.946	13.69
478.071	17.69
478.196	28.69
478.321	18.69
478.445	12.69
478.57	10.69
478.695	0.69
478.82	12.69
478.945	29.69
479.069	0.69
479.194	14.69
479.319	17.69
479.444	11.69
479.569	0.69
479.693	26.69
479.818	15.69
479.943	4.69
480.068	9.69
480.192	30.69
480.317	13.69
480.442	-10.31
480.567	-7.31
480.691	2.69
480.816	1.69
480.941	1.69
481.066	13.69
481.19	7.69
481.315	17.69
481.44	12.69
481.564	5.69
481.689	20.69
481.814	0.69
481.938	22.69
482.063	-0.31
482.188	-1.31
482.313	30.69
482.437	24.69
482.562	9.69
482.687	21.69
482.811	26.69
482.936	28.69
483.061	9.69
483.185	8.69
483.31	21.69
483.435	15.69
483.559	19.69
483.684	0.69
483.808	18.69
483.933	27.69
484.058	10.69
484.182	-4.31
484.307	7.69
484.432	8.69
484.556	9.69
484.681	2.69
484.805	20.69
484.93	20.69
485.055	30.69
485.179	64.69
485.304	104.69
485.428	377.69
485.553	1238.69
485.678	1773.69
485.802	1607.69
485.927	1772.69
486.051	2618.69
486.176	1613.69
486.3	435.69
486.425	140.69
486.549	69.69
486.674	45.69
486.799	46.69
486.923	29.69
487.048	15.69
487.172	6.69
487.297	10.69
487.421	34.69
487.546	16.69
487.67	14.69
487.795	6.69
487.919	13.69
488.044	22.69
488.168	22.69
488.293	20.69
488.417	-4.31
488.542	17.69
488.666	18.69
488.791	25.69
488.915	11.69
489.04	10.69
489.164	23.69
489.289	32.69
489.413	-7.31
489.538	21.69
489.662	16.69
489.786	4.69
489.911	4.69
490.035	2.69
490.16	-0.31
490.284	16.69
490.409	-10.31
490.533	12.69
490.658	24.69
490.782	13.69
490.906	10.69
491.031	25.69
491.155	16.69
491.28	18.69
491.404	3.69
491.528	47.69
491.653	-2.31
491.777	18.69
491.902	0.69
492.026	22.69
492.15	22.69
492.275	28.69
492.399	17.69
492.524	17.69
492.648	19.69
492.772	29.69
492.897	30.69
493.021	2.69
493.145	5.69
493.27	2.69
493.394	-2.31
493.518	-2.31
493.643	-13.31
493.767	9.69
493.891	-6.31
494.016	-2.31
494.14	-7.31
494.264	4.69
494.389	16.69
494.513	-0.31
494.637	10.69
494.762	2.69
494.886	12.69
495.01	8.69
495.134	3.69
495.259	25.69
495.383	-11.31
495.507	1.69
495.632	24.69
495.756	32.69
495.88	28.69
496.004	13.69
496.129	14.69
496.253	24.69
496.377	12.69
496.501	33.69
496.626	-12.31
496.75	18.69
496.874	15.69
496.998	1.69
497.123	24.69
497.247	12.69
497.371	5.69
497.495	16.69
497.62	3.69
497.744	15.69
497.868	-4.31
497.992	4.69
498.116	-15.31
498.241	16.69
498.365	-2.31
498.489	4.69
498.613	21.69
498.737	6.69
498.862	4.69
498.986	-3.31
499.11	19.69
499.234	13.69
499.358	13.69
499.482	7.69
499.607	18.69
499.731	25.69
499.855	23.69
499.979	10.69
500.103	24.69
500.227	21.69
500.351	23.69
500.476	4.69
500.6	6.69
500.724	10.69
500.848	6.69
500.972	18.69
501.096	1.69
501.22	34.69
501.344	-1.31
501.469	17.69
501.593	2.69
501.717	22.69
501.841	10.69
501.965	4.69
502.089	-5.31
502.213	28.69
502.337	-6.31
502.461	-6.31
502.585	6.69
502.709	39.69
502.834	6.69
502.958	10.69
503.082	17.69
503.206	20.69
503.33	19.69
503.454	6.69
503.578	15.69
503.702	2.69
503.826	20.69
503.95	14.69
504.074	-7.31
504.198	-0.31
504.322	3.69
504.446	5.69
504.57	26.69
504.694	15.69
504.818	4.69
504.942	20.69
505.066	6.69
505.19	-7.31
505.314	7.69
505.438	4.69
505.562	10.69
505.686	3.69
505.81	-0.31
505.934	12.69
506.058	6.69
506.182	18.69
506.306	29.69
506.43	3.69
506.554	-9.31
506.678	-0.31
506.802	5.69
506.926	16.69
507.05	10.69
507.174	18.69
507.298	20.69
507.422	5.69
507.546	11.69
507.67	13.69
507.794	0.69
507.918	1.69
508.042	-10.31
508.165	5.69
508.289	-3.31
508.413	8.69
508.537	-7.31
508.661	-8.31
508.785	-3.31
508.909	27.69
509.033	5.69
509.157	9.69
509.281	8.69
509.405	-5.31
509.528	34.69
509.652	13.69
509.776	-8.31
509.9	33.69
510.024	13.69
510.148	8.69
510.272	23.69
510.396	11.69
510.519	-2.31
510.643	7.69
510.767	10.69
510.891	22.69
511.015	3.69
511.139	-8.31
511.263	10.69
511.386	13.69
511.51	-21.31
511.634	4.69
511.758	1.69
511.882	0.69
512.006	13.69
512.129	10.69
512.253	38.69
512.377	4.69
512.501	1.69
512.625	17.69
512.748	1.69
512.872	-8.31
512.996	-9.31
513.12	19.69
513.244	8.69
513.367	17.69
513.491	8.69
513.615	15.69
513.739	8.69
513.862	8.69
513.986	-5.31
514.11	19.69
514.234	4.69
514.358	11.69
514.481	18.69
514.605	-4.31
514.729	3.69
514.853	6.69
514.976	-6.31
515.1	11.69
515.224	38.69
515.348	7.69
515.471	13.69
515.595	27.69
515.719	3.69
515.842	20.69
515.966	12.69
516.09	8.69
516.214	20.69
516.337	30.69
516.461	17.69
516.585	21.69
516.708	27.69
516.832	10.69
516.956	18.69
517.08	3.69
517.203	-7.31
517.327	10.69
517.451	35.69
517.574	21.69
517.698	2.69
517.822	14.69
517.945	22.69
518.069	28.69
518.193	41.69
518.316	30.69
518.44	32.69
518.564	1.69
518.687	34.69
518.811	31.69
518.935	44.69
519.058	15.69
519.182	13.69
519.306	29.69
519.429	5.69
519.553	61.69
519.676	14.69
519.8	13.69
519.924	-15.31
520.047	23.69
520.171	6.69
520.294	14.69
520.418	6.69
520.542	-4.31
520.665	21.69
520.789	7.69
520.913	-3.31
521.036	-11.31
521.16	-7.31
521.283	-0.31
521.407	4.69
521.53	-10.31
521.654	-18.31
521.778	17.69
521.901	9.69
522.025	8.69
522.148	2.69
522.272	-3.31
522.395	-18.31
522.519	14.69
522.643	5.69
522.766	-4.31
522.89	-8.31
523.013	18.69
523.137	-15.31
523.26	11.69
523.384	16.69
523.507	15.69
523.631	1.69
523.754	13.69
523.878	9.69
524.002	5.69
524.125	-3.31
524.249	-29.31
524.372	9.69
524.496	8.69
524.619	10.69
524.743	4.69
524.866	8.69
524.99	10.69
525.113	-10.31
525.237	12.69
525.36	15.69
525.484	10.69
525.607	-7.31
525.731	-7.31
525.854	16.69
525.978	22.69
526.101	10.69
526.224	-5.31
526.348	8.69
526.471	1.69
526.595	28.69
526.718	7.69
526.842	-10.31
526.965	6.69
527.089	-0.31
527.212	0.69
527.336	-6.31
527.459	3.69
527.582	3.69
527.706	10.69
527.829	13.69
527.953	25.69
528.076	12.69
528.2	-4.31
528.323	20.69
528.446	29.69
528.57	10.69
528.693	19.69
528.817	8.69
528.94	17.69
529.064	27.69
529.187	10.69
529.31	4.69
529.434	14.69
529.557	7.69
529.68	-5.31
529.804	-12.31
529.927	2.69
530.051	-2.31
530.174	3.69
530.297	9.69
530.421	19.69
530.544	7.69
530.668	-0.31
530.791	5.69
530.914	31.69
531.038	-0.31
531.161	-3.31
531.284	6.69
531.408	11.69
531.531	-9.31
531.654	3.69
531.778	2.69
531.901	-17.31
532.024	4.69
532.148	11.69
532.271	15.69
532.394	15.69
532.518	17.69
532.641	11.69
532.764	20.69
532.888	25.69
533.011	-6.31
533.134	-16.31
533.258	17.69
533.381	-1.31
533.504	2.69
533.628	1.69
533.751	15.69
533.874	5.69
533.997	3.69
534.121	0.69
534.244	-1.31
534.367	-7.31
534.491	4.69
534.614	17.69
534.737	14.69
534.86	11.69
534.984	-15.31
535.107	-3.31
535.23	17.69
535.354	7.69
535.477	-16.31
535.6	6.69
535.723	8.69
535.847	29.69
535.97	-6.31
536.093	15.69
536.216	0.69
536.34	6.69
536.463	15.69
536.586	23.69
536.709	-3.31
536.833	13.69
536.956	8.69
537.079	-8.31
537.202	7.69
537.325	5.69
537.449	-10.31
537.572	20.69
537.695	-14.31
537.818	-4.31
537.941	10.69
538.065	9.69
538.188	-1.31
538.311	22.69
538.434	12.69
538.558	6.69
538.681	19.69
538.804	14.69
538.927	11.69
539.05	3.69
539.173	-15.31
539.297	-1.31
539.42	-3.31
539.543	6.69
539.666	33.69
539.789	25.69
539.913	6.69
540.036	12.69
540.159	12.69
540.282	-4.31
540.405	-8.31
540.528	-4.31
540.651	18.69
540.775	-2.31
540.898	-12.31
541.021	-8.31
541.144	10.69
541.267	12.69
541.39	-7.31
541.513	12.69
541.637	-1.31
541.76	-6.31
541.883	1.69
542.006	15.69
542.129	19.69
542.252	-3.31
542.375	0.69
542.498	3.69
542.622	13.69
542.745	-3.31
542.868	7.69
542.991	22.69
543.114	23.69
543.237	32.69
543.36	19.69
543.483	18.69
543.606	-1.31
543.73	11.69
543.853	12.69
543.976	-1.31
544.099	12.69
544.222	15.69
544.345	15.69
544.468	1.69
544.591	0.69
544.714	18.69
544.837	12.69
544.96	0.69
545.083	32.69
545.206	0.69
545.329	22.69
545.453	-0.31
545.576	15.69
545.699	-10.31
545.822	1.69
545.945	11.69
546.068	2.69
546.191	5.69
546.314	-13.31
546.437	13.69
546.56	17.69
546.683	21.69
546.806	25.69
546.929	12.69
547.052	-6.31
547.175	4.69
547.298	8.69
547.421	-11.31
547.544	-9.31
547.667	0.69
547.79	-2.31
547.913	-6.31
548.036	0.69
548.159	-2.31
548.282	-1.31
548.405	3.69
548.528	16.69
548.651	7.69
548.774	3.69
548.897	17.69
549.02	27.69
549.143	44.69
549.266	5.69
549.389	26.69
549.512	11.69
549.635	31.69
549.758	31.69
549.881	-1.31
550.004	-4.31
550.127	5.69
550.25	-4.31
550.373	-2.31
550.496	0.69
550.619	-6.31
550.742	-8.31
550.865	-12.31
550.988	15.69
551.111	27.69
551.234	22.69
551.356	4.69
551.479	-7.31
551.602	15.69
551.725	26.69
551.848	31.69
551.971	24.69
552.094	9.69
552.217	4.69
552.34	9.69
552.463	-15.31
552.586	4.69
552.709	3.69
552.832	14.69
552.955	11.69
553.077	22.69
553.2	11.69
553.323	-2.31
553.446	8.69
553.569	0.69
553.692	9.69
553.815	11.69
553.938	22.69
554.061	27.69
554.184	7.69
554.306	19.69
554.429	16.69
554.552	12.69
554.675	-17.31
554.798	-4.31
554.921	7.69
555.044	-10.31
555.167	-5.31
555.29	-8.31
555.412	-3.31
555.535	21.69
555.658	-4.31
555.781	-2.31
555.904	9.69
556.027	12.69
556.15	14.69
556.272	-0.31
556.395	16.69
556.518	-4.31
556.641	9.69
556.764	12.69
556.887	12.69
557.01	1.69
557.132	-2.31
557.255	4.69
557.378	12.69
557.501	24.69
557.624	-10.31
557.747	-0.31
557.869	16.69
557.992	29.69
558.115	17.69
558.238	6.69
558.361	22.69
558.483	23.69
558.606	4.69
558.729	10.69
558.852	42.69
558.975	20.69
559.098	6.69
559.22	5.69
559.343	-1.31
559.466	3.69
559.589	3.69
559.712	14.69
559.834	10.69
559.957	20.69
560.08	4.69
560.203	2.69
560.325	19.69
560.448	22.69
560.571	7.69
560.694	8.69
560.817	24.69
560.939	0.69
561.062	2.69
561.185	-0.31
561.308	21.69
561.43	-8.31
561.553	-6.31
561.676	4.69
561.799	2.69
561.921	6.69
562.044	1.69
562.167	0.69
562.29	38.69
562.413	21.69
562.535	4.69
562.658	-8.31
562.781	9.69
562.903	21.69
563.026	22.69
563.149	29.69
563.272	13.69
563.394	23.69
563.517	-2.31
563.64	-8.31
563.763	-17.31
563.885	20.69
564.008	19.69
564.131	17.69
564.254	-0.31
564.376	-8.31
564.499	-8.31
564.622	19.69
564.744	9.69
564.867	2.69
564.99	17.69
565.113	5.69
565.235	11.69
565.358	9.69
565.481	-8.31
565.603	5.69
565.726	7.69
565.849	17.69
565.971	18.69
566.094	-5.31
566.217	7.69
566.34	-10.31
566.462	17.69
566.585	8.69
566.708	40.69
566.83	8.69
566.953	6.69
567.076	-8.31
567.198	12.69
567.321	8.69
567.444	0.69
567.566	-3.31
567.689	-18.31
567.812	-12.31
567.934	23.69
568.057	12.69
568.18	24.69
568.302	8.69
568.425	5.69
568.548	4.69
568.67	12.69
568.793	1.69
568.916	23.69
569.038	17.69
569.161	-1.31
569.283	4.69
569.406	-6.31
569.529	-20.31
569.651	-14.31
569.774	-11.31
569.897	-4.31
570.019	24.69
570.142	17.69
570.265	30.69
570.387	3.69
570.51	13.69
570.632	11.69
570.755	9.69
570.878	3.69
571	21.69
571.123	-0.31
571.246	15.69
571.368	-8.31
571.491	8.69
571.613	-0.31
571.736	-15.31
571.859	-4.31
571.981	-0.31
572.104	-7.31
572.226	9.69
572.349	-6.31
572.472	-1.31
572.594	0.69
572.717	19.69
572.839	-4.31
572.962	14.69
573.085	14.69
573.207	3.69
573.33	-3.31
573.452	12.69
573.575	27.69
573.697	23.69
573.82	16.69
573.943	-1.31
574.065	3.69
574.188	9.69
574.31	12.69
574.433	19.69
574.555	25.69
574.678	5.69
574.801	3.69
574.923	9.69
575.046	8.69
575.168	1.69
575.291	2.69
575.413	10.69
575.536	1.69
575.659	14.69
575.781	-4.31
575.904	10.69
576.026	19.69
576.149	5.69
576.271	19.69
576.394	10.69
576.516	-8.31
576.639	12.69
576.761	-6.31
576.884	3.69
577.007	-1.31
577.129	25.69
577.252	12.69
577.374	29.69
577.497	4.69
577.619	10.69
577.742	-14.31
577.864	8.69
577.987	12.69
578.109	17.69
578.232	23.69
578.354	29.69
578.477	-1.31
578.599	-2.31
578.722	16.69
578.844	6.69
578.967	12.69
579.089	7.69
579.212	-6.31
579.334	8.69
579.457	-0.31
579.579	15.69
579.702	14.69
579.824	26.69
579.947	-2.31
580.069	-3.31
580.192	1.69
580.314	12.69
580.437	0.69
580.559	25.69
580.682	7.69
580.804	12.69
580.927	21.69
581.049	24.69
581.172	10.69
581.294	0.69
581.417	2.69
581.539	9.69
581.662	5.69
581.784	20.69
581.907	11.69
582.029	11.69
582.152	-21.31
582.274	28.69
582.396	9.69
582.519	12.69
582.641	-10.31
582.764	-4.31
582.886	8.69
583.009	-3.31
583.131	-10.31
583.254	-13.31
583.376	14.69
583.499	20.69
583.621	3.69
583.743	25.69
583.866	5.69
583.988	14.69
584.111	-2.31
584.233	10.69
584.356	19.69
584.478	19.69
584.601	-20.31
584.723	-15.31
584.845	24.69
584.968	4.69
585.09	-17.31
585.213	14.69
585.335	-12.31
585.458	5.69
585.58	2.69
585.702	22.69
585.825	7.69
585.947	12.69
586.07	-6.31
586.192	10.69
586.315	0.69
586.437	-1.31
586.559	16.69
586.682	1.69
586.804	13.69
586.927	-15.31
587.049	-4.31
587.171	8.69
587.294	5.69
587.416	24.69
587.539	12.69
587.661	-3.31
587.783	-2.31
587.906	12.69
588.028	13.69
588.151	13.69
588.273	12.69
588.395	8.69
588.518	9.69
588.64	5.69
588.763	25.69
588.885	18.69
589.007	14.69
589.13	-11.31
589.252	-16.31
589.375	-7.31
589.497	3.69
589.619	26.69
589.742	-3.31
589.864	23.69
589.986	19.69
590.109	3.69
590.231	-1.31
590.354	6.69
590.476	-28.31
590.598	-7.31
590.721	-31.31
590.843	11.69
590.965	2.69
591.088	22.69
591.21	-20.31
591.332	0.69
591.455	-11.31
591.577	-5.31
591.7	11.69
591.822	17.69
591.944	14.69
592.067	-0.31
592.189	7.69
592.311	22.69
592.434	11.69
592.556	19.69
592.678	1.69
592.801	19.69
592.923	1.69
593.045	3.69
593.168	9.69
593.29	15.69
593.412	13.69
593.535	-6.31
593.657	3.69
593.779	11.69
593.902	12.69
594.024	11.69
594.146	-0.31
594.269	7.69
594.391	-15.31
594.513	3.69
594.636	12.69
594.758	-7.31
594.88	7.69
595.003	33.69
595.125	9.69
595.247	18.69
595.37	7.69
595.492	7.69
595.614	23.69
595.737	3.69
595.859	5.69
595.981	11.69
596.104	16.69
596.226	8.69
596.348	-0.31
596.471	-4.31
596.593	-0.31
596.715	-6.31
596.838	-15.31
596.96	1.69
597.082	22.69
597.204	12.69
597.327	18.69
597.449	8.69
597.571	7.69
597.694	7.69
597.816	2.69
597.938	9.69
598.061	1.69
598.183	6.69
598.305	19.69
598.427	10.69
598.55	-7.31
598.672	22.69
598.794	15.69
598.917	13.69
599.039	16.69
599.161	11.69
599.283	13.69
599.406	9.69
599.528	5.69
599.65	34.69
599.773	-8.31
599.895	36.69
600.017	15.69
600.139	4.69
600.262	4.69
600.384	11.69
600.506	14.69
600.628	21.69
600.751	18.69
600.873	5.69
600.995	3.69
601.118	1.69
601.24	5.69
601.362	16.69
601.484	-1.31
601.607	-0.31
601.729	12.69
601.851	8.69
601.973	4.69
602.096	22.69
602.218	14.69
602.34	33.69
602.462	16.69
602.585	10.69
602.707	-9.31
602.829	9.69
602.951	7.69
603.074	-11.31
603.196	1.69
603.318	7.69
603.44	8.69
603.563	15.69
603.685	6.69
603.807	19.69
603.929	15.69
604.052	5.69
604.174	17.69
604.296	15.69
604.418	7.69
604.541	11.69
604.663	0.69
604.785	-2.31
604.907	7.69
605.03	-4.31
605.152	35.69
605.274	5.69
605.396	5.69
605.519	3.69
605.641	-11.31
605.763	7.69
605.885	-4.31
606.008	-0.31
606.13	5.69
606.252	21.69
606.374	-20.31
606.496	2.69
606.619	-12.31
606.741	-3.31
606.863	22.69
606.985	34.69
607.108	15.69
607.23	-3.31
607.352	-0.31
607.474	-2.31
607.596	4.69
607.719	-8.31
607.841	6.69
607.963	13.69
608.085	5.69
608.207	25.69
608.33	9.69
608.452	-9.31
608.574	0.69
608.696	-3.31
608.819	12.69
608.941	9.69
609.063	-4.31
609.185	5.69
609.307	2.69
609.43	15.69
609.552	3.69
609.674	-12.31
609.796	5.69
609.918	4.69
610.041	-5.31
610.163	16.69
610.285	3.69
610.407	16.69
610.529	-5.31
610.652	13.69
610.774	8.69
610.896	8.69
611.018	19.69
611.14	4.69
611.263	-10.31
611.385	-5.31
611.507	6.69
611.629	-1.31
611.751	4.69
611.873	27.69
611.996	17.69
612.118	14.69
612.24	16.69
612.362	19.69
612.484	12.69
612.607	7.69
612.729	25.69
612.851	1.69
612.973	2.69
613.095	-7.31
613.218	15.69
613.34	15.69
613.462	-8.31
613.584	8.69
613.706	13.69
613.828	35.69
613.951	24.69
614.073	-1.31
614.195	-10.31
614.317	14.69
614.439	4.69
614.561	7.69
614.684	12.69
614.806	12.69
614.928	4.69
615.05	14.69
615.172	18.69
615.294	17.69
615.417	-14.31
615.539	13.69
615.661	9.69
615.783	35.69
615.905	25.69
616.027	58.69
616.15	93.69
616.272	88.69
616.394	47.69
616.516	30.69
616.638	27.69
616.76	9.69
616.883	4.69
617.005	3.69
617.127	13.69
617.249	10.69
617.371	7.69
617.493	-9.31
617.615	4.69
617.738	-2.31
617.86	6.69
617.982	2.69
618.104	19.69
618.226	2.69
618.348	-2.31
618.471	19.69
618.593	17.69
618.715	1.69
618.837	14.69
618.959	13.69
619.081	11.69
619.203	0.69
619.326	-7.31
619.448	-2.31
619.57	-4.31
619.692	8.69
619.814	10.69
619.936	3.69
620.058	15.69
620.181	11.69
620.303	9.69
620.425	12.69
620.547	-4.31
620.669	-0.31
620.791	-5.31
620.913	8.69
621.036	-5.31
621.158	-3.31
621.28	11.69
621.402	-10.31
621.524	-17.31
621.646	1.69
621.768	-16.31
621.891	-20.31
622.013	22.69
622.135	-8.31
622.257	-19.31
622.379	-11.31
622.501	3.69
622.623	1.69
622.745	2.69
622.868	8.69
622.99	-7.31
623.112	8.69
623.234	9.69
623.356	14.69
623.478	5.69
623.6	-0.31
623.722	-16.31
623.845	7.69
623.967	-5.31
624.089	11.69
624.211	-6.31
624.333	13.69
624.455	4.69
624.577	9.69
624.699	12.69
624.822	9.69
624.944	-0.31
625.066	-2.31
625.188	-4.31
625.31	16.69
625.432	16.69
625.554	-5.31
625.676	8.69
625.799	-7.31
625.921	10.69
626.043	-2.31
626.165	-4.31
626.287	-21.31
626.409	-5.31
626.531	-2.31
626.653	-7.31
626.775	13.69
626.898	13.69
627.02	14.69
627.142	28.69
627.264	-4.31
627.386	-19.31
627.508	28.69
627.63	-20.31
627.752	4.69
627.874	-4.31
627.997	6.69
628.119	10.69
628.241	30.69
628.363	11.69
628.485	14.69
628.607	-3.31
628.729	-0.31
628.851	-0.31
628.973	-3.31
629.096	-11.31
629.218	-2.31
629.34	4.69
629.462	-0.31
629.584	-2.31
629.706	9.69
629.828	35.69
629.95	19.69
630.072	7.69
630.195	4.69
630.317	10.69
630.439	14.69
630.561	4.69
630.683	-8.31
630.805	1.69
630.927	14.69
631.049	14.69
631.171	5.69
631.293	17.69
631.416	5.69
631.538	-14.31
631.66	-3.31
631.782	15.69
631.904	33.69
632.026	-1.31
632.148	-2.31
632.27	-8.31
632.392	8.69
632.514	14.69
632.637	8.69
632.759	4.69
632.881	-20.31
633.003	-6.31
633.125	2.69
633.247	2.69
633.369	1.69
633.491	2.69
633.613	24.69
633.735	-10.31
633.858	14.69
633.98	-4.31
634.102	-10.31
634.224	-12.31
634.346	-0.31
634.468	2.69
634.59	-4.31
634.712	7.69
634.834	20.69
634.956	-4.31
635.078	-9.31
635.201	-4.31
635.323	4.69
635.445	-16.31
635.567	-19.31
635.689	-3.31
635.811	15.69
635.933	0.69
636.055	-3.31
636.177	4.69
636.299	12.69
636.421	-2.31
636.544	-7.31
636.666	9.69
636.788	22.69
636.91	7.69
637.032	-11.31
637.154	7.69
637.276	27.69
637.398	16.69
637.52	21.69
637.642	-11.31
637.764	-2.31
637.887	4.69
638.009	9.69
638.131	5.69
638.253	2.69
638.375	15.69
638.497	14.69
638.619	-2.31
638.741	1.69
638.863	-10.31
638.985	-2.31
639.107	-4.31
639.23	5.69
639.352	-4.31
639.474	-3.31
639.596	-12.31
639.718	-12.31
639.84	3.69
639.962	6.69
640.084	11.69
640.206	16.69
640.328	0.69
640.45	8.69
640.573	11.69
640.695	2.69
640.817	-7.31
640.939	3.69
641.061	-6.31
641.183	-0.31
641.305	-6.31
641.427	-4.31
641.549	-0.31
641.671	4.69
641.793	-9.31
641.915	19.69
642.038	6.69
642.16	12.69
642.282	0.69
642.404	-0.31
642.526	5.69
642.648	-9.31
642.77	13.69
642.892	4.69
643.014	0.69
643.136	27.69
643.258	-0.31
643.381	21.69
643.503	18.69
643.625	7.69
643.747	-9.31
643.869	-14.31
643.991	17.69
644.113	11.69
644.235	0.69
644.357	7.69
644.479	7.69
644.601	6.69
644.723	11.69
644.846	1.69
644.968	2.69
645.09	13.69
645.212	7.69
645.334	8.69
645.456	10.69
645.578	20.69
645.7	16.69
645.822	8.69
645.944	16.69
646.066	-4.31
646.188	-10.31
646.311	24.69
646.433	14.69
646.555	39.69
646.677	36.69
646.799	43.69
646.921	29.69
647.043	27.69
647.165	-4.31
647.287	-7.31
647.409	15.69
647.531	10.69
647.654	-7.31
647.776	15.69
647.898	17.69
648.02	-3.31
648.142	-8.31
648.264	-8.31
648.386	2.69
648.508	-7.31
648.63	3.69
648.752	7.69
648.874	3.69
648.997	12.69
649.119	19.69
649.241	-4.31
649.363	17.69
649.485	17.69
649.607	-2.31
649.729	-17.31
649.851	15.69
649.973	-8.31
650.095	11.69
650.217	-3.31
650.34	4.69
650.462	18.69
650.584	7.69
650.706	15.69
650.828	-0.31
650.95	-10.31
651.072	1.69
651.194	-7.31
651.316	-5.31
651.438	-7.31
651.56	-6.31
651.683	2.69
651.805	5.69
651.927	4.69
652.049	13.69
652.171	4.69
652.293	-1.31
652.415	-7.31
652.537	-17.31
652.659	-4.31
652.781	21.69
652.903	23.69
653.026	24.69
653.148	15.69
653.27	18.69
653.392	17.69
653.514	-9.31
653.636	2.69
653.758	8.69
653.88	11.69
654.002	-7.31
654.124	7.69
654.247	3.69
654.369	23.69
654.491	-0.31
654.613	9.69
654.735	16.69
654.857	18.69
654.979	20.69
655.101	27.69
655.223	42.69
655.345	16.69
655.468	28.69
655.59	13.69
655.712	11.69
655.834	12.69
655.956	27.69
656.078	25.69
656.2	38.69
656.322	35.69
656.444	17.69
656.566	43.69
656.689	53.69
656.811	70.69
656.933	98.69
657.055	94.69
657.177	148.69
657.299	240.69
657.421	506.69
657.543	1873.69
657.665	12520.69
657.787	15162.69
657.91	15241.69
658.032	15658.69
658.154	4646.69
658.276	3518.69
658.398	1160.69
658.52	1027.69
658.642	480.69
658.764	601.69
658.886	273.69
659.009	388.69
659.131	223.69
659.253	316.69
659.375	153.69
659.497	232.69
659.619	113.69
659.741	191.69
659.863	83.69
659.985	153.69
660.108	107.69
660.23	153.69
660.352	76.69
660.474	143.69
660.596	61.69
660.718	140.69
660.84	67.69
660.962	114.69
661.084	64.69
661.207	97.69
661.329	45.69
661.451	88.69
661.573	38.69
661.695	88.69
661.817	45.69
661.939	107.69
662.061	56.69
662.184	66.69
662.306	26.69
662.428	68.69
662.55	53.69
662.672	60.69
662.794	35.69
662.916	48.69
663.038	27.69
663.161	68.69
663.283	36.69
663.405	71.69
663.527	23.69
663.649	67.69
663.771	29.69
663.893	60.69
664.015	21.69
664.138	27.69
664.26	16.69
664.382	35.69
664.504	12.69
664.626	19.69
664.748	4.69
664.87	19.69
664.992	29.69
665.115	56.69
665.237	34.69
665.359	33.69
665.481	9.69
665.603	35.69
665.725	13.69
665.847	27.69
665.97	-0.31
666.092	46.69
666.214	9.69
666.336	23.69
666.458	16.69
666.58	37.69
666.702	-2.31
666.825	32.69
666.947	17.69
667.069	36.69
667.191	12.69
667.313	37.69
667.435	11.69
667.557	29.69
667.68	9.69
667.802	30.69
667.924	18.69
668.046	22.69
668.168	14.69
668.29	47.69
668.412	31.69
668.535	35.69
668.657	-3.31
668.779	33.69
668.901	25.69
669.023	25.69
669.145	18.69
669.267	29.69
669.39	11.69
669.512	29.69
669.634	6.69
669.756	31.69
669.878	24.69
670	25.69
670.123	3.69
670.245	24.69
670.367	20.69
670.489	7.69
670.611	-8.31
670.733	14.69
670.856	5.69
670.978	13.69
671.1	10.69
671.222	27.69
671.344	2.69
671.466	-0.31
671.589	-3.31
671.711	26.69
671.833	-4.31
671.955	9.69
672.077	-0.31
672.199	26.69
672.322	24.69
672.444	19.69
672.566	14.69
672.688	20.69
672.81	11.69
672.932	29.69
673.055	-0.31
673.177	-3.31
673.299	6.69
673.421	7.69
673.543	8.69
673.665	22.69
673.788	20.69
673.91	14.69
674.032	-7.31
674.154	-2.31
674.276	5.69
674.399	7.69
674.521	-1.31
674.643	17.69
674.765	4.69
674.887	4.69
675.009	-11.31
675.132	4.69
675.254	-4.31
675.376	4.69
675.498	4.69
675.62	36.69
675.743	2.69
675.865	19.69
675.987	-1.31
676.109	29.69
676.231	4.69
676.354	28.69
676.476	0.69
676.598	23.69
676.72	2.69
676.842	6.69
676.965	2.69
677.087	9.69
677.209	-0.31
677.331	11.69
677.453	12.69
677.576	16.69
677.698	19.69
677.82	5.69
677.942	1.69
678.064	-9.31
678.187	10.69
678.309	14.69
678.431	5.69
678.553	17.69
678.675	21.69
678.798	29.69
678.92	-6.31
679.042	14.69
679.164	4.69
679.286	13.69
679.409	4.69
679.531	-20.31
679.653	-9.31
679.775	-4.31
679.898	-3.31
680.02	-2.31
680.142	5.69
680.264	12.69
680.386	-18.31
680.509	0.69
680.631	4.69
680.753	12.69
680.875	-13.31
680.998	13.69
681.12	6.69
681.242	21.69
681.364	-4.31
681.486	-2.31
681.609	-0.31
681.731	11.69
681.853	6.69
681.975	9.69
682.098	17.69
682.22	32.69
682.342	9.69
682.464	25.69
682.587	10.69
682.709	-2.31
682.831	0.69
682.953	2.69
683.076	5.69
683.198	21.69
683.32	10.69
683.442	5.69
683.565	11.69
683.687	12.69
683.809	-4.31
683.931	12.69
684.054	3.69
684.176	11.69
684.298	-6.31
684.42	-3.31
684.543	-1.31
684.665	17.69
684.787	-3.31
684.909	-4.31
685.032	8.69
685.154	-7.31
685.276	2.69
685.398	5.69
685.521	-16.31
685.643	3.69
685.765	19.69
685.887	13.69
686.01	8.69
686.132	10.69
686.254	15.69
686.377	19.69
686.499	6.69
686.621	31.69
686.743	-0.31
686.866	15.69
686.988	21.69
687.11	25.69
687.232	-10.31
687.355	-10.31
687.477	7.69
687.599	12.69
687.722	0.69
687.844	4.69
687.966	3.69
688.088	8.69
688.211	37.69
688.333	23.69
688.455	5.69
688.578	11.69
688.7	-0.31
688.822	11.69
688.944	-10.31
689.067	45.69
689.189	-4.31
689.311	-12.31
689.434	-17.31
689.556	5.69
689.678	23.69
689.801	1.69
689.923	-0.31
690.045	14.69
690.167	13.69
690.29	28.69
690.412	-0.31
690.534	7.69
690.657	9.69
690.779	19.69
690.901	9.69
691.024	13.69
691.146	3.69
691.268	6.69
691.391	11.69
691.513	6.69
691.635	5.69
691.758	16.69
691.88	23.69
692.002	18.69
692.125	-2.31
692.247	13.69
692.369	-4.31
692.492	-1.31
692.614	9.69
692.736	13.69
692.859	0.69
692.981	-17.31
693.103	2.69
693.226	3.69
693.348	23.69
693.47	11.69
693.593	-11.31
693.715	-18.31
693.837	-3.31
693.96	-12.31
694.082	-12.31
694.204	10.69
694.327	0.69
694.449	-12.31
694.571	20.69
694.694	14.69
694.816	16.69
694.938	2.69
695.061	0.69
695.183	0.69
695.305	7.69
695.428	20.69
695.55	-2.31
695.672	-13.31
695.795	15.69
695.917	10.69
696.04	-6.31
696.162	9.69
696.284	-0.31
696.407	-0.31
696.529	-10.31
696.651	7.69
696.774	8.69
696.896	30.69
697.019	6.69
697.141	16.69
697.263	7.69
697.386	-0.31
697.508	-4.31
697.63	18.69
697.753	7.69
697.875	20.69
697.998	3.69
698.12	13.69
698.242	-15.31
698.365	5.69
698.487	6.69
698.61	29.69
698.732	16.69
698.854	31.69
698.977	-16.31
699.099	7.69
699.221	1.69
699.344	4.69
699.466	17.69
699.589	5.69
699.711	-3.31
699.834	13.69
699.956	8.69
700.078	3.69
700.201	10.69
700.323	14.69
700.446	8.69
700.568	10.69
700.69	-1.31
700.813	5.69
700.935	-4.31
701.058	-5.31
701.18	5.69
701.302	13.69
701.425	-4.31
701.547	20.69
701.67	2.69
701.792	9.69
701.915	-16.31
702.037	18.69
702.159	15.69
702.282	1.69
702.404	-6.31
702.527	26.69
702.649	17.69
702.772	11.69
702.894	15.69
703.017	22.69
703.139	1.69
703.261	20.69
703.384	23.69
703.506	0.69
703.629	-11.31
703.751	-0.31
703.874	2.69
703.996	-6.31
704.119	-14.31
704.241	12.69
704.364	-13.31
704.486	12.69
704.608	-1.31
704.731	2.69
704.853	8.69
704.976	5.69
705.098	17.69
705.221	3.69
705.343	7.69
705.466	-3.31
705.588	3.69
705.711	5.69
705.833	10.69
705.956	12.69
706.078	-12.31
706.201	4.69
706.323	8.69
706.446	-4.31
