Data from LowRes_H2_15_26_11_07_2024_HR4C61881__12__15-28-14-837.txt Node

Date: Thu Nov 07 15:28:14 EST 2024
User: crc00042
Spectrometer: HR4C6188
Trigger mode: 4
Integration Time (sec): 1.000000E-1
Scans to average: 1
Electric dark correction enabled: true
Nonlinearity correction enabled: false
Boxcar width: 0
XAxis mode: Wavelengths
Number of Pixels in Spectrum: 3648
>>>>>Begin Spectral Data<<<<<
245.66	-114.92
245.797	-114.92
245.934	-114.92
246.071	-78.92
246.208	14.08
246.344	-2.92
246.481	-6.92
246.618	-1.92
246.755	8.08
246.892	-15.92
247.029	-1.92
247.165	-22.92
247.302	33.08
247.439	4.08
247.576	6.08
247.713	-6.92
247.849	18.08
247.986	-9.92
248.123	19.08
248.26	3.08
248.396	24.08
248.533	2.08
248.67	1.08
248.806	18.08
248.943	1.08
249.08	-1.92
249.216	16.08
249.353	-5.92
249.49	8.08
249.626	11.08
249.763	-0.92
249.9	12.08
250.036	19.08
250.173	-2.92
250.309	4.08
250.446	1.08
250.582	1.08
250.719	-5.92
250.856	15.08
250.992	-0.92
251.129	10.08
251.265	-7.92
251.402	15.08
251.538	3.08
251.675	-6.92
251.811	20.08
251.948	19.08
252.084	2.08
252.221	20.08
252.357	7.08
252.493	33.08
252.63	-3.92
252.766	31.08
252.903	3.08
253.039	7.08
253.175	-1.92
253.312	-4.92
253.448	5.08
253.585	-15.92
253.721	-4.92
253.857	5.08
253.994	33.08
254.13	10.08
254.266	15.08
254.403	-0.92
254.539	-7.92
254.675	26.08
254.811	13.08
254.948	15.08
255.084	1.08
255.22	-4.92
255.356	4.08
255.493	18.08
255.629	14.08
255.765	6.08
255.901	5.08
256.037	17.08
256.174	22.08
256.31	1.08
256.446	7.08
256.582	0.08
256.718	-7.92
256.854	15.08
256.991	17.08
257.127	24.08
257.263	-2.92
257.399	23.08
257.535	-8.92
257.671	-1.92
257.807	-3.92
257.943	-23.92
258.079	-7.92
258.215	-0.92
258.351	15.08
258.487	3.08
258.623	27.08
258.759	13.08
258.895	5.08
259.031	-7.92
259.167	-7.92
259.303	6.08
259.439	1.08
259.575	-6.92
259.711	-11.92
259.847	-20.92
259.983	-2.92
260.119	2.08
260.255	-3.92
260.391	15.08
260.527	22.08
260.663	30.08
260.799	29.08
260.934	7.08
261.07	0.08
261.206	-11.92
261.342	-3.92
261.478	30.08
261.614	25.08
261.749	2.08
261.885	-12.92
262.021	16.08
262.157	24.08
262.293	12.08
262.428	15.08
262.564	-4.92
262.7	19.08
262.836	10.08
262.971	9.08
263.107	17.08
263.243	24.08
263.378	12.08
263.514	-19.92
263.65	-4.92
263.785	-22.92
263.921	-9.92
264.057	-3.92
264.192	17.08
264.328	13.08
264.464	-7.92
264.599	12.08
264.735	4.08
264.871	-2.92
265.006	23.08
265.142	18.08
265.277	1.08
265.413	22.08
265.548	23.08
265.684	28.08
265.819	17.08
265.955	-1.92
266.091	-15.92
266.226	-17.92
266.362	-2.92
266.497	14.08
266.633	-5.92
266.768	-1.92
266.903	12.08
267.039	21.08
267.174	43.08
267.31	5.08
267.445	12.08
267.581	-10.92
267.716	22.08
267.851	1.08
267.987	20.08
268.122	34.08
268.258	-19.92
268.393	-24.92
268.528	1.08
268.664	-9.92
268.799	9.08
268.934	7.08
269.07	12.08
269.205	20.08
269.34	29.08
269.476	16.08
269.611	13.08
269.746	24.08
269.881	20.08
270.017	-2.92
270.152	-3.92
270.287	12.08
270.422	21.08
270.558	-2.92
270.693	25.08
270.828	-7.92
270.963	-17.92
271.098	-9.92
271.234	3.08
271.369	17.08
271.504	-0.92
271.639	-16.92
271.774	1.08
271.909	6.08
272.045	-20.92
272.18	2.08
272.315	2.08
272.45	20.08
272.585	-3.92
272.72	20.08
272.855	6.08
272.99	29.08
273.125	-5.92
273.26	-18.92
273.395	-11.92
273.53	2.08
273.665	25.08
273.8	9.08
273.935	11.08
274.07	8.08
274.205	14.08
274.34	12.08
274.475	2.08
274.61	12.08
274.745	10.08
274.88	28.08
275.015	3.08
275.15	5.08
275.285	4.08
275.42	23.08
275.555	28.08
275.69	0.08
275.825	1.08
275.959	7.08
276.094	-5.92
276.229	-4.92
276.364	-2.92
276.499	5.08
276.634	-4.92
276.768	5.08
276.903	4.08
277.038	24.08
277.173	10.08
277.308	-3.92
277.442	0.08
277.577	-11.92
277.712	2.08
277.847	-1.92
277.981	5.08
278.116	-19.92
278.251	7.08
278.386	16.08
278.52	12.08
278.655	-18.92
278.79	10.08
278.924	6.08
279.059	18.08
279.194	-3.92
279.328	38.08
279.463	16.08
279.598	31.08
279.732	15.08
279.867	17.08
280.001	43.08
280.136	6.08
280.271	2.08
280.405	24.08
280.54	22.08
280.674	0.08
280.809	25.08
280.943	12.08
281.078	-10.92
281.213	27.08
281.347	24.08
281.482	18.08
281.616	-1.92
281.751	8.08
281.885	-12.92
282.02	12.08
282.154	5.08
282.288	-6.92
282.423	-6.92
282.557	-8.92
282.692	-0.92
282.826	5.08
282.961	4.08
283.095	-2.92
283.229	-13.92
283.364	5.08
283.498	24.08
283.633	6.08
283.767	15.08
283.901	12.08
284.036	3.08
284.17	-8.92
284.304	-6.92
284.439	9.08
284.573	-1.92
284.707	12.08
284.842	7.08
284.976	4.08
285.11	9.08
285.244	15.08
285.379	50.08
285.513	3.08
285.647	0.08
285.781	1.08
285.916	5.08
286.05	4.08
286.184	25.08
286.318	47.08
286.453	-0.92
286.587	-0.92
286.721	-15.92
286.855	11.08
286.989	35.08
287.123	14.08
287.258	-0.92
287.392	5.08
287.526	22.08
287.66	19.08
287.794	14.08
287.928	1.08
288.062	19.08
288.196	16.08
288.33	12.08
288.464	32.08
288.598	20.08
288.733	4.08
288.867	36.08
289.001	29.08
289.135	2.08
289.269	-3.92
289.403	2.08
289.537	22.08
289.671	17.08
289.805	-5.92
289.939	10.08
290.073	10.08
290.207	18.08
290.34	8.08
290.474	15.08
290.608	5.08
290.742	-0.92
290.876	-1.92
291.01	-12.92
291.144	10.08
291.278	11.08
291.412	-8.92
291.546	1.08
291.679	-7.92
291.813	-3.92
291.947	5.08
292.081	-0.92
292.215	16.08
292.349	28.08
292.482	11.08
292.616	6.08
292.75	-3.92
292.884	-2.92
293.018	14.08
293.151	-1.92
293.285	2.08
293.419	-3.92
293.553	-2.92
293.686	2.08
293.82	29.08
293.954	33.08
294.088	50.08
294.221	-0.92
294.355	8.08
294.489	-4.92
294.622	-7.92
294.756	-14.92
294.89	4.08
295.023	7.08
295.157	20.08
295.291	1.08
295.424	19.08
295.558	9.08
295.691	14.08
295.825	9.08
295.959	12.08
296.092	-4.92
296.226	23.08
296.359	17.08
296.493	12.08
296.627	19.08
296.76	18.08
296.894	6.08
297.027	12.08
297.161	6.08
297.294	-7.92
297.428	0.08
297.561	40.08
297.695	3.08
297.828	-0.92
297.962	-3.92
298.095	-7.92
298.229	26.08
298.362	0.08
298.495	1.08
298.629	-7.92
298.762	2.08
298.896	1.08
299.029	-26.92
299.162	2.08
299.296	12.08
299.429	11.08
299.563	-8.92
299.696	0.08
299.829	10.08
299.963	7.08
300.096	19.08
300.229	8.08
300.363	0.08
300.496	5.08
300.629	-15.92
300.763	7.08
300.896	-0.92
301.029	5.08
301.162	7.08
301.296	-13.92
301.429	-1.92
301.562	-2.92
301.695	-3.92
301.829	9.08
301.962	24.08
302.095	21.08
302.228	-16.92
302.362	12.08
302.495	1.08
302.628	14.08
302.761	2.08
302.894	7.08
303.027	8.08
303.161	12.08
303.294	-5.92
303.427	14.08
303.56	-4.92
303.693	-6.92
303.826	18.08
303.959	1.08
304.092	-7.92
304.225	-9.92
304.359	17.08
304.492	3.08
304.625	-0.92
304.758	6.08
304.891	-13.92
305.024	13.08
305.157	4.08
305.29	-8.92
305.423	-0.92
305.556	-3.92
305.689	17.08
305.822	16.08
305.955	2.08
306.088	-3.92
306.221	0.08
306.354	1.08
306.487	1.08
306.62	-10.92
306.752	11.08
306.885	9.08
307.018	-3.92
307.151	13.08
307.284	13.08
307.417	-5.92
307.55	10.08
307.683	2.08
307.816	12.08
307.948	15.08
308.081	14.08
308.214	18.08
308.347	34.08
308.48	1.08
308.613	1.08
308.745	4.08
308.878	-20.92
309.011	9.08
309.144	13.08
309.277	-3.92
309.409	15.08
309.542	12.08
309.675	18.08
309.808	17.08
309.94	18.08
310.073	5.08
310.206	-0.92
310.339	13.08
310.471	-11.92
310.604	1.08
310.737	-21.92
310.869	-1.92
311.002	-8.92
311.135	-6.92
311.267	-17.92
311.4	-14.92
311.533	22.08
311.665	12.08
311.798	-0.92
311.93	28.08
312.063	5.08
312.196	7.08
312.328	4.08
312.461	-4.92
312.593	5.08
312.726	29.08
312.859	-4.92
312.991	21.08
313.124	-14.92
313.256	13.08
313.389	11.08
313.521	12.08
313.654	-5.92
313.786	-11.92
313.919	-8.92
314.051	1.08
314.184	10.08
314.316	9.08
314.449	-16.92
314.581	1.08
314.714	-2.92
314.846	-7.92
314.978	-5.92
315.111	-2.92
315.243	18.08
315.376	10.08
315.508	-0.92
315.641	7.08
315.773	18.08
315.905	22.08
316.038	2.08
316.17	38.08
316.302	22.08
316.435	8.08
316.567	-12.92
316.699	21.08
316.832	-10.92
316.964	-4.92
317.096	-0.92
317.229	1.08
317.361	-23.92
317.493	-8.92
317.625	-7.92
317.758	5.08
317.89	28.08
318.022	5.08
318.155	-8.92
318.287	9.08
318.419	18.08
318.551	3.08
318.683	-0.92
318.816	-6.92
318.948	-10.92
319.08	4.08
319.212	3.08
319.344	-1.92
319.477	14.08
319.609	22.08
319.741	19.08
319.873	5.08
320.005	-4.92
320.137	-1.92
320.269	1.08
320.401	6.08
320.534	10.08
320.666	-11.92
320.798	-20.92
320.93	-9.92
321.062	-7.92
321.194	25.08
321.326	-2.92
321.458	-7.92
321.59	-8.92
321.722	-6.92
321.854	15.08
321.986	-3.92
322.118	6.08
322.25	-4.92
322.382	12.08
322.514	-2.92
322.646	0.08
322.778	28.08
322.91	3.08
323.042	3.08
323.174	-1.92
323.306	-14.92
323.438	-22.92
323.57	-3.92
323.702	6.08
323.834	-1.92
323.966	-1.92
324.097	3.08
324.229	8.08
324.361	-5.92
324.493	4.08
324.625	-1.92
324.757	6.08
324.889	12.08
325.021	18.08
325.152	29.08
325.284	8.08
325.416	-7.92
325.548	10.08
325.68	-5.92
325.811	12.08
325.943	21.08
326.075	-17.92
326.207	10.08
326.339	5.08
326.47	12.08
326.602	10.08
326.734	10.08
326.866	6.08
326.997	-2.92
327.129	-8.92
327.261	-12.92
327.392	-9.92
327.524	5.08
327.656	-11.92
327.787	15.08
327.919	4.08
328.051	10.08
328.182	36.08
328.314	30.08
328.446	-5.92
328.577	11.08
328.709	9.08
328.841	8.08
328.972	5.08
329.104	11.08
329.235	8.08
329.367	12.08
329.499	2.08
329.63	15.08
329.762	10.08
329.893	30.08
330.025	5.08
330.156	-19.92
330.288	-9.92
330.419	9.08
330.551	8.08
330.683	17.08
330.814	-0.92
330.946	15.08
331.077	-10.92
331.208	-2.92
331.34	-11.92
331.471	-19.92
331.603	4.08
331.734	-13.92
331.866	19.08
331.997	10.08
332.129	-4.92
332.26	7.08
332.392	13.08
332.523	11.08
332.654	-15.92
332.786	-13.92
332.917	-12.92
333.048	1.08
333.18	21.08
333.311	0.08
333.443	9.08
333.574	10.08
333.705	15.08
333.837	6.08
333.968	-1.92
334.099	33.08
334.231	18.08
334.362	-5.92
334.493	15.08
334.624	29.08
334.756	20.08
334.887	9.08
335.018	12.08
335.15	16.08
335.281	6.08
335.412	34.08
335.543	20.08
335.675	-4.92
335.806	24.08
335.937	9.08
336.068	5.08
336.199	29.08
336.331	-10.92
336.462	16.08
336.593	17.08
336.724	9.08
336.855	7.08
336.986	9.08
337.118	20.08
337.249	1.08
337.38	0.08
337.511	19.08
337.642	5.08
337.773	10.08
337.904	30.08
338.035	19.08
338.166	9.08
338.298	4.08
338.429	-2.92
338.56	9.08
338.691	6.08
338.822	13.08
338.953	3.08
339.084	25.08
339.215	18.08
339.346	-4.92
339.477	5.08
339.608	0.08
339.739	5.08
339.87	-0.92
340.001	-3.92
340.132	-3.92
340.263	11.08
340.394	10.08
340.525	7.08
340.656	-17.92
340.787	-8.92
340.918	22.08
341.049	20.08
341.179	13.08
341.31	23.08
341.441	26.08
341.572	21.08
341.703	16.08
341.834	3.08
341.965	5.08
342.096	9.08
342.227	-2.92
342.357	2.08
342.488	3.08
342.619	7.08
342.75	23.08
342.881	-3.92
343.012	20.08
343.142	37.08
343.273	1.08
343.404	19.08
343.535	36.08
343.666	12.08
343.796	20.08
343.927	16.08
344.058	24.08
344.189	4.08
344.319	17.08
344.45	29.08
344.581	21.08
344.712	-9.92
344.842	-9.92
344.973	-13.92
345.104	6.08
345.234	-6.92
345.365	-0.92
345.496	-3.92
345.626	27.08
345.757	8.08
345.888	-2.92
346.018	18.08
346.149	10.08
346.28	15.08
346.41	-6.92
346.541	31.08
346.672	25.08
346.802	26.08
346.933	18.08
347.063	15.08
347.194	2.08
347.325	7.08
347.455	14.08
347.586	1.08
347.716	-13.92
347.847	-4.92
347.977	3.08
348.108	21.08
348.238	33.08
348.369	-0.92
348.499	20.08
348.63	2.08
348.76	12.08
348.891	23.08
349.021	38.08
349.152	-1.92
349.282	27.08
349.413	6.08
349.543	23.08
349.674	4.08
349.804	10.08
349.935	14.08
350.065	0.08
350.196	-26.92
350.326	11.08
350.456	4.08
350.587	38.08
350.717	30.08
350.848	0.08
350.978	25.08
351.108	-2.92
351.239	19.08
351.369	5.08
351.499	2.08
351.63	18.08
351.76	6.08
351.89	13.08
352.021	17.08
352.151	7.08
352.281	27.08
352.412	27.08
352.542	5.08
352.672	0.08
352.803	34.08
352.933	19.08
353.063	6.08
353.193	20.08
353.324	3.08
353.454	10.08
353.584	22.08
353.714	0.08
353.845	5.08
353.975	7.08
354.105	12.08
354.235	16.08
354.365	13.08
354.496	20.08
354.626	7.08
354.756	19.08
354.886	-6.92
355.016	16.08
355.146	26.08
355.277	22.08
355.407	20.08
355.537	9.08
355.667	12.08
355.797	4.08
355.927	7.08
356.057	10.08
356.187	12.08
356.318	1.08
356.448	16.08
356.578	15.08
356.708	6.08
356.838	13.08
356.968	5.08
357.098	18.08
357.228	5.08
357.358	-11.92
357.488	-5.92
357.618	26.08
357.748	22.08
357.878	21.08
358.008	10.08
358.138	14.08
358.268	18.08
358.398	34.08
358.528	-0.92
358.658	10.08
358.788	15.08
358.918	16.08
359.048	12.08
359.178	15.08
359.308	29.08
359.438	29.08
359.568	35.08
359.698	15.08
359.827	13.08
359.957	26.08
360.087	19.08
360.217	6.08
360.347	9.08
360.477	20.08
360.607	6.08
360.737	29.08
360.866	4.08
360.996	-1.92
361.126	19.08
361.256	36.08
361.386	10.08
361.516	12.08
361.645	-13.92
361.775	9.08
361.905	-5.92
362.035	7.08
362.165	5.08
362.294	16.08
362.424	8.08
362.554	8.08
362.684	-6.92
362.813	8.08
362.943	17.08
363.073	13.08
363.203	10.08
363.332	9.08
363.462	8.08
363.592	15.08
363.721	-2.92
363.851	25.08
363.981	24.08
364.111	7.08
364.24	-1.92
364.37	27.08
364.5	31.08
364.629	15.08
364.759	-3.92
364.888	-3.92
365.018	17.08
365.148	10.08
365.277	27.08
365.407	14.08
365.537	21.08
365.666	24.08
365.796	4.08
365.925	12.08
366.055	1.08
366.184	-7.92
366.314	15.08
366.444	13.08
366.573	7.08
366.703	-3.92
366.832	18.08
366.962	24.08
367.091	31.08
367.221	19.08
367.35	12.08
367.48	64.08
367.609	23.08
367.739	14.08
367.868	0.08
367.998	10.08
368.127	28.08
368.257	31.08
368.386	35.08
368.516	24.08
368.645	19.08
368.775	11.08
368.904	15.08
369.033	-8.92
369.163	7.08
369.292	28.08
369.422	30.08
369.551	17.08
369.68	40.08
369.81	26.08
369.939	5.08
370.069	29.08
370.198	6.08
370.327	-5.92
370.457	15.08
370.586	30.08
370.715	5.08
370.845	-22.92
370.974	6.08
371.103	6.08
371.233	2.08
371.362	8.08
371.491	3.08
371.621	31.08
371.75	-13.92
371.879	-10.92
372.008	2.08
372.138	-1.92
372.267	24.08
372.396	3.08
372.525	6.08
372.655	15.08
372.784	22.08
372.913	5.08
373.042	12.08
373.172	16.08
373.301	-1.92
373.43	-13.92
373.559	-7.92
373.688	19.08
373.818	41.08
373.947	27.08
374.076	19.08
374.205	34.08
374.334	-1.92
374.463	-4.92
374.593	9.08
374.722	13.08
374.851	37.08
374.98	13.08
375.109	14.08
375.238	14.08
375.367	64.08
375.496	0.08
375.625	-9.92
375.755	23.08
375.884	31.08
376.013	29.08
376.142	2.08
376.271	22.08
376.4	18.08
376.529	4.08
376.658	18.08
376.787	-10.92
376.916	15.08
377.045	4.08
377.174	-5.92
377.303	8.08
377.432	22.08
377.561	23.08
377.69	13.08
377.819	49.08
377.948	1.08
378.077	-6.92
378.206	-10.92
378.335	28.08
378.464	7.08
378.593	26.08
378.722	4.08
378.851	6.08
378.98	22.08
379.108	3.08
379.237	-0.92
379.366	21.08
379.495	23.08
379.624	3.08
379.753	22.08
379.882	17.08
380.011	-3.92
380.14	-0.92
380.268	4.08
380.397	-10.92
380.526	28.08
380.655	6.08
380.784	-10.92
380.913	-5.92
381.041	4.08
381.17	4.08
381.299	7.08
381.428	11.08
381.557	25.08
381.685	12.08
381.814	15.08
381.943	18.08
382.072	-15.92
382.2	16.08
382.329	11.08
382.458	6.08
382.587	21.08
382.715	31.08
382.844	15.08
382.973	10.08
383.102	5.08
383.23	-0.92
383.359	-2.92
383.488	16.08
383.616	6.08
383.745	-6.92
383.874	6.08
384.003	-2.92
384.131	-12.92
384.26	-6.92
384.389	6.08
384.517	-0.92
384.646	10.08
384.774	13.08
384.903	7.08
385.032	11.08
385.16	18.08
385.289	18.08
385.418	14.08
385.546	18.08
385.675	13.08
385.803	12.08
385.932	19.08
386.06	-10.92
386.189	12.08
386.318	8.08
386.446	5.08
386.575	14.08
386.703	7.08
386.832	7.08
386.96	-15.92
387.089	23.08
387.217	15.08
387.346	-13.92
387.474	-4.92
387.603	21.08
387.731	4.08
387.86	8.08
387.988	15.08
388.117	24.08
388.245	6.08
388.374	-0.92
388.502	-6.92
388.631	-6.92
388.759	8.08
388.888	7.08
389.016	18.08
389.144	25.08
389.273	0.08
389.401	-10.92
389.53	5.08
389.658	18.08
389.786	-0.92
389.915	-16.92
390.043	-1.92
390.172	13.08
390.3	35.08
390.428	19.08
390.557	9.08
390.685	18.08
390.813	18.08
390.942	25.08
391.07	11.08
391.198	12.08
391.327	4.08
391.455	-0.92
391.583	19.08
391.712	14.08
391.84	14.08
391.968	6.08
392.096	3.08
392.225	14.08
392.353	13.08
392.481	8.08
392.609	16.08
392.738	28.08
392.866	2.08
392.994	-11.92
393.122	14.08
393.251	1.08
393.379	11.08
393.507	-1.92
393.635	-3.92
393.764	21.08
393.892	8.08
394.02	-2.92
394.148	-1.92
394.276	4.08
394.404	39.08
394.533	23.08
394.661	12.08
394.789	33.08
394.917	29.08
395.045	-0.92
395.173	-18.92
395.302	1.08
395.43	9.08
395.558	5.08
395.686	7.08
395.814	23.08
395.942	-0.92
396.07	-0.92
396.198	17.08
396.326	32.08
396.454	16.08
396.582	39.08
396.711	25.08
396.839	17.08
396.967	5.08
397.095	16.08
397.223	38.08
397.351	16.08
397.479	5.08
397.607	10.08
397.735	1.08
397.863	25.08
397.991	20.08
398.119	-7.92
398.247	13.08
398.375	-2.92
398.503	4.08
398.631	8.08
398.759	8.08
398.887	6.08
399.015	1.08
399.143	15.08
399.271	20.08
399.399	11.08
399.526	18.08
399.654	6.08
399.782	-21.92
399.91	9.08
400.038	25.08
400.166	9.08
400.294	-6.92
400.422	14.08
400.55	0.08
400.678	25.08
400.805	15.08
400.933	1.08
401.061	24.08
401.189	20.08
401.317	31.08
401.445	19.08
401.573	11.08
401.7	8.08
401.828	4.08
401.956	21.08
402.084	27.08
402.212	12.08
402.34	7.08
402.467	20.08
402.595	32.08
402.723	14.08
402.851	43.08
402.978	16.08
403.106	21.08
403.234	19.08
403.362	25.08
403.489	39.08
403.617	20.08
403.745	19.08
403.873	1.08
404	20.08
404.128	28.08
404.256	17.08
404.384	33.08
404.511	34.08
404.639	12.08
404.767	7.08
404.894	9.08
405.022	17.08
405.15	31.08
405.277	-5.92
405.405	3.08
405.533	12.08
405.66	20.08
405.788	-6.92
405.916	-13.92
406.043	4.08
406.171	11.08
406.299	16.08
406.426	18.08
406.554	15.08
406.681	38.08
406.809	27.08
406.937	4.08
407.064	2.08
407.192	25.08
407.319	16.08
407.447	17.08
407.574	44.08
407.702	19.08
407.83	-1.92
407.957	-23.92
408.085	2.08
408.212	-0.92
408.34	9.08
408.467	-0.92
408.595	7.08
408.722	29.08
408.85	27.08
408.977	8.08
409.105	-2.92
409.232	-1.92
409.36	26.08
409.487	9.08
409.615	21.08
409.742	27.08
409.87	46.08
409.997	37.08
410.125	38.08
410.252	48.08
410.379	58.08
410.507	43.08
410.634	27.08
410.762	8.08
410.889	11.08
411.017	22.08
411.144	20.08
411.271	18.08
411.399	17.08
411.526	25.08
411.653	18.08
411.781	31.08
411.908	21.08
412.036	-4.92
412.163	20.08
412.29	23.08
412.418	17.08
412.545	31.08
412.672	22.08
412.8	32.08
412.927	19.08
413.054	37.08
413.182	17.08
413.309	16.08
413.436	4.08
413.564	0.08
413.691	22.08
413.818	19.08
413.945	-3.92
414.073	12.08
414.2	16.08
414.327	12.08
414.454	13.08
414.582	9.08
414.709	-1.92
414.836	9.08
414.963	-1.92
415.091	5.08
415.218	-7.92
415.345	15.08
415.472	25.08
415.6	9.08
415.727	15.08
415.854	10.08
415.981	8.08
416.108	13.08
416.236	-0.92
416.363	17.08
416.49	2.08
416.617	6.08
416.744	33.08
416.871	21.08
416.998	10.08
417.126	5.08
417.253	10.08
417.38	16.08
417.507	15.08
417.634	28.08
417.761	11.08
417.888	4.08
418.015	5.08
418.143	12.08
418.27	27.08
418.397	11.08
418.524	29.08
418.651	2.08
418.778	9.08
418.905	18.08
419.032	4.08
419.159	13.08
419.286	25.08
419.413	13.08
419.54	29.08
419.667	3.08
419.794	-9.92
419.921	2.08
420.048	17.08
420.175	27.08
420.302	2.08
420.429	-0.92
420.556	2.08
420.683	7.08
420.81	-3.92
420.937	10.08
421.064	18.08
421.191	16.08
421.318	38.08
421.445	30.08
421.572	0.08
421.699	30.08
421.826	24.08
421.953	6.08
422.08	1.08
422.207	-3.92
422.334	3.08
422.461	17.08
422.588	-1.92
422.714	2.08
422.841	9.08
422.968	24.08
423.095	14.08
423.222	-10.92
423.349	20.08
423.476	23.08
423.603	-10.92
423.729	11.08
423.856	21.08
423.983	16.08
424.11	19.08
424.237	8.08
424.364	28.08
424.491	6.08
424.617	-0.92
424.744	-1.92
424.871	12.08
424.998	18.08
425.125	-8.92
425.251	12.08
425.378	10.08
425.505	10.08
425.632	24.08
425.758	14.08
425.885	12.08
426.012	14.08
426.139	25.08
426.266	4.08
426.392	23.08
426.519	18.08
426.646	6.08
426.772	20.08
426.899	14.08
427.026	32.08
427.153	9.08
427.279	35.08
427.406	18.08
427.533	23.08
427.659	2.08
427.786	7.08
427.913	50.08
428.039	9.08
428.166	14.08
428.293	22.08
428.419	36.08
428.546	5.08
428.673	1.08
428.799	-1.92
428.926	-1.92
429.053	24.08
429.179	9.08
429.306	23.08
429.433	11.08
429.559	28.08
429.686	12.08
429.812	13.08
429.939	11.08
430.066	-7.92
430.192	27.08
430.319	36.08
430.445	22.08
430.572	12.08
430.699	-14.92
430.825	-0.92
430.952	7.08
431.078	20.08
431.205	27.08
431.331	-1.92
431.458	25.08
431.584	16.08
431.711	-1.92
431.837	28.08
431.964	12.08
432.09	27.08
432.217	15.08
432.343	9.08
432.47	28.08
432.596	7.08
432.723	20.08
432.849	6.08
432.976	1.08
433.102	2.08
433.229	-14.92
433.355	38.08
433.482	77.08
433.608	173.08
433.735	149.08
433.861	123.08
433.987	164.08
434.114	233.08
434.24	202.08
434.367	63.08
434.493	6.08
434.62	12.08
434.746	33.08
434.872	2.08
434.999	33.08
435.125	7.08
435.252	3.08
435.378	10.08
435.504	8.08
435.631	20.08
435.757	5.08
435.883	22.08
436.01	22.08
436.136	23.08
436.262	40.08
436.389	16.08
436.515	32.08
436.641	21.08
436.768	7.08
436.894	29.08
437.02	20.08
437.147	29.08
437.273	14.08
437.399	7.08
437.526	38.08
437.652	10.08
437.778	24.08
437.904	11.08
438.031	12.08
438.157	21.08
438.283	12.08
438.409	11.08
438.536	-9.92
438.662	9.08
438.788	4.08
438.914	21.08
439.041	21.08
439.167	24.08
439.293	-9.92
439.419	4.08
439.546	17.08
439.672	6.08
439.798	28.08
439.924	25.08
440.05	36.08
440.177	13.08
440.303	20.08
440.429	22.08
440.555	19.08
440.681	10.08
440.807	30.08
440.934	7.08
441.06	16.08
441.186	11.08
441.312	18.08
441.438	26.08
441.564	25.08
441.69	18.08
441.816	26.08
441.943	3.08
442.069	17.08
442.195	47.08
442.321	23.08
442.447	5.08
442.573	-6.92
442.699	10.08
442.825	1.08
442.951	24.08
443.077	29.08
443.203	27.08
443.33	17.08
443.456	0.08
443.582	16.08
443.708	12.08
443.834	18.08
443.96	14.08
444.086	23.08
444.212	35.08
444.338	34.08
444.464	30.08
444.59	20.08
444.716	-20.92
444.842	-1.92
444.968	-18.92
445.094	15.08
445.22	-2.92
445.346	-3.92
445.472	20.08
445.598	19.08
445.724	10.08
445.85	14.08
445.976	19.08
446.102	37.08
446.228	23.08
446.354	17.08
446.48	24.08
446.605	14.08
446.731	22.08
446.857	4.08
446.983	29.08
447.109	13.08
447.235	8.08
447.361	5.08
447.487	31.08
447.613	32.08
447.739	16.08
447.865	8.08
447.99	18.08
448.116	16.08
448.242	3.08
448.368	5.08
448.494	10.08
448.62	26.08
448.746	36.08
448.872	17.08
448.997	10.08
449.123	14.08
449.249	47.08
449.375	28.08
449.501	0.08
449.627	8.08
449.752	29.08
449.878	3.08
450.004	4.08
450.13	20.08
450.256	-1.92
450.381	24.08
450.507	27.08
450.633	24.08
450.759	19.08
450.884	1.08
451.01	15.08
451.136	-1.92
451.262	4.08
451.388	16.08
451.513	7.08
451.639	20.08
451.765	38.08
451.89	14.08
452.016	19.08
452.142	0.08
452.268	8.08
452.393	14.08
452.519	10.08
452.645	9.08
452.771	-2.92
452.896	5.08
453.022	0.08
453.148	19.08
453.273	10.08
453.399	8.08
453.525	-0.92
453.65	5.08
453.776	25.08
453.902	34.08
454.027	26.08
454.153	3.08
454.279	29.08
454.404	10.08
454.53	29.08
454.656	37.08
454.781	23.08
454.907	20.08
455.032	13.08
455.158	41.08
455.284	29.08
455.409	30.08
455.535	20.08
455.66	12.08
455.786	35.08
455.912	6.08
456.037	9.08
456.163	18.08
456.288	47.08
456.414	7.08
456.539	13.08
456.665	22.08
456.791	17.08
456.916	13.08
457.042	26.08
457.167	-4.92
457.293	12.08
457.418	5.08
457.544	10.08
457.669	23.08
457.795	25.08
457.92	25.08
458.046	14.08
458.171	23.08
458.297	19.08
458.422	31.08
458.548	9.08
458.673	14.08
458.799	17.08
458.924	-3.92
459.05	13.08
459.175	4.08
459.301	15.08
459.426	29.08
459.552	24.08
459.677	0.08
459.803	17.08
459.928	25.08
460.053	12.08
460.179	14.08
460.304	27.08
460.43	-0.92
460.555	4.08
460.681	-7.92
460.806	4.08
460.931	17.08
461.057	24.08
461.182	14.08
461.308	16.08
461.433	21.08
461.558	5.08
461.684	23.08
461.809	37.08
461.934	32.08
462.06	23.08
462.185	16.08
462.311	22.08
462.436	10.08
462.561	10.08
462.687	29.08
462.812	20.08
462.937	3.08
463.063	-4.92
463.188	13.08
463.313	18.08
463.439	-0.92
463.564	6.08
463.689	5.08
463.814	21.08
463.94	1.08
464.065	28.08
464.19	33.08
464.316	18.08
464.441	9.08
464.566	9.08
464.692	25.08
464.817	18.08
464.942	19.08
465.067	22.08
465.193	-2.92
465.318	10.08
465.443	25.08
465.568	2.08
465.694	6.08
465.819	24.08
465.944	-3.92
466.069	7.08
466.194	12.08
466.32	22.08
466.445	21.08
466.57	-0.92
466.695	2.08
466.82	10.08
466.946	30.08
467.071	-3.92
467.196	6.08
467.321	19.08
467.446	2.08
467.572	13.08
467.697	-2.92
467.822	25.08
467.947	12.08
468.072	-2.92
468.197	3.08
468.323	-4.92
468.448	-2.92
468.573	11.08
468.698	20.08
468.823	14.08
468.948	31.08
469.073	-3.92
469.198	16.08
469.324	22.08
469.449	2.08
469.574	22.08
469.699	18.08
469.824	10.08
469.949	17.08
470.074	11.08
470.199	42.08
470.324	14.08
470.449	19.08
470.574	18.08
470.7	16.08
470.825	26.08
470.95	25.08
471.075	6.08
471.2	13.08
471.325	20.08
471.45	11.08
471.575	-16.92
471.7	26.08
471.825	19.08
471.95	22.08
472.075	22.08
472.2	5.08
472.325	5.08
472.45	-16.92
472.575	13.08
472.7	1.08
472.825	-6.92
472.95	24.08
473.075	32.08
473.2	12.08
473.325	16.08
473.45	1.08
473.575	4.08
473.7	21.08
473.825	14.08
473.95	18.08
474.075	37.08
474.2	0.08
474.325	14.08
474.45	31.08
474.574	0.08
474.699	12.08
474.824	26.08
474.949	10.08
475.074	-2.92
475.199	36.08
475.324	27.08
475.449	8.08
475.574	11.08
475.699	18.08
475.824	12.08
475.949	7.08
476.073	21.08
476.198	11.08
476.323	27.08
476.448	15.08
476.573	5.08
476.698	34.08
476.823	8.08
476.947	-3.92
477.072	16.08
477.197	13.08
477.322	8.08
477.447	-4.92
477.572	17.08
477.697	8.08
477.821	19.08
477.946	36.08
478.071	21.08
478.196	25.08
478.321	18.08
478.445	11.08
478.57	9.08
478.695	8.08
478.82	21.08
478.945	11.08
479.069	3.08
479.194	28.08
479.319	37.08
479.444	15.08
479.569	4.08
479.693	23.08
479.818	26.08
479.943	16.08
480.068	21.08
480.192	37.08
480.317	32.08
480.442	8.08
480.567	7.08
480.691	19.08
480.816	24.08
480.941	-2.92
481.066	31.08
481.19	26.08
481.315	35.08
481.44	17.08
481.564	6.08
481.689	32.08
481.814	24.08
481.938	30.08
482.063	12.08
482.188	14.08
482.313	28.08
482.437	10.08
482.562	17.08
482.687	32.08
482.811	29.08
482.936	27.08
483.061	14.08
483.185	40.08
483.31	12.08
483.435	10.08
483.559	10.08
483.684	13.08
483.808	46.08
483.933	1.08
484.058	8.08
484.182	12.08
484.307	18.08
484.432	31.08
484.556	24.08
484.681	38.08
484.805	40.08
484.93	36.08
485.055	43.08
485.179	71.08
485.304	121.08
485.428	372.08
485.553	1233.08
485.678	1701.08
485.802	1623.08
485.927	1800.08
486.051	2629.08
486.176	1618.08
486.3	421.08
486.425	129.08
486.549	83.08
486.674	73.08
486.799	36.08
486.923	27.08
487.048	52.08
487.172	20.08
487.297	30.08
487.421	33.08
487.546	26.08
487.67	15.08
487.795	18.08
487.919	17.08
488.044	19.08
488.168	30.08
488.293	23.08
488.417	4.08
488.542	40.08
488.666	15.08
488.791	36.08
488.915	23.08
489.04	11.08
489.164	15.08
489.289	18.08
489.413	3.08
489.538	29.08
489.662	33.08
489.786	1.08
489.911	30.08
490.035	18.08
490.16	29.08
490.284	18.08
490.409	13.08
490.533	6.08
490.658	40.08
490.782	13.08
490.906	20.08
491.031	34.08
491.155	29.08
491.28	50.08
491.404	26.08
491.528	44.08
491.653	15.08
491.777	45.08
491.902	13.08
492.026	30.08
492.15	15.08
492.275	19.08
492.399	31.08
492.524	5.08
492.648	34.08
492.772	13.08
492.897	26.08
493.021	16.08
493.145	21.08
493.27	22.08
493.394	4.08
493.518	7.08
493.643	8.08
493.767	35.08
493.891	8.08
494.016	16.08
494.14	22.08
494.264	25.08
494.389	12.08
494.513	12.08
494.637	-3.92
494.762	24.08
494.886	24.08
495.01	24.08
495.134	7.08
495.259	22.08
495.383	20.08
495.507	14.08
495.632	21.08
495.756	36.08
495.88	20.08
496.004	8.08
496.129	8.08
496.253	31.08
496.377	6.08
496.501	30.08
496.626	15.08
496.75	30.08
496.874	6.08
496.998	14.08
497.123	23.08
497.247	8.08
497.371	10.08
497.495	26.08
497.62	20.08
497.744	15.08
497.868	25.08
497.992	6.08
498.116	11.08
498.241	29.08
498.365	12.08
498.489	-0.92
498.613	19.08
498.737	5.08
498.862	4.08
498.986	5.08
499.11	20.08
499.234	19.08
499.358	5.08
499.482	16.08
499.607	24.08
499.731	13.08
499.855	36.08
499.979	37.08
500.103	26.08
500.227	16.08
500.351	-1.92
500.476	12.08
500.6	12.08
500.724	22.08
500.848	9.08
500.972	24.08
501.096	29.08
501.22	23.08
501.344	11.08
501.469	13.08
501.593	25.08
501.717	31.08
501.841	11.08
501.965	1.08
502.089	4.08
502.213	16.08
502.337	10.08
502.461	13.08
502.585	22.08
502.709	9.08
502.834	16.08
502.958	-0.92
503.082	17.08
503.206	4.08
503.33	24.08
503.454	28.08
503.578	22.08
503.702	20.08
503.826	25.08
503.95	31.08
504.074	13.08
504.198	13.08
504.322	14.08
504.446	0.08
504.57	30.08
504.694	23.08
504.818	19.08
504.942	29.08
505.066	21.08
505.19	10.08
505.314	16.08
505.438	17.08
505.562	33.08
505.686	36.08
505.81	26.08
505.934	12.08
506.058	20.08
506.182	29.08
506.306	15.08
506.43	2.08
506.554	18.08
506.678	3.08
506.802	8.08
506.926	14.08
507.05	18.08
507.174	31.08
507.298	18.08
507.422	12.08
507.546	26.08
507.67	31.08
507.794	16.08
507.918	9.08
508.042	23.08
508.165	13.08
508.289	13.08
508.413	6.08
508.537	8.08
508.661	10.08
508.785	13.08
508.909	27.08
509.033	28.08
509.157	31.08
509.281	25.08
509.405	14.08
509.528	23.08
509.652	36.08
509.776	35.08
509.9	27.08
510.024	-2.92
510.148	33.08
510.272	24.08
510.396	34.08
510.519	1.08
510.643	17.08
510.767	22.08
510.891	15.08
511.015	-0.92
511.139	17.08
511.263	24.08
511.386	14.08
511.51	1.08
511.634	20.08
511.758	27.08
511.882	13.08
512.006	27.08
512.129	32.08
512.253	59.08
512.377	19.08
512.501	12.08
512.625	24.08
512.748	7.08
512.872	-2.92
512.996	2.08
513.12	16.08
513.244	7.08
513.367	29.08
513.491	17.08
513.615	23.08
513.739	21.08
513.862	10.08
513.986	23.08
514.11	11.08
514.234	5.08
514.358	32.08
514.481	23.08
514.605	2.08
514.729	21.08
514.853	17.08
514.976	17.08
515.1	21.08
515.224	35.08
515.348	4.08
515.471	10.08
515.595	19.08
515.719	11.08
515.842	25.08
515.966	-9.92
516.09	21.08
516.214	17.08
516.337	38.08
516.461	27.08
516.585	50.08
516.708	38.08
516.832	14.08
516.956	1.08
517.08	8.08
517.203	-1.92
517.327	10.08
517.451	21.08
517.574	53.08
517.698	23.08
517.822	15.08
517.945	25.08
518.069	20.08
518.193	45.08
518.316	50.08
518.44	41.08
518.564	13.08
518.687	20.08
518.811	33.08
518.935	56.08
519.058	29.08
519.182	35.08
519.306	46.08
519.429	26.08
519.553	58.08
519.676	27.08
519.8	7.08
519.924	13.08
520.047	34.08
520.171	-2.92
520.294	7.08
520.418	24.08
520.542	32.08
520.665	31.08
520.789	17.08
520.913	12.08
521.036	-21.92
521.16	6.08
521.283	14.08
521.407	15.08
521.53	-5.92
521.654	-13.92
521.778	34.08
521.901	18.08
522.025	21.08
522.148	3.08
522.272	5.08
522.395	13.08
522.519	8.08
522.643	10.08
522.766	8.08
522.89	18.08
523.013	34.08
523.137	-5.92
523.26	4.08
523.384	20.08
523.507	4.08
523.631	11.08
523.754	-1.92
523.878	9.08
524.002	30.08
524.125	8.08
524.249	-1.92
524.372	20.08
524.496	24.08
524.619	30.08
524.743	17.08
524.866	-0.92
524.99	16.08
525.113	5.08
525.237	29.08
525.36	16.08
525.484	13.08
525.607	6.08
525.731	2.08
525.854	17.08
525.978	26.08
526.101	22.08
526.224	-0.92
526.348	14.08
526.471	4.08
526.595	26.08
526.718	6.08
526.842	7.08
526.965	32.08
527.089	22.08
527.212	14.08
527.336	0.08
527.459	20.08
527.582	24.08
527.706	18.08
527.829	21.08
527.953	26.08
528.076	11.08
528.2	6.08
528.323	14.08
528.446	45.08
528.57	27.08
528.693	21.08
528.817	14.08
528.94	3.08
529.064	29.08
529.187	8.08
529.31	7.08
529.434	-10.92
529.557	-1.92
529.68	22.08
529.804	22.08
529.927	27.08
530.051	16.08
530.174	18.08
530.297	17.08
530.421	26.08
530.544	27.08
530.668	12.08
530.791	5.08
530.914	33.08
531.038	7.08
531.161	13.08
531.284	17.08
531.408	27.08
531.531	1.08
531.654	0.08
531.778	10.08
531.901	-2.92
532.024	20.08
532.148	12.08
532.271	16.08
532.394	32.08
532.518	42.08
532.641	31.08
532.764	41.08
532.888	37.08
533.011	8.08
533.134	16.08
533.258	32.08
533.381	13.08
533.504	21.08
533.628	15.08
533.751	24.08
533.874	17.08
533.997	-3.92
534.121	-6.92
534.244	9.08
534.367	-4.92
534.491	7.08
534.614	10.08
534.737	27.08
534.86	28.08
534.984	6.08
535.107	16.08
535.23	16.08
535.354	4.08
535.477	-8.92
535.6	14.08
535.723	5.08
535.847	20.08
535.97	4.08
536.093	20.08
536.216	5.08
536.34	9.08
536.463	3.08
536.586	13.08
536.709	15.08
536.833	16.08
536.956	7.08
537.079	7.08
537.202	14.08
537.325	5.08
537.449	-0.92
537.572	38.08
537.695	7.08
537.818	18.08
537.941	2.08
538.065	10.08
538.188	2.08
538.311	26.08
538.434	42.08
538.558	18.08
538.681	37.08
538.804	39.08
538.927	30.08
539.05	45.08
539.173	18.08
539.297	21.08
539.42	26.08
539.543	25.08
539.666	33.08
539.789	18.08
539.913	2.08
540.036	26.08
540.159	39.08
540.282	6.08
540.405	-8.92
540.528	-5.92
540.651	21.08
540.775	21.08
540.898	20.08
541.021	9.08
541.144	13.08
541.267	21.08
541.39	-5.92
541.513	15.08
541.637	8.08
541.76	1.08
541.883	7.08
542.006	31.08
542.129	43.08
542.252	9.08
542.375	10.08
542.498	19.08
542.622	28.08
542.745	15.08
542.868	16.08
542.991	21.08
543.114	30.08
543.237	38.08
543.36	16.08
543.483	6.08
543.606	17.08
543.73	34.08
543.853	17.08
543.976	0.08
544.099	29.08
544.222	40.08
544.345	-2.92
544.468	2.08
544.591	24.08
544.714	20.08
544.837	31.08
544.96	12.08
545.083	16.08
545.206	12.08
545.329	14.08
545.453	-4.92
545.576	-5.92
545.699	1.08
545.822	16.08
545.945	24.08
546.068	-11.92
546.191	6.08
546.314	2.08
546.437	9.08
546.56	18.08
546.683	21.08
546.806	28.08
546.929	12.08
547.052	-5.92
547.175	2.08
547.298	31.08
547.421	-1.92
547.544	-2.92
547.667	28.08
547.79	14.08
547.913	4.08
548.036	-8.92
548.159	8.08
548.282	8.08
548.405	10.08
548.528	4.08
548.651	6.08
548.774	5.08
548.897	22.08
549.02	40.08
549.143	38.08
549.266	17.08
549.389	28.08
549.512	14.08
549.635	42.08
549.758	29.08
549.881	1.08
550.004	12.08
550.127	17.08
550.25	12.08
550.373	-9.92
550.496	18.08
550.619	14.08
550.742	9.08
550.865	13.08
550.988	21.08
551.111	41.08
551.234	20.08
551.356	10.08
551.479	-7.92
551.602	30.08
551.725	10.08
551.848	18.08
551.971	20.08
552.094	24.08
552.217	15.08
552.34	-8.92
552.463	6.08
552.586	33.08
552.709	12.08
552.832	21.08
552.955	29.08
553.077	18.08
553.2	6.08
553.323	-3.92
553.446	8.08
553.569	-13.92
553.692	16.08
553.815	17.08
553.938	18.08
554.061	18.08
554.184	9.08
554.306	23.08
554.429	15.08
554.552	4.08
554.675	19.08
554.798	30.08
554.921	19.08
555.044	2.08
555.167	10.08
555.29	5.08
555.412	23.08
555.535	20.08
555.658	8.08
555.781	17.08
555.904	18.08
556.027	33.08
556.15	19.08
556.272	16.08
556.395	22.08
556.518	-4.92
556.641	14.08
556.764	28.08
556.887	2.08
557.01	4.08
557.132	-10.92
557.255	14.08
557.378	28.08
557.501	14.08
557.624	24.08
557.747	25.08
557.869	20.08
557.992	28.08
558.115	34.08
558.238	-1.92
558.361	19.08
558.483	40.08
558.606	19.08
558.729	6.08
558.852	48.08
558.975	23.08
559.098	22.08
559.22	11.08
559.343	22.08
559.466	9.08
559.589	6.08
559.712	19.08
559.834	9.08
559.957	8.08
560.08	26.08
560.203	29.08
560.325	28.08
560.448	28.08
560.571	16.08
560.694	26.08
560.817	22.08
560.939	18.08
561.062	2.08
561.185	24.08
561.308	15.08
561.43	4.08
561.553	27.08
561.676	14.08
561.799	17.08
561.921	12.08
562.044	9.08
562.167	9.08
562.29	47.08
562.413	35.08
562.535	32.08
562.658	10.08
562.781	18.08
562.903	7.08
563.026	24.08
563.149	49.08
563.272	19.08
563.394	15.08
563.517	16.08
563.64	-19.92
563.763	4.08
563.885	16.08
564.008	23.08
564.131	1.08
564.254	11.08
564.376	9.08
564.499	2.08
564.622	1.08
564.744	21.08
564.867	15.08
564.99	25.08
565.113	19.08
565.235	12.08
565.358	8.08
565.481	-7.92
565.603	-0.92
565.726	16.08
565.849	41.08
565.971	27.08
566.094	-10.92
566.217	9.08
566.34	-1.92
566.462	17.08
566.585	24.08
566.708	18.08
566.83	-4.92
566.953	26.08
567.076	4.08
567.198	11.08
567.321	6.08
567.444	31.08
567.566	11.08
567.689	13.08
567.812	22.08
567.934	17.08
568.057	8.08
568.18	24.08
568.302	26.08
568.425	3.08
568.548	21.08
568.67	8.08
568.793	17.08
568.916	10.08
569.038	6.08
569.161	15.08
569.283	12.08
569.406	2.08
569.529	-3.92
569.651	12.08
569.774	4.08
569.897	8.08
570.019	2.08
570.142	17.08
570.265	21.08
570.387	13.08
570.51	20.08
570.632	18.08
570.755	20.08
570.878	10.08
571	34.08
571.123	12.08
571.246	4.08
571.368	5.08
571.491	10.08
571.613	6.08
571.736	12.08
571.859	15.08
571.981	-4.92
572.104	-6.92
572.226	14.08
572.349	-3.92
572.472	27.08
572.594	41.08
572.717	23.08
572.839	16.08
572.962	27.08
573.085	15.08
573.207	30.08
573.33	20.08
573.452	26.08
573.575	19.08
573.697	21.08
573.82	6.08
573.943	8.08
574.065	30.08
574.188	27.08
574.31	33.08
574.433	20.08
574.555	28.08
574.678	14.08
574.801	10.08
574.923	-4.92
575.046	17.08
575.168	10.08
575.291	16.08
575.413	21.08
575.536	13.08
575.659	11.08
575.781	-3.92
575.904	8.08
576.026	7.08
576.149	12.08
576.271	21.08
576.394	17.08
576.516	7.08
576.639	13.08
576.761	2.08
576.884	-3.92
577.007	5.08
577.129	21.08
577.252	14.08
577.374	30.08
577.497	13.08
577.619	6.08
577.742	8.08
577.864	23.08
577.987	11.08
578.109	15.08
578.232	24.08
578.354	36.08
578.477	2.08
578.599	25.08
578.722	7.08
578.844	8.08
578.967	7.08
579.089	-2.92
579.212	7.08
579.334	17.08
579.457	16.08
579.579	16.08
579.702	2.08
579.824	6.08
579.947	17.08
580.069	5.08
580.192	-9.92
580.314	17.08
580.437	4.08
580.559	36.08
580.682	33.08
580.804	28.08
580.927	27.08
581.049	39.08
581.172	24.08
581.294	14.08
581.417	29.08
581.539	30.08
581.662	29.08
581.784	20.08
581.907	15.08
582.029	18.08
582.152	-1.92
582.274	18.08
582.396	19.08
582.519	12.08
582.641	-2.92
582.764	12.08
582.886	15.08
583.009	6.08
583.131	36.08
583.254	22.08
583.376	22.08
583.499	29.08
583.621	36.08
583.743	24.08
583.866	22.08
583.988	32.08
584.111	13.08
584.233	21.08
584.356	31.08
584.478	23.08
584.601	2.08
584.723	21.08
584.845	22.08
584.968	2.08
585.09	-1.92
585.213	7.08
585.335	-9.92
585.458	17.08
585.58	20.08
585.702	14.08
585.825	25.08
585.947	24.08
586.07	21.08
586.192	14.08
586.315	29.08
586.437	0.08
586.559	16.08
586.682	1.08
586.804	15.08
586.927	6.08
587.049	5.08
587.171	7.08
587.294	23.08
587.416	33.08
587.539	22.08
587.661	12.08
587.783	7.08
587.906	12.08
588.028	3.08
588.151	14.08
588.273	24.08
588.395	12.08
588.518	28.08
588.64	21.08
588.763	23.08
588.885	5.08
589.007	29.08
589.13	-4.92
589.252	10.08
589.375	15.08
589.497	22.08
589.619	13.08
589.742	2.08
589.864	15.08
589.986	17.08
590.109	11.08
590.231	1.08
590.354	15.08
590.476	1.08
590.598	16.08
590.721	-5.92
590.843	28.08
590.965	22.08
591.088	21.08
591.21	7.08
591.332	19.08
591.455	-6.92
591.577	7.08
591.7	14.08
591.822	4.08
591.944	18.08
592.067	2.08
592.189	22.08
592.311	29.08
592.434	21.08
592.556	22.08
592.678	17.08
592.801	12.08
592.923	15.08
593.045	2.08
593.168	12.08
593.29	17.08
593.412	15.08
593.535	-1.92
593.657	12.08
593.779	27.08
593.902	27.08
594.024	10.08
594.146	30.08
594.269	21.08
594.391	16.08
594.513	25.08
594.636	9.08
594.758	9.08
594.88	30.08
595.003	25.08
595.125	5.08
595.247	25.08
595.37	34.08
595.492	4.08
595.614	22.08
595.737	28.08
595.859	7.08
595.981	2.08
596.104	14.08
596.226	5.08
596.348	13.08
596.471	5.08
596.593	10.08
596.715	15.08
596.838	6.08
596.96	0.08
597.082	26.08
597.204	12.08
597.327	9.08
597.449	-5.92
597.571	18.08
597.694	40.08
597.816	16.08
597.938	13.08
598.061	-2.92
598.183	15.08
598.305	26.08
598.427	0.08
598.55	20.08
598.672	38.08
598.794	33.08
598.917	21.08
599.039	22.08
599.161	18.08
599.283	8.08
599.406	14.08
599.528	19.08
599.65	39.08
599.773	30.08
599.895	47.08
600.017	35.08
600.139	20.08
600.262	10.08
600.384	10.08
600.506	12.08
600.628	23.08
600.751	25.08
600.873	-3.92
600.995	13.08
601.118	28.08
601.24	6.08
601.362	33.08
601.484	14.08
601.607	38.08
601.729	24.08
601.851	14.08
601.973	15.08
602.096	6.08
602.218	16.08
602.34	15.08
602.462	20.08
602.585	23.08
602.707	7.08
602.829	19.08
602.951	8.08
603.074	-7.92
603.196	17.08
603.318	9.08
603.44	15.08
603.563	22.08
603.685	9.08
603.807	29.08
603.929	34.08
604.052	24.08
604.174	20.08
604.296	6.08
604.418	12.08
604.541	40.08
604.663	14.08
604.785	34.08
604.907	23.08
605.03	23.08
605.152	44.08
605.274	22.08
605.396	20.08
605.519	13.08
605.641	3.08
605.763	18.08
605.885	13.08
606.008	14.08
606.13	16.08
606.252	12.08
606.374	-2.92
606.496	2.08
606.619	12.08
606.741	10.08
606.863	13.08
606.985	30.08
607.108	37.08
607.23	18.08
607.352	10.08
607.474	22.08
607.596	16.08
607.719	14.08
607.841	32.08
607.963	20.08
608.085	16.08
608.207	36.08
608.33	22.08
608.452	17.08
608.574	7.08
608.696	19.08
608.819	16.08
608.941	9.08
609.063	25.08
609.185	11.08
609.307	25.08
609.43	32.08
609.552	30.08
609.674	-3.92
609.796	26.08
609.918	42.08
610.041	11.08
610.163	41.08
610.285	7.08
610.407	22.08
610.529	0.08
610.652	21.08
610.774	28.08
610.896	11.08
611.018	8.08
611.14	12.08
611.263	4.08
611.385	26.08
611.507	18.08
611.629	-10.92
611.751	16.08
611.873	32.08
611.996	16.08
612.118	12.08
612.24	12.08
612.362	21.08
612.484	29.08
612.607	20.08
612.729	30.08
612.851	11.08
612.973	-7.92
613.095	2.08
613.218	22.08
613.34	37.08
613.462	18.08
613.584	15.08
613.706	-3.92
613.828	36.08
613.951	11.08
614.073	22.08
614.195	-9.92
614.317	42.08
614.439	40.08
614.561	22.08
614.684	22.08
614.806	17.08
614.928	24.08
615.05	6.08
615.172	25.08
615.294	25.08
615.417	23.08
615.539	9.08
615.661	9.08
615.783	22.08
615.905	26.08
616.027	81.08
616.15	128.08
616.272	104.08
616.394	52.08
616.516	40.08
616.638	28.08
616.76	13.08
616.883	8.08
617.005	3.08
617.127	9.08
617.249	29.08
617.371	18.08
617.493	21.08
617.615	30.08
617.738	-3.92
617.86	24.08
617.982	7.08
618.104	20.08
618.226	11.08
618.348	11.08
618.471	24.08
618.593	20.08
618.715	12.08
618.837	6.08
618.959	-0.92
619.081	14.08
619.203	6.08
619.326	14.08
619.448	25.08
619.57	19.08
619.692	21.08
619.814	16.08
619.936	26.08
620.058	12.08
620.181	38.08
620.303	13.08
620.425	29.08
620.547	8.08
620.669	10.08
620.791	14.08
620.913	24.08
621.036	21.08
621.158	22.08
621.28	5.08
621.402	2.08
621.524	8.08
621.646	13.08
621.768	-0.92
621.891	-11.92
622.013	22.08
622.135	12.08
622.257	2.08
622.379	8.08
622.501	19.08
622.623	10.08
622.745	12.08
622.868	14.08
622.99	12.08
623.112	11.08
623.234	2.08
623.356	14.08
623.478	5.08
623.6	6.08
623.722	5.08
623.845	8.08
623.967	8.08
624.089	25.08
624.211	12.08
624.333	28.08
624.455	10.08
624.577	13.08
624.699	32.08
624.822	23.08
624.944	22.08
625.066	8.08
625.188	9.08
625.31	13.08
625.432	26.08
625.554	5.08
625.676	34.08
625.799	9.08
625.921	13.08
626.043	15.08
626.165	9.08
626.287	0.08
626.409	20.08
626.531	12.08
626.653	9.08
626.775	21.08
626.898	6.08
627.02	7.08
627.142	22.08
627.264	20.08
627.386	-2.92
627.508	9.08
627.63	1.08
627.752	21.08
627.874	12.08
627.997	25.08
628.119	39.08
628.241	16.08
628.363	30.08
628.485	19.08
628.607	10.08
628.729	0.08
628.851	-1.92
628.973	8.08
629.096	5.08
629.218	21.08
629.34	15.08
629.462	5.08
629.584	-6.92
629.706	12.08
629.828	18.08
629.95	22.08
630.072	5.08
630.195	9.08
630.317	21.08
630.439	4.08
630.561	2.08
630.683	-1.92
630.805	28.08
630.927	22.08
631.049	16.08
631.171	-10.92
631.293	14.08
631.416	14.08
631.538	8.08
631.66	3.08
631.782	18.08
631.904	41.08
632.026	16.08
632.148	-1.92
632.27	1.08
632.392	24.08
632.514	13.08
632.637	21.08
632.759	-7.92
632.881	-3.92
633.003	-4.92
633.125	-1.92
633.247	1.08
633.369	18.08
633.491	6.08
633.613	26.08
633.735	-6.92
633.858	4.08
633.98	19.08
634.102	13.08
634.224	12.08
634.346	17.08
634.468	23.08
634.59	4.08
634.712	0.08
634.834	8.08
634.956	8.08
635.078	-6.92
635.201	8.08
635.323	-4.92
635.445	-3.92
635.567	-9.92
635.689	11.08
635.811	18.08
635.933	2.08
636.055	10.08
636.177	2.08
636.299	23.08
636.421	-6.92
636.544	7.08
636.666	30.08
636.788	15.08
636.91	29.08
637.032	8.08
637.154	17.08
637.276	51.08
637.398	28.08
637.52	24.08
637.642	9.08
637.764	13.08
637.887	10.08
638.009	10.08
638.131	1.08
638.253	5.08
638.375	24.08
638.497	1.08
638.619	-8.92
638.741	15.08
638.863	-4.92
638.985	4.08
639.107	-2.92
639.23	3.08
639.352	8.08
639.474	16.08
639.596	-1.92
639.718	21.08
639.84	12.08
639.962	20.08
640.084	13.08
640.206	24.08
640.328	-4.92
640.45	14.08
640.573	-11.92
640.695	-7.92
640.817	21.08
640.939	35.08
641.061	23.08
641.183	7.08
641.305	11.08
641.427	11.08
641.549	2.08
641.671	13.08
641.793	11.08
641.915	26.08
642.038	14.08
642.16	3.08
642.282	-1.92
642.404	6.08
642.526	23.08
642.648	22.08
642.77	10.08
642.892	4.08
643.014	25.08
643.136	28.08
643.258	15.08
643.381	24.08
643.503	22.08
643.625	-5.92
643.747	-6.92
643.869	10.08
643.991	21.08
644.113	1.08
644.235	2.08
644.357	12.08
644.479	22.08
644.601	-11.92
644.723	7.08
644.846	4.08
644.968	7.08
645.09	4.08
645.212	4.08
645.334	30.08
645.456	21.08
645.578	31.08
645.7	23.08
645.822	20.08
645.944	10.08
646.066	5.08
646.188	2.08
646.311	32.08
646.433	25.08
646.555	62.08
646.677	42.08
646.799	31.08
646.921	24.08
647.043	29.08
647.165	1.08
647.287	20.08
647.409	3.08
647.531	23.08
647.654	-6.92
647.776	14.08
647.898	17.08
648.02	-0.92
648.142	-2.92
648.264	10.08
648.386	8.08
648.508	5.08
648.63	6.08
648.752	21.08
648.874	-12.92
648.997	7.08
649.119	32.08
649.241	9.08
649.363	49.08
649.485	8.08
649.607	17.08
649.729	-10.92
649.851	10.08
649.973	31.08
650.095	15.08
650.217	6.08
650.34	8.08
650.462	29.08
650.584	25.08
650.706	20.08
650.828	22.08
650.95	6.08
651.072	31.08
651.194	2.08
651.316	15.08
651.438	25.08
651.56	-3.92
651.683	-6.92
651.805	16.08
651.927	3.08
652.049	19.08
652.171	22.08
652.293	21.08
652.415	4.08
652.537	8.08
652.659	5.08
652.781	18.08
652.903	27.08
653.026	40.08
653.148	12.08
653.27	22.08
653.392	37.08
653.514	-5.92
653.636	11.08
653.758	9.08
653.88	14.08
654.002	16.08
654.124	22.08
654.247	13.08
654.369	30.08
654.491	15.08
654.613	9.08
654.735	10.08
654.857	23.08
654.979	8.08
655.101	18.08
655.223	39.08
655.345	33.08
655.468	23.08
655.59	13.08
655.712	20.08
655.834	14.08
655.956	37.08
656.078	31.08
656.2	24.08
656.322	28.08
656.444	33.08
656.566	53.08
656.689	52.08
656.811	81.08
656.933	105.08
657.055	98.08
657.177	151.08
657.299	239.08
657.421	515.08
657.543	1847.08
657.665	12464.08
657.787	15172.08
657.91	15223.08
658.032	15667.08
658.154	4596.08
658.276	3035.08
658.398	1092.08
658.52	990.08
658.642	449.08
658.764	566.08
658.886	263.08
659.009	392.08
659.131	219.08
659.253	324.08
659.375	153.08
659.497	250.08
659.619	138.08
659.741	206.08
659.863	116.08
659.985	165.08
660.108	100.08
660.23	151.08
660.352	91.08
660.474	148.08
660.596	71.08
660.718	133.08
660.84	72.08
660.962	125.08
661.084	56.08
661.207	108.08
661.329	50.08
661.451	93.08
661.573	35.08
661.695	96.08
661.817	50.08
661.939	119.08
662.061	72.08
662.184	97.08
662.306	42.08
662.428	72.08
662.55	39.08
662.672	61.08
662.794	42.08
662.916	68.08
663.038	38.08
663.161	91.08
663.283	40.08
663.405	69.08
663.527	25.08
663.649	73.08
663.771	36.08
663.893	62.08
664.015	41.08
664.138	56.08
664.26	33.08
664.382	62.08
664.504	16.08
664.626	51.08
664.748	24.08
664.87	42.08
664.992	18.08
665.115	42.08
665.237	20.08
665.359	37.08
665.481	20.08
665.603	53.08
665.725	25.08
665.847	34.08
665.97	23.08
666.092	59.08
666.214	17.08
666.336	46.08
666.458	42.08
666.58	38.08
666.702	23.08
666.825	26.08
666.947	8.08
667.069	32.08
667.191	14.08
667.313	45.08
667.435	16.08
667.557	25.08
667.68	21.08
667.802	52.08
667.924	20.08
668.046	48.08
668.168	24.08
668.29	50.08
668.412	18.08
668.535	33.08
668.657	12.08
668.779	32.08
668.901	24.08
669.023	47.08
669.145	26.08
669.267	36.08
669.39	18.08
669.512	32.08
669.634	26.08
669.756	26.08
669.878	14.08
670	41.08
670.123	20.08
670.245	47.08
670.367	30.08
670.489	30.08
670.611	6.08
670.733	10.08
670.856	16.08
670.978	33.08
671.1	32.08
671.222	31.08
671.344	20.08
671.466	28.08
671.589	5.08
671.711	0.08
671.833	-10.92
671.955	26.08
672.077	13.08
672.199	59.08
672.322	36.08
672.444	37.08
672.566	42.08
672.688	40.08
672.81	35.08
672.932	42.08
673.055	9.08
673.177	10.08
673.299	26.08
673.421	24.08
673.543	21.08
673.665	38.08
673.788	35.08
673.91	26.08
674.032	11.08
674.154	7.08
674.276	24.08
674.399	6.08
674.521	17.08
674.643	4.08
674.765	9.08
674.887	26.08
675.009	21.08
675.132	25.08
675.254	10.08
675.376	5.08
675.498	17.08
675.62	38.08
675.743	13.08
675.865	41.08
675.987	-7.92
676.109	14.08
676.231	12.08
676.354	50.08
676.476	14.08
676.598	27.08
676.72	23.08
676.842	25.08
676.965	22.08
677.087	29.08
677.209	18.08
677.331	29.08
677.453	17.08
677.576	16.08
677.698	29.08
677.82	31.08
677.942	2.08
678.064	18.08
678.187	27.08
678.309	28.08
678.431	17.08
678.553	17.08
678.675	36.08
678.798	41.08
678.92	17.08
679.042	11.08
679.164	-5.92
679.286	24.08
679.409	25.08
679.531	8.08
679.653	21.08
679.775	16.08
679.898	4.08
680.02	-11.92
680.142	-1.92
680.264	23.08
680.386	24.08
680.509	23.08
680.631	7.08
680.753	20.08
680.875	9.08
680.998	19.08
681.12	13.08
681.242	32.08
681.364	-4.92
681.486	-6.92
681.609	2.08
681.731	22.08
681.853	1.08
681.975	7.08
682.098	12.08
682.22	38.08
682.342	11.08
682.464	31.08
682.587	15.08
682.709	13.08
682.831	5.08
682.953	9.08
683.076	11.08
683.198	35.08
683.32	12.08
683.442	11.08
683.565	20.08
683.687	14.08
683.809	18.08
683.931	10.08
684.054	29.08
684.176	25.08
684.298	15.08
684.42	20.08
684.543	12.08
684.665	20.08
684.787	14.08
684.909	-1.92
685.032	16.08
685.154	-2.92
685.276	14.08
685.398	30.08
685.521	-8.92
685.643	29.08
685.765	4.08
685.887	30.08
686.01	25.08
686.132	31.08
686.254	1.08
686.377	21.08
686.499	24.08
686.621	9.08
686.743	13.08
686.866	8.08
686.988	31.08
687.11	24.08
687.232	18.08
687.355	12.08
687.477	17.08
687.599	10.08
687.722	-4.92
687.844	9.08
687.966	11.08
688.088	24.08
688.211	46.08
688.333	21.08
688.455	17.08
688.578	20.08
688.7	41.08
688.822	26.08
688.944	-9.92
689.067	54.08
689.189	8.08
689.311	-1.92
689.434	10.08
689.556	36.08
689.678	28.08
689.801	2.08
689.923	14.08
690.045	28.08
690.167	17.08
690.29	36.08
690.412	13.08
690.534	31.08
690.657	21.08
690.779	-0.92
690.901	33.08
691.024	16.08
691.146	24.08
691.268	-4.92
691.391	13.08
691.513	32.08
691.635	23.08
691.758	44.08
691.88	32.08
692.002	10.08
692.125	27.08
692.247	16.08
692.369	11.08
692.492	7.08
692.614	16.08
692.736	9.08
692.859	3.08
692.981	16.08
693.103	-0.92
693.226	11.08
693.348	17.08
693.47	22.08
693.593	16.08
693.715	-6.92
693.837	0.08
693.96	12.08
694.082	14.08
694.204	26.08
694.327	38.08
694.449	-3.92
694.571	5.08
694.694	27.08
694.816	21.08
694.938	5.08
695.061	23.08
695.183	20.08
695.305	2.08
695.428	20.08
695.55	16.08
695.672	8.08
695.795	10.08
695.917	32.08
696.04	14.08
696.162	13.08
696.284	24.08
696.407	22.08
696.529	1.08
696.651	26.08
696.774	9.08
696.896	28.08
697.019	10.08
697.141	21.08
697.263	19.08
697.386	12.08
697.508	-5.92
697.63	14.08
697.753	7.08
697.875	9.08
697.998	9.08
698.12	21.08
698.242	14.08
698.365	11.08
698.487	7.08
698.61	27.08
698.732	14.08
698.854	22.08
698.977	12.08
699.099	22.08
699.221	4.08
699.344	12.08
699.466	14.08
699.589	20.08
699.711	21.08
699.834	20.08
699.956	12.08
700.078	21.08
700.201	-3.92
700.323	31.08
700.446	28.08
700.568	8.08
700.69	25.08
700.813	14.08
700.935	15.08
701.058	4.08
701.18	13.08
701.302	21.08
701.425	11.08
701.547	24.08
701.67	10.08
701.792	29.08
701.915	3.08
702.037	15.08
702.159	13.08
702.282	2.08
702.404	1.08
702.527	18.08
702.649	26.08
702.772	26.08
702.894	9.08
703.017	25.08
703.139	35.08
703.261	19.08
703.384	2.08
703.506	-2.92
703.629	21.08
703.751	9.08
703.874	-2.92
703.996	10.08
704.119	2.08
704.241	32.08
704.364	8.08
704.486	11.08
704.608	26.08
704.731	3.08
704.853	1.08
704.976	29.08
705.098	24.08
705.221	15.08
705.343	15.08
705.466	16.08
705.588	36.08
705.711	22.08
705.833	24.08
705.956	12.08
706.078	16.08
706.201	25.08
706.323	17.08
706.446	19.08
