Data from LowRes_H2_15_26_11_07_2024_HR4C61881__96__15-28-23-236.txt Node

Date: Thu Nov 07 15:28:23 EST 2024
User: crc00042
Spectrometer: HR4C6188
Trigger mode: 4
Integration Time (sec): 1.000000E-1
Scans to average: 1
Electric dark correction enabled: true
Nonlinearity correction enabled: false
Boxcar width: 0
XAxis mode: Wavelengths
Number of Pixels in Spectrum: 3648
>>>>>Begin Spectral Data<<<<<
245.66	-116.62
245.797	-116.62
245.934	-116.62
246.071	-88.62
246.208	3.38
246.344	-2.62
246.481	-1.62
246.618	-17.62
246.755	9.38
246.892	8.38
247.029	-0.62
247.165	-0.62
247.302	23.38
247.439	-10.62
247.576	8.38
247.713	-27.62
247.849	17.38
247.986	-5.62
248.123	-3.62
248.26	0.38
248.396	20.38
248.533	9.38
248.67	-5.62
248.806	8.38
248.943	9.38
249.08	16.38
249.216	11.38
249.353	-1.62
249.49	-3.62
249.626	14.38
249.763	21.38
249.9	-9.62
250.036	8.38
250.173	-15.62
250.309	-6.62
250.446	-2.62
250.582	-22.62
250.719	-21.62
250.856	-5.62
250.992	-6.62
251.129	-11.62
251.265	-10.62
251.402	-4.62
251.538	-13.62
251.675	3.38
251.811	17.38
251.948	8.38
252.084	-0.62
252.221	-4.62
252.357	1.38
252.493	14.38
252.63	2.38
252.766	4.38
252.903	-10.62
253.039	-6.62
253.175	-8.62
253.312	-13.62
253.448	-3.62
253.585	-6.62
253.721	18.38
253.857	-2.62
253.994	0.38
254.13	9.38
254.266	1.38
254.403	0.38
254.539	4.38
254.675	8.38
254.811	-3.62
254.948	-4.62
255.084	-11.62
255.22	-15.62
255.356	15.38
255.493	6.38
255.629	-13.62
255.765	20.38
255.901	1.38
256.037	1.38
256.174	1.38
256.31	2.38
256.446	12.38
256.582	0.38
256.718	25.38
256.854	34.38
256.991	13.38
257.127	18.38
257.263	-6.62
257.399	6.38
257.535	-5.62
257.671	-8.62
257.807	-19.62
257.943	-26.62
258.079	-12.62
258.215	-4.62
258.351	5.38
258.487	-5.62
258.623	29.38
258.759	-5.62
258.895	-8.62
259.031	-3.62
259.167	-8.62
259.303	0.38
259.439	-2.62
259.575	2.38
259.711	3.38
259.847	1.38
259.983	13.38
260.119	3.38
260.255	3.38
260.391	16.38
260.527	11.38
260.663	19.38
260.799	3.38
260.934	-15.62
261.07	5.38
261.206	-19.62
261.342	-4.62
261.478	7.38
261.614	8.38
261.749	13.38
261.885	-8.62
262.021	12.38
262.157	21.38
262.293	-4.62
262.428	-16.62
262.564	-0.62
262.7	9.38
262.836	-3.62
262.971	8.38
263.107	9.38
263.243	13.38
263.378	-6.62
263.514	-22.62
263.65	-19.62
263.785	-12.62
263.921	-8.62
264.057	0.38
264.192	5.38
264.328	16.38
264.464	-5.62
264.599	2.38
264.735	18.38
264.871	-15.62
265.006	22.38
265.142	4.38
265.277	3.38
265.413	11.38
265.548	19.38
265.684	25.38
265.819	13.38
265.955	-5.62
266.091	-13.62
266.226	11.38
266.362	-6.62
266.497	2.38
266.633	-3.62
266.768	11.38
266.903	9.38
267.039	7.38
267.174	25.38
267.31	7.38
267.445	-15.62
267.581	-6.62
267.716	6.38
267.851	3.38
267.987	13.38
268.122	21.38
268.258	-3.62
268.393	9.38
268.528	11.38
268.664	4.38
268.799	-1.62
268.934	20.38
269.07	10.38
269.205	2.38
269.34	19.38
269.476	3.38
269.611	-25.62
269.746	30.38
269.881	9.38
270.017	16.38
270.152	-1.62
270.287	8.38
270.422	6.38
270.558	-5.62
270.693	11.38
270.828	-6.62
270.963	6.38
271.098	-3.62
271.234	4.38
271.369	24.38
271.504	1.38
271.639	1.38
271.774	-10.62
271.909	16.38
272.045	-6.62
272.18	-17.62
272.315	-20.62
272.45	-7.62
272.585	-6.62
272.72	5.38
272.855	-10.62
272.99	16.38
273.125	-14.62
273.26	-20.62
273.395	-15.62
273.53	-12.62
273.665	9.38
273.8	-2.62
273.935	6.38
274.07	-0.62
274.205	11.38
274.34	-1.62
274.475	5.38
274.61	24.38
274.745	-11.62
274.88	9.38
275.015	-18.62
275.15	19.38
275.285	24.38
275.42	-12.62
275.555	1.38
275.69	1.38
275.825	7.38
275.959	13.38
276.094	-12.62
276.229	-7.62
276.364	7.38
276.499	-8.62
276.634	9.38
276.768	-0.62
276.903	4.38
277.038	19.38
277.173	1.38
277.308	9.38
277.442	3.38
277.577	1.38
277.712	-1.62
277.847	6.38
277.981	-0.62
278.116	-5.62
278.251	-3.62
278.386	-5.62
278.52	3.38
278.655	-4.62
278.79	7.38
278.924	-12.62
279.059	19.38
279.194	-16.62
279.328	27.38
279.463	4.38
279.598	14.38
279.732	15.38
279.867	8.38
280.001	12.38
280.136	16.38
280.271	23.38
280.405	8.38
280.54	21.38
280.674	-3.62
280.809	35.38
280.943	11.38
281.078	11.38
281.213	13.38
281.347	3.38
281.482	7.38
281.616	2.38
281.751	13.38
281.885	-15.62
282.02	-15.62
282.154	24.38
282.288	-4.62
282.423	-1.62
282.557	-13.62
282.692	5.38
282.826	-14.62
282.961	8.38
283.095	-0.62
283.229	-7.62
283.364	-18.62
283.498	2.38
283.633	20.38
283.767	3.38
283.901	6.38
284.036	4.38
284.17	-15.62
284.304	-13.62
284.439	-15.62
284.573	4.38
284.707	-14.62
284.842	-5.62
284.976	10.38
285.11	-6.62
285.244	-0.62
285.379	22.38
285.513	2.38
285.647	9.38
285.781	-2.62
285.916	19.38
286.05	10.38
286.184	28.38
286.318	20.38
286.453	-5.62
286.587	-12.62
286.721	-13.62
286.855	15.38
286.989	-1.62
287.123	1.38
287.258	6.38
287.392	-2.62
287.526	6.38
287.66	-4.62
287.794	4.38
287.928	-0.62
288.062	10.38
288.196	-4.62
288.33	-8.62
288.464	0.38
288.598	10.38
288.733	1.38
288.867	14.38
289.001	15.38
289.135	5.38
289.269	-8.62
289.403	7.38
289.537	11.38
289.671	8.38
289.805	-5.62
289.939	2.38
290.073	11.38
290.207	11.38
290.34	-12.62
290.474	9.38
290.608	12.38
290.742	12.38
290.876	-5.62
291.01	-0.62
291.144	18.38
291.278	11.38
291.412	-13.62
291.546	-6.62
291.679	-15.62
291.813	8.38
291.947	10.38
292.081	-3.62
292.215	0.38
292.349	19.38
292.482	6.38
292.616	0.38
292.75	5.38
292.884	19.38
293.018	6.38
293.151	-21.62
293.285	-4.62
293.419	-7.62
293.553	-22.62
293.686	1.38
293.82	-9.62
293.954	12.38
294.088	13.38
294.221	-6.62
294.355	1.38
294.489	16.38
294.622	-18.62
294.756	10.38
294.89	10.38
295.023	-11.62
295.157	7.38
295.291	4.38
295.424	5.38
295.558	-2.62
295.691	10.38
295.825	11.38
295.959	2.38
296.092	0.38
296.226	8.38
296.359	5.38
296.493	2.38
296.627	-9.62
296.76	-3.62
296.894	-0.62
297.027	-7.62
297.161	5.38
297.294	-16.62
297.428	-6.62
297.561	12.38
297.695	-19.62
297.828	-9.62
297.962	11.38
298.095	-10.62
298.229	-0.62
298.362	6.38
298.495	-3.62
298.629	-26.62
298.762	2.38
298.896	19.38
299.029	-13.62
299.162	-5.62
299.296	7.38
299.429	-3.62
299.563	3.38
299.696	5.38
299.829	2.38
299.963	6.38
300.096	4.38
300.229	9.38
300.363	-5.62
300.496	-12.62
300.629	-15.62
300.763	-17.62
300.896	-4.62
301.029	1.38
301.162	-0.62
301.296	-16.62
301.429	-2.62
301.562	-32.62
301.695	21.38
301.829	7.38
301.962	13.38
302.095	2.38
302.228	-4.62
302.362	5.38
302.495	-12.62
302.628	-14.62
302.761	-3.62
302.894	-2.62
303.027	20.38
303.161	-1.62
303.294	4.38
303.427	-7.62
303.56	-0.62
303.693	-29.62
303.826	-6.62
303.959	8.38
304.092	8.38
304.225	-8.62
304.359	4.38
304.492	10.38
304.625	-1.62
304.758	8.38
304.891	-8.62
305.024	-14.62
305.157	-5.62
305.29	-5.62
305.423	-7.62
305.556	-10.62
305.689	37.38
305.822	-8.62
305.955	-4.62
306.088	-5.62
306.221	-5.62
306.354	-10.62
306.487	-13.62
306.62	-22.62
306.752	4.38
306.885	-0.62
307.018	4.38
307.151	-9.62
307.284	18.38
307.417	-19.62
307.55	20.38
307.683	7.38
307.816	13.38
307.948	12.38
308.081	23.38
308.214	9.38
308.347	17.38
308.48	1.38
308.613	-4.62
308.745	-7.62
308.878	4.38
309.011	-8.62
309.144	1.38
309.277	12.38
309.409	17.38
309.542	-10.62
309.675	13.38
309.808	4.38
309.94	29.38
310.073	-1.62
310.206	-2.62
310.339	20.38
310.471	-3.62
310.604	2.38
310.737	-4.62
310.869	-5.62
311.002	-14.62
311.135	-15.62
311.267	-24.62
311.4	-5.62
311.533	6.38
311.665	-3.62
311.798	2.38
311.93	-3.62
312.063	16.38
312.196	6.38
312.328	-1.62
312.461	-23.62
312.593	-0.62
312.726	-0.62
312.859	10.38
312.991	11.38
313.124	-20.62
313.256	-7.62
313.389	0.38
313.521	-6.62
313.654	5.38
313.786	-19.62
313.919	-8.62
314.051	20.38
314.184	10.38
314.316	-6.62
314.449	-4.62
314.581	10.38
314.714	-11.62
314.846	-4.62
314.978	-3.62
315.111	-12.62
315.243	-6.62
315.376	-6.62
315.508	-1.62
315.641	-6.62
315.773	20.38
315.905	15.38
316.038	4.38
316.17	5.38
316.302	3.38
316.435	12.38
316.567	-1.62
316.699	36.38
316.832	-17.62
316.964	4.38
317.096	3.38
317.229	-16.62
317.361	-35.62
317.493	0.38
317.625	1.38
317.758	-0.62
317.89	23.38
318.022	-3.62
318.155	-14.62
318.287	11.38
318.419	3.38
318.551	4.38
318.683	10.38
318.816	-11.62
318.948	-5.62
319.08	-6.62
319.212	16.38
319.344	25.38
319.477	0.38
319.609	13.38
319.741	15.38
319.873	-25.62
320.005	-1.62
320.137	13.38
320.269	10.38
320.401	4.38
320.534	5.38
320.666	-6.62
320.798	-4.62
320.93	-5.62
321.062	-19.62
321.194	4.38
321.326	24.38
321.458	9.38
321.59	-7.62
321.722	-2.62
321.854	1.38
321.986	13.38
322.118	7.38
322.25	2.38
322.382	3.38
322.514	6.38
322.646	-5.62
322.778	14.38
322.91	-16.62
323.042	-8.62
323.174	7.38
323.306	-11.62
323.438	-13.62
323.57	2.38
323.702	-3.62
323.834	-13.62
323.966	-18.62
324.097	14.38
324.229	19.38
324.361	20.38
324.493	-5.62
324.625	3.38
324.757	4.38
324.889	4.38
325.021	26.38
325.152	8.38
325.284	15.38
325.416	-20.62
325.548	6.38
325.68	-7.62
325.811	20.38
325.943	1.38
326.075	-17.62
326.207	5.38
326.339	9.38
326.47	10.38
326.602	6.38
326.734	8.38
326.866	15.38
326.997	-8.62
327.129	-8.62
327.261	-19.62
327.392	-18.62
327.524	-15.62
327.656	4.38
327.787	10.38
327.919	0.38
328.051	16.38
328.182	29.38
328.314	24.38
328.446	2.38
328.577	27.38
328.709	15.38
328.841	-9.62
328.972	-24.62
329.104	-3.62
329.235	4.38
329.367	-11.62
329.499	9.38
329.63	18.38
329.762	0.38
329.893	25.38
330.025	4.38
330.156	-19.62
330.288	3.38
330.419	8.38
330.551	-15.62
330.683	-10.62
330.814	1.38
330.946	-6.62
331.077	-1.62
331.208	-19.62
331.34	-4.62
331.471	-6.62
331.603	8.38
331.734	-9.62
331.866	4.38
331.997	-3.62
332.129	3.38
332.26	-6.62
332.392	10.38
332.523	2.38
332.654	-0.62
332.786	-13.62
332.917	-5.62
333.048	10.38
333.18	15.38
333.311	1.38
333.443	13.38
333.574	1.38
333.705	4.38
333.837	-12.62
333.968	10.38
334.099	12.38
334.231	-1.62
334.362	-19.62
334.493	12.38
334.624	-0.62
334.756	9.38
334.887	9.38
335.018	20.38
335.15	13.38
335.281	3.38
335.412	19.38
335.543	8.38
335.675	9.38
335.806	15.38
335.937	9.38
336.068	19.38
336.199	33.38
336.331	-7.62
336.462	-0.62
336.593	3.38
336.724	-17.62
336.855	1.38
336.986	18.38
337.118	6.38
337.249	10.38
337.38	2.38
337.511	4.38
337.642	-0.62
337.773	-5.62
337.904	11.38
338.035	15.38
338.166	0.38
338.298	12.38
338.429	5.38
338.56	36.38
338.691	15.38
338.822	9.38
338.953	12.38
339.084	13.38
339.215	15.38
339.346	-5.62
339.477	3.38
339.608	10.38
339.739	4.38
339.87	-2.62
340.001	-18.62
340.132	-0.62
340.263	-3.62
340.394	21.38
340.525	21.38
340.656	-3.62
340.787	-13.62
340.918	3.38
341.049	21.38
341.179	11.38
341.31	29.38
341.441	29.38
341.572	10.38
341.703	-5.62
341.834	-11.62
341.965	1.38
342.096	-4.62
342.227	8.38
342.357	2.38
342.488	1.38
342.619	12.38
342.75	2.38
342.881	-8.62
343.012	28.38
343.142	33.38
343.273	2.38
343.404	6.38
343.535	23.38
343.666	23.38
343.796	15.38
343.927	15.38
344.058	10.38
344.189	-1.62
344.319	16.38
344.45	12.38
344.581	5.38
344.712	-13.62
344.842	-3.62
344.973	-13.62
345.104	2.38
345.234	3.38
345.365	-20.62
345.496	-1.62
345.626	-4.62
345.757	-2.62
345.888	-20.62
346.018	9.38
346.149	1.38
346.28	10.38
346.41	-2.62
346.541	13.38
346.672	2.38
346.802	10.38
346.933	6.38
347.063	-1.62
347.194	0.38
347.325	5.38
347.455	34.38
347.586	-12.62
347.716	-17.62
347.847	3.38
347.977	8.38
348.108	20.38
348.238	2.38
348.369	8.38
348.499	5.38
348.63	-4.62
348.76	1.38
348.891	-0.62
349.021	18.38
349.152	9.38
349.282	8.38
349.413	0.38
349.543	24.38
349.674	18.38
349.804	32.38
349.935	10.38
350.065	-0.62
350.196	-8.62
350.326	2.38
350.456	6.38
350.587	19.38
350.717	0.38
350.848	-8.62
350.978	22.38
351.108	-0.62
351.239	20.38
351.369	0.38
351.499	2.38
351.63	-0.62
351.76	-4.62
351.89	-1.62
352.021	17.38
352.151	3.38
352.281	22.38
352.412	23.38
352.542	24.38
352.672	-6.62
352.803	-9.62
352.933	-2.62
353.063	-6.62
353.193	-4.62
353.324	8.38
353.454	14.38
353.584	21.38
353.714	-13.62
353.845	23.38
353.975	1.38
354.105	3.38
354.235	2.38
354.365	6.38
354.496	6.38
354.626	11.38
354.756	2.38
354.886	-13.62
355.016	13.38
355.146	1.38
355.277	-0.62
355.407	-1.62
355.537	-2.62
355.667	-0.62
355.797	3.38
355.927	20.38
356.057	10.38
356.187	31.38
356.318	9.38
356.448	6.38
356.578	6.38
356.708	12.38
356.838	16.38
356.968	0.38
357.098	-10.62
357.228	5.38
357.358	-31.62
357.488	-6.62
357.618	46.38
357.748	1.38
357.878	8.38
358.008	1.38
358.138	-5.62
358.268	-8.62
358.398	11.38
358.528	-10.62
358.658	11.38
358.788	15.38
358.918	10.38
359.048	3.38
359.178	7.38
359.308	-13.62
359.438	5.38
359.568	28.38
359.698	0.38
359.827	3.38
359.957	4.38
360.087	10.38
360.217	-7.62
360.347	18.38
360.477	12.38
360.607	-7.62
360.737	8.38
360.866	14.38
360.996	-3.62
361.126	-8.62
361.256	28.38
361.386	20.38
361.516	2.38
361.645	-4.62
361.775	16.38
361.905	-17.62
362.035	-1.62
362.165	4.38
362.294	1.38
362.424	6.38
362.554	9.38
362.684	-15.62
362.813	-12.62
362.943	11.38
363.073	9.38
363.203	-14.62
363.332	4.38
363.462	-6.62
363.592	-1.62
363.721	-14.62
363.851	4.38
363.981	18.38
364.111	2.38
364.24	-11.62
364.37	4.38
364.5	30.38
364.629	-0.62
364.759	-12.62
364.888	-16.62
365.018	10.38
365.148	-3.62
365.277	3.38
365.407	6.38
365.537	16.38
365.666	17.38
365.796	2.38
365.925	0.38
366.055	19.38
366.184	4.38
366.314	2.38
366.444	15.38
366.573	6.38
366.703	7.38
366.832	-1.62
366.962	-0.62
367.091	9.38
367.221	8.38
367.35	-0.62
367.48	38.38
367.609	-3.62
367.739	-7.62
367.868	-0.62
367.998	-20.62
368.127	30.38
368.257	19.38
368.386	20.38
368.516	12.38
368.645	23.38
368.775	20.38
368.904	14.38
369.033	-7.62
369.163	9.38
369.292	30.38
369.422	5.38
369.551	2.38
369.68	0.38
369.81	8.38
369.939	-1.62
370.069	26.38
370.198	14.38
370.327	-18.62
370.457	-2.62
370.586	-3.62
370.715	-2.62
370.845	-2.62
370.974	8.38
371.103	24.38
371.233	-11.62
371.362	9.38
371.491	-9.62
371.621	18.38
371.75	21.38
371.879	-12.62
372.008	2.38
372.138	6.38
372.267	3.38
372.396	-9.62
372.525	3.38
372.655	-16.62
372.784	-0.62
372.913	-21.62
373.042	26.38
373.172	15.38
373.301	-14.62
373.43	-21.62
373.559	-10.62
373.688	-4.62
373.818	19.38
373.947	7.38
374.076	8.38
374.205	1.38
374.334	-3.62
374.463	-24.62
374.593	8.38
374.722	20.38
374.851	18.38
374.98	16.38
375.109	3.38
375.238	20.38
375.367	33.38
375.496	-8.62
375.625	-7.62
375.755	29.38
375.884	35.38
376.013	12.38
376.142	-9.62
376.271	12.38
376.4	19.38
376.529	-3.62
376.658	24.38
376.787	2.38
376.916	11.38
377.045	3.38
377.174	6.38
377.303	5.38
377.432	29.38
377.561	21.38
377.69	-17.62
377.819	22.38
377.948	4.38
378.077	-11.62
378.206	1.38
378.335	-0.62
378.464	21.38
378.593	30.38
378.722	9.38
378.851	0.38
378.98	27.38
379.108	-10.62
379.237	-17.62
379.366	21.38
379.495	21.38
379.624	-0.62
379.753	-1.62
379.882	2.38
380.011	6.38
380.14	-17.62
380.268	7.38
380.397	-0.62
380.526	18.38
380.655	-4.62
380.784	-9.62
380.913	-7.62
381.041	12.38
381.17	-24.62
381.299	-1.62
381.428	13.38
381.557	17.38
381.685	-0.62
381.814	18.38
381.943	-6.62
382.072	1.38
382.2	-0.62
382.329	5.38
382.458	17.38
382.587	14.38
382.715	17.38
382.844	2.38
382.973	7.38
383.102	4.38
383.23	-7.62
383.359	-16.62
383.488	7.38
383.616	-3.62
383.745	-11.62
383.874	6.38
384.003	10.38
384.131	-6.62
384.26	-2.62
384.389	16.38
384.517	9.38
384.646	-13.62
384.774	1.38
384.903	23.38
385.032	24.38
385.16	6.38
385.289	6.38
385.418	21.38
385.546	3.38
385.675	24.38
385.803	27.38
385.932	17.38
386.06	-5.62
386.189	5.38
386.318	3.38
386.446	-5.62
386.575	16.38
386.703	4.38
386.832	8.38
386.96	-13.62
387.089	28.38
387.217	5.38
387.346	1.38
387.474	-0.62
387.603	11.38
387.731	9.38
387.86	9.38
387.988	-0.62
388.117	17.38
388.245	12.38
388.374	-8.62
388.502	12.38
388.631	6.38
388.759	-3.62
388.888	-11.62
389.016	0.38
389.144	-1.62
389.273	-2.62
389.401	-9.62
389.53	-16.62
389.658	9.38
389.786	-0.62
389.915	-23.62
390.043	-8.62
390.172	3.38
390.3	17.38
390.428	3.38
390.557	0.38
390.685	28.38
390.813	20.38
390.942	11.38
391.07	14.38
391.198	-3.62
391.327	-2.62
391.455	-6.62
391.583	7.38
391.712	8.38
391.84	-2.62
391.968	-2.62
392.096	-8.62
392.225	-4.62
392.353	5.38
392.481	4.38
392.609	23.38
392.738	7.38
392.866	10.38
392.994	8.38
393.122	30.38
393.251	-10.62
393.379	-19.62
393.507	-27.62
393.635	-12.62
393.764	-0.62
393.892	11.38
394.02	-0.62
394.148	-3.62
394.276	16.38
394.404	34.38
394.533	28.38
394.661	25.38
394.789	16.38
394.917	13.38
395.045	-1.62
395.173	-4.62
395.302	-1.62
395.43	7.38
395.558	32.38
395.686	27.38
395.814	16.38
395.942	-11.62
396.07	5.38
396.198	6.38
396.326	8.38
396.454	19.38
396.582	9.38
396.711	6.38
396.839	19.38
396.967	-1.62
397.095	4.38
397.223	22.38
397.351	14.38
397.479	26.38
397.607	3.38
397.735	16.38
397.863	5.38
397.991	7.38
398.119	-8.62
398.247	4.38
398.375	4.38
398.503	19.38
398.631	24.38
398.759	-0.62
398.887	4.38
399.015	5.38
399.143	15.38
399.271	15.38
399.399	-4.62
399.526	16.38
399.654	-0.62
399.782	-13.62
399.91	4.38
400.038	17.38
400.166	-0.62
400.294	30.38
400.422	-1.62
400.55	23.38
400.678	2.38
400.805	4.38
400.933	-2.62
401.061	31.38
401.189	13.38
401.317	15.38
401.445	15.38
401.573	7.38
401.7	4.38
401.828	-12.62
401.956	16.38
402.084	27.38
402.212	26.38
402.34	9.38
402.467	5.38
402.595	27.38
402.723	8.38
402.851	35.38
402.978	-14.62
403.106	6.38
403.234	-5.62
403.362	39.38
403.489	12.38
403.617	-1.62
403.745	-8.62
403.873	-11.62
404	20.38
404.128	6.38
404.256	8.38
404.384	23.38
404.511	3.38
404.639	-6.62
404.767	9.38
404.894	9.38
405.022	3.38
405.15	15.38
405.277	3.38
405.405	-1.62
405.533	-17.62
405.66	-13.62
405.788	2.38
405.916	-17.62
406.043	-19.62
406.171	5.38
406.299	26.38
406.426	20.38
406.554	7.38
406.681	29.38
406.809	-2.62
406.937	13.38
407.064	-6.62
407.192	16.38
407.319	0.38
407.447	-4.62
407.574	19.38
407.702	-0.62
407.83	-8.62
407.957	-9.62
408.085	0.38
408.212	14.38
408.34	5.38
408.467	23.38
408.595	9.38
408.722	28.38
408.85	25.38
408.977	-1.62
409.105	5.38
409.232	4.38
409.36	3.38
409.487	14.38
409.615	10.38
409.742	25.38
409.87	35.38
409.997	31.38
410.125	37.38
410.252	54.38
410.379	60.38
410.507	39.38
410.634	8.38
410.762	-4.62
410.889	12.38
411.017	10.38
411.144	18.38
411.271	7.38
411.399	5.38
411.526	24.38
411.653	15.38
411.781	20.38
411.908	10.38
412.036	0.38
412.163	26.38
412.29	20.38
412.418	7.38
412.545	12.38
412.672	-2.62
412.8	37.38
412.927	11.38
413.054	16.38
413.182	21.38
413.309	17.38
413.436	-19.62
413.564	-4.62
413.691	8.38
413.818	21.38
413.945	2.38
414.073	-5.62
414.2	6.38
414.327	12.38
414.454	19.38
414.582	-8.62
414.709	-21.62
414.836	-0.62
414.963	0.38
415.091	-8.62
415.218	17.38
415.345	2.38
415.472	-12.62
415.6	-17.62
415.727	7.38
415.854	0.38
415.981	9.38
416.108	-1.62
416.236	4.38
416.363	10.38
416.49	-7.62
416.617	6.38
416.744	19.38
416.871	12.38
416.998	6.38
417.126	-2.62
417.253	-12.62
417.38	7.38
417.507	3.38
417.634	13.38
417.761	16.38
417.888	23.38
418.015	18.38
418.143	24.38
418.27	23.38
418.397	12.38
418.524	13.38
418.651	-3.62
418.778	4.38
418.905	35.38
419.032	12.38
419.159	24.38
419.286	34.38
419.413	17.38
419.54	28.38
419.667	-0.62
419.794	1.38
419.921	10.38
420.048	28.38
420.175	18.38
420.302	6.38
420.429	7.38
420.556	5.38
420.683	-4.62
420.81	-1.62
420.937	18.38
421.064	20.38
421.191	5.38
421.318	31.38
421.445	27.38
421.572	-1.62
421.699	23.38
421.826	25.38
421.953	11.38
422.08	6.38
422.207	3.38
422.334	6.38
422.461	25.38
422.588	4.38
422.714	27.38
422.841	29.38
422.968	31.38
423.095	-6.62
423.222	-9.62
423.349	19.38
423.476	32.38
423.603	-1.62
423.729	12.38
423.856	19.38
423.983	19.38
424.11	-3.62
424.237	23.38
424.364	-1.62
424.491	21.38
424.617	-16.62
424.744	-4.62
424.871	7.38
424.998	1.38
425.125	-10.62
425.251	6.38
425.378	-17.62
425.505	12.38
425.632	9.38
425.758	18.38
425.885	24.38
426.012	16.38
426.139	23.38
426.266	-1.62
426.392	11.38
426.519	19.38
426.646	16.38
426.772	30.38
426.899	0.38
427.026	14.38
427.153	11.38
427.279	41.38
427.406	32.38
427.533	11.38
427.659	0.38
427.786	-12.62
427.913	27.38
428.039	7.38
428.166	-9.62
428.293	-11.62
428.419	15.38
428.546	-2.62
428.673	-1.62
428.799	-16.62
428.926	11.38
429.053	28.38
429.179	19.38
429.306	8.38
429.433	21.38
429.559	11.38
429.686	-3.62
429.812	5.38
429.939	-6.62
430.066	-3.62
430.192	-17.62
430.319	18.38
430.445	11.38
430.572	3.38
430.699	-21.62
430.825	-4.62
430.952	0.38
431.078	0.38
431.205	12.38
431.331	3.38
431.458	30.38
431.584	27.38
431.711	8.38
431.837	-2.62
431.964	9.38
432.09	15.38
432.217	-7.62
432.343	-3.62
432.47	12.38
432.596	8.38
432.723	1.38
432.849	9.38
432.976	4.38
433.102	4.38
433.229	1.38
433.355	41.38
433.482	71.38
433.608	150.38
433.735	144.38
433.861	124.38
433.987	165.38
434.114	233.38
434.24	205.38
434.367	65.38
434.493	10.38
434.62	33.38
434.746	15.38
434.872	6.38
434.999	11.38
435.125	21.38
435.252	0.38
435.378	8.38
435.504	12.38
435.631	8.38
435.757	18.38
435.883	10.38
436.01	7.38
436.136	-5.62
436.262	21.38
436.389	19.38
436.515	10.38
436.641	18.38
436.768	15.38
436.894	6.38
437.02	10.38
437.147	24.38
437.273	9.38
437.399	4.38
437.526	18.38
437.652	5.38
437.778	2.38
437.904	1.38
438.031	2.38
438.157	4.38
438.283	21.38
438.409	-7.62
438.536	-8.62
438.662	16.38
438.788	-1.62
438.914	14.38
439.041	18.38
439.167	29.38
439.293	23.38
439.419	3.38
439.546	-7.62
439.672	-1.62
439.798	13.38
439.924	13.38
440.05	24.38
440.177	10.38
440.303	8.38
440.429	-1.62
440.555	14.38
440.681	13.38
440.807	9.38
440.934	11.38
441.06	6.38
441.186	1.38
441.312	0.38
441.438	22.38
441.564	31.38
441.69	19.38
441.816	6.38
441.943	16.38
442.069	-1.62
442.195	0.38
442.321	-1.62
442.447	13.38
442.573	13.38
442.699	4.38
442.825	-21.62
442.951	17.38
443.077	26.38
443.203	16.38
443.33	-0.62
443.456	-19.62
443.582	10.38
443.708	13.38
443.834	19.38
443.96	16.38
444.086	10.38
444.212	29.38
444.338	14.38
444.464	24.38
444.59	20.38
444.716	19.38
444.842	10.38
444.968	-8.62
445.094	12.38
445.22	23.38
445.346	10.38
445.472	7.38
445.598	11.38
445.724	-1.62
445.85	12.38
445.976	18.38
446.102	18.38
446.228	36.38
446.354	26.38
446.48	-20.62
446.605	2.38
446.731	15.38
446.857	-3.62
446.983	10.38
447.109	14.38
447.235	1.38
447.361	-2.62
447.487	15.38
447.613	-8.62
447.739	-1.62
447.865	-15.62
447.99	8.38
448.116	4.38
448.242	13.38
448.368	5.38
448.494	-14.62
448.62	-3.62
448.746	11.38
448.872	2.38
448.997	-11.62
449.123	7.38
449.249	15.38
449.375	10.38
449.501	-5.62
449.627	-1.62
449.752	23.38
449.878	-8.62
450.004	-12.62
450.13	22.38
450.256	10.38
450.381	-0.62
450.507	12.38
450.633	25.38
450.759	42.38
450.884	11.38
451.01	30.38
451.136	-13.62
451.262	21.38
451.388	1.38
451.513	-13.62
451.639	11.38
451.765	4.38
451.89	10.38
452.016	-8.62
452.142	3.38
452.268	26.38
452.393	-5.62
452.519	-12.62
452.645	17.38
452.771	2.38
452.896	-10.62
453.022	9.38
453.148	35.38
453.273	10.38
453.399	-1.62
453.525	-8.62
453.65	-24.62
453.776	-9.62
453.902	15.38
454.027	15.38
454.153	27.38
454.279	4.38
454.404	-11.62
454.53	36.38
454.656	34.38
454.781	-2.62
454.907	-0.62
455.032	-5.62
455.158	26.38
455.284	20.38
455.409	23.38
455.535	30.38
455.66	7.38
455.786	36.38
455.912	24.38
456.037	-12.62
456.163	3.38
456.288	22.38
456.414	-8.62
456.539	1.38
456.665	12.38
456.791	19.38
456.916	-6.62
457.042	5.38
457.167	5.38
457.293	18.38
457.418	9.38
457.544	7.38
457.669	11.38
457.795	7.38
457.92	11.38
458.046	6.38
458.171	21.38
458.297	-6.62
458.422	-5.62
458.548	3.38
458.673	9.38
458.799	9.38
458.924	-9.62
459.05	-2.62
459.175	-1.62
459.301	10.38
459.426	13.38
459.552	8.38
459.677	4.38
459.803	6.38
459.928	7.38
460.053	4.38
460.179	15.38
460.304	3.38
460.43	3.38
460.555	0.38
460.681	3.38
460.806	11.38
460.931	5.38
461.057	14.38
461.182	10.38
461.308	21.38
461.433	20.38
461.558	2.38
461.684	12.38
461.809	25.38
461.934	17.38
462.06	30.38
462.185	9.38
462.311	-4.62
462.436	16.38
462.561	18.38
462.687	7.38
462.812	29.38
462.937	2.38
463.063	-10.62
463.188	-4.62
463.313	14.38
463.439	22.38
463.564	6.38
463.689	0.38
463.814	8.38
463.94	-3.62
464.065	18.38
464.19	12.38
464.316	-18.62
464.441	-16.62
464.566	-11.62
464.692	6.38
464.817	5.38
464.942	-4.62
465.067	20.38
465.193	-13.62
465.318	-4.62
465.443	1.38
465.568	4.38
465.694	-6.62
465.819	23.38
465.944	5.38
466.069	6.38
466.194	7.38
466.32	6.38
466.445	-6.62
466.57	-1.62
466.695	-3.62
466.82	12.38
466.946	18.38
467.071	18.38
467.196	10.38
467.321	32.38
467.446	-3.62
467.572	9.38
467.697	-5.62
467.822	6.38
467.947	9.38
468.072	1.38
468.197	-4.62
468.323	-18.62
468.448	3.38
468.573	7.38
468.698	15.38
468.823	22.38
468.948	16.38
469.073	11.38
469.198	20.38
469.324	18.38
469.449	-7.62
469.574	35.38
469.699	20.38
469.824	9.38
469.949	6.38
470.074	3.38
470.199	38.38
470.324	10.38
470.449	41.38
470.574	9.38
470.7	17.38
470.825	31.38
470.95	39.38
471.075	-9.62
471.2	1.38
471.325	11.38
471.45	-10.62
471.575	-1.62
471.7	21.38
471.825	-0.62
471.95	-0.62
472.075	1.38
472.2	-3.62
472.325	-5.62
472.45	0.38
472.575	7.38
472.7	-0.62
472.825	16.38
472.95	17.38
473.075	0.38
473.2	2.38
473.325	21.38
473.45	7.38
473.575	-3.62
473.7	-6.62
473.825	11.38
473.95	22.38
474.075	25.38
474.2	8.38
474.325	8.38
474.45	38.38
474.574	15.38
474.699	17.38
474.824	22.38
474.949	-1.62
475.074	9.38
475.199	29.38
475.324	15.38
475.449	-3.62
475.574	10.38
475.699	27.38
475.824	12.38
475.949	4.38
476.073	-1.62
476.198	26.38
476.323	12.38
476.448	0.38
476.573	0.38
476.698	23.38
476.823	17.38
476.947	22.38
477.072	25.38
477.197	19.38
477.322	-8.62
477.447	-8.62
477.572	24.38
477.697	15.38
477.821	16.38
477.946	23.38
478.071	14.38
478.196	26.38
478.321	20.38
478.445	12.38
478.57	24.38
478.695	6.38
478.82	13.38
478.945	11.38
479.069	6.38
479.194	0.38
479.319	21.38
479.444	23.38
479.569	8.38
479.693	31.38
479.818	13.38
479.943	30.38
480.068	25.38
480.192	22.38
480.317	16.38
480.442	14.38
480.567	4.38
480.691	-7.62
480.816	0.38
480.941	5.38
481.066	17.38
481.19	27.38
481.315	7.38
481.44	11.38
481.564	12.38
481.689	24.38
481.814	25.38
481.938	15.38
482.063	3.38
482.188	31.38
482.313	34.38
482.437	25.38
482.562	32.38
482.687	39.38
482.811	24.38
482.936	12.38
483.061	9.38
483.185	16.38
483.31	31.38
483.435	22.38
483.559	15.38
483.684	25.38
483.808	35.38
483.933	21.38
484.058	17.38
484.182	24.38
484.307	13.38
484.432	7.38
484.556	13.38
484.681	2.38
484.805	5.38
484.93	27.38
485.055	46.38
485.179	85.38
485.304	96.38
485.428	358.38
485.553	1276.38
485.678	1787.38
485.802	1701.38
485.927	1871.38
486.051	2760.38
486.176	1718.38
486.3	464.38
486.425	158.38
486.549	79.38
486.674	53.38
486.799	44.38
486.923	22.38
487.048	27.38
487.172	23.38
487.297	19.38
487.421	22.38
487.546	30.38
487.67	30.38
487.795	-1.62
487.919	24.38
488.044	11.38
488.168	42.38
488.293	14.38
488.417	14.38
488.542	25.38
488.666	24.38
488.791	14.38
488.915	6.38
489.04	19.38
489.164	24.38
489.289	32.38
489.413	9.38
489.538	20.38
489.662	20.38
489.786	-1.62
489.911	12.38
490.035	7.38
490.16	-5.62
490.284	3.38
490.409	-14.62
490.533	12.38
490.658	25.38
490.782	7.38
490.906	8.38
491.031	13.38
491.155	20.38
491.28	23.38
491.404	30.38
491.528	27.38
491.653	17.38
491.777	30.38
491.902	-7.62
492.026	6.38
492.15	18.38
492.275	27.38
492.399	23.38
492.524	12.38
492.648	46.38
492.772	23.38
492.897	37.38
493.021	8.38
493.145	29.38
493.27	30.38
493.394	18.38
493.518	2.38
493.643	1.38
493.767	10.38
493.891	13.38
494.016	19.38
494.14	15.38
494.264	15.38
494.389	41.38
494.513	13.38
494.637	5.38
494.762	23.38
494.886	27.38
495.01	16.38
495.134	26.38
495.259	26.38
495.383	25.38
495.507	8.38
495.632	37.38
495.756	28.38
495.88	23.38
496.004	8.38
496.129	12.38
496.253	18.38
496.377	39.38
496.501	22.38
496.626	-3.62
496.75	33.38
496.874	17.38
496.998	18.38
497.123	23.38
497.247	-1.62
497.371	10.38
497.495	21.38
497.62	25.38
497.744	-0.62
497.868	8.38
497.992	12.38
498.116	0.38
498.241	16.38
498.365	-15.62
498.489	8.38
498.613	18.38
498.737	22.38
498.862	19.38
498.986	8.38
499.11	-5.62
499.234	25.38
499.358	1.38
499.482	8.38
499.607	26.38
499.731	25.38
499.855	20.38
499.979	11.38
500.103	12.38
500.227	24.38
500.351	12.38
500.476	15.38
500.6	-8.62
500.724	11.38
500.848	5.38
500.972	7.38
501.096	28.38
501.22	34.38
501.344	1.38
501.469	-0.62
501.593	28.38
501.717	17.38
501.841	13.38
501.965	14.38
502.089	10.38
502.213	8.38
502.337	3.38
502.461	-0.62
502.585	9.38
502.709	11.38
502.834	5.38
502.958	20.38
503.082	21.38
503.206	21.38
503.33	31.38
503.454	22.38
503.578	14.38
503.702	-0.62
503.826	23.38
503.95	47.38
504.074	-1.62
504.198	0.38
504.322	-7.62
504.446	9.38
504.57	24.38
504.694	16.38
504.818	23.38
504.942	34.38
505.066	17.38
505.19	5.38
505.314	13.38
505.438	-3.62
505.562	5.38
505.686	17.38
505.81	18.38
505.934	22.38
506.058	7.38
506.182	18.38
506.306	9.38
506.43	5.38
506.554	-3.62
506.678	6.38
506.802	15.38
506.926	20.38
507.05	5.38
507.174	19.38
507.298	29.38
507.422	10.38
507.546	34.38
507.67	23.38
507.794	-2.62
507.918	2.38
508.042	6.38
508.165	11.38
508.289	1.38
508.413	11.38
508.537	12.38
508.661	10.38
508.785	2.38
508.909	11.38
509.033	12.38
509.157	16.38
509.281	8.38
509.405	13.38
509.528	18.38
509.652	10.38
509.776	4.38
509.9	26.38
510.024	24.38
510.148	12.38
510.272	14.38
510.396	17.38
510.519	1.38
510.643	23.38
510.767	8.38
510.891	10.38
511.015	16.38
511.139	10.38
511.263	24.38
511.386	20.38
511.51	6.38
511.634	-3.62
511.758	11.38
511.882	-6.62
512.006	26.38
512.129	26.38
512.253	46.38
512.377	20.38
512.501	22.38
512.625	18.38
512.748	3.38
512.872	-3.62
512.996	-9.62
513.12	13.38
513.244	2.38
513.367	6.38
513.491	18.38
513.615	32.38
513.739	4.38
513.862	14.38
513.986	0.38
514.11	21.38
514.234	32.38
514.358	33.38
514.481	27.38
514.605	20.38
514.729	15.38
514.853	12.38
514.976	9.38
515.1	2.38
515.224	14.38
515.348	10.38
515.471	5.38
515.595	15.38
515.719	21.38
515.842	49.38
515.966	15.38
516.09	55.38
516.214	21.38
516.337	34.38
516.461	21.38
516.585	26.38
516.708	18.38
516.832	14.38
516.956	16.38
517.08	22.38
517.203	26.38
517.327	4.38
517.451	32.38
517.574	32.38
517.698	13.38
517.822	14.38
517.945	44.38
518.069	34.38
518.193	43.38
518.316	43.38
518.44	31.38
518.564	11.38
518.687	41.38
518.811	47.38
518.935	64.38
519.058	49.38
519.182	32.38
519.306	41.38
519.429	10.38
519.553	37.38
519.676	31.38
519.8	17.38
519.924	18.38
520.047	16.38
520.171	0.38
520.294	12.38
520.418	4.38
520.542	-4.62
520.665	31.38
520.789	17.38
520.913	-8.62
521.036	-7.62
521.16	1.38
521.283	6.38
521.407	-2.62
521.53	9.38
521.654	0.38
521.778	26.38
521.901	9.38
522.025	4.38
522.148	4.38
522.272	-0.62
522.395	-2.62
522.519	16.38
522.643	2.38
522.766	-0.62
522.89	16.38
523.013	26.38
523.137	23.38
523.26	0.38
523.384	15.38
523.507	4.38
523.631	-4.62
523.754	-0.62
523.878	12.38
524.002	8.38
524.125	-6.62
524.249	2.38
524.372	25.38
524.496	16.38
524.619	25.38
524.743	9.38
524.866	18.38
524.99	6.38
525.113	9.38
525.237	23.38
525.36	0.38
525.484	30.38
525.607	5.38
525.731	8.38
525.854	-4.62
525.978	14.38
526.101	5.38
526.224	5.38
526.348	16.38
526.471	16.38
526.595	15.38
526.718	12.38
526.842	2.38
526.965	12.38
527.089	8.38
527.212	13.38
527.336	9.38
527.459	7.38
527.582	0.38
527.706	19.38
527.829	29.38
527.953	-1.62
528.076	-1.62
528.2	-5.62
528.323	17.38
528.446	18.38
528.57	12.38
528.693	28.38
528.817	-5.62
528.94	10.38
529.064	37.38
529.187	15.38
529.31	17.38
529.434	11.38
529.557	8.38
529.68	14.38
529.804	4.38
529.927	6.38
530.051	12.38
530.174	10.38
530.297	-0.62
530.421	19.38
530.544	11.38
530.668	9.38
530.791	10.38
530.914	18.38
531.038	4.38
531.161	2.38
531.284	13.38
531.408	-4.62
531.531	6.38
531.654	12.38
531.778	8.38
531.901	10.38
532.024	22.38
532.148	20.38
532.271	23.38
532.394	10.38
532.518	30.38
532.641	22.38
532.764	22.38
532.888	23.38
533.011	-4.62
533.134	2.38
533.258	17.38
533.381	6.38
533.504	22.38
533.628	-1.62
533.751	26.38
533.874	13.38
533.997	-1.62
534.121	-21.62
534.244	5.38
534.367	0.38
534.491	5.38
534.614	-12.62
534.737	19.38
534.86	3.38
534.984	-1.62
535.107	4.38
535.23	21.38
535.354	14.38
535.477	6.38
535.6	23.38
535.723	4.38
535.847	10.38
535.97	16.38
536.093	14.38
536.216	2.38
536.34	6.38
536.463	3.38
536.586	28.38
536.709	9.38
536.833	7.38
536.956	3.38
537.079	-1.62
537.202	29.38
537.325	1.38
537.449	15.38
537.572	14.38
537.695	8.38
537.818	-1.62
537.941	0.38
538.065	7.38
538.188	5.38
538.311	15.38
538.434	17.38
538.558	13.38
538.681	36.38
538.804	17.38
538.927	27.38
539.05	15.38
539.173	3.38
539.297	10.38
539.42	19.38
539.543	15.38
539.666	23.38
539.789	19.38
539.913	21.38
540.036	15.38
540.159	18.38
540.282	-1.62
540.405	11.38
540.528	6.38
540.651	12.38
540.775	6.38
540.898	26.38
541.021	5.38
541.144	-11.62
541.267	3.38
541.39	-3.62
541.513	8.38
541.637	23.38
541.76	-5.62
541.883	-5.62
542.006	14.38
542.129	12.38
542.252	-0.62
542.375	27.38
542.498	19.38
542.622	12.38
542.745	6.38
542.868	4.38
542.991	14.38
543.114	19.38
543.237	26.38
543.36	27.38
543.483	8.38
543.606	18.38
543.73	32.38
543.853	11.38
543.976	1.38
544.099	14.38
544.222	17.38
544.345	16.38
544.468	12.38
544.591	9.38
544.714	14.38
544.837	47.38
544.96	1.38
545.083	20.38
545.206	9.38
545.329	10.38
545.453	-3.62
545.576	16.38
545.699	18.38
545.822	32.38
545.945	21.38
546.068	3.38
546.191	5.38
546.314	1.38
546.437	12.38
546.56	14.38
546.683	15.38
546.806	18.38
546.929	7.38
547.052	-3.62
547.175	0.38
547.298	18.38
547.421	-0.62
547.544	-7.62
547.667	2.38
547.79	7.38
547.913	-0.62
548.036	-8.62
548.159	25.38
548.282	19.38
548.405	4.38
548.528	23.38
548.651	6.38
548.774	25.38
548.897	21.38
549.02	26.38
549.143	34.38
549.266	5.38
549.389	16.38
549.512	2.38
549.635	4.38
549.758	0.38
549.881	4.38
550.004	2.38
550.127	10.38
550.25	4.38
550.373	-3.62
550.496	8.38
550.619	-6.62
550.742	4.38
550.865	-3.62
550.988	15.38
551.111	29.38
551.234	22.38
551.356	-5.62
551.479	0.38
551.602	4.38
551.725	15.38
551.848	15.38
551.971	15.38
552.094	13.38
552.217	7.38
552.34	17.38
552.463	8.38
552.586	3.38
552.709	19.38
552.832	27.38
552.955	39.38
553.077	8.38
553.2	14.38
553.323	6.38
553.446	5.38
553.569	4.38
553.692	-3.62
553.815	14.38
553.938	32.38
554.061	23.38
554.184	4.38
554.306	21.38
554.429	22.38
554.552	3.38
554.675	9.38
554.798	-11.62
554.921	9.38
555.044	-1.62
555.167	8.38
555.29	5.38
555.412	10.38
555.535	29.38
555.658	8.38
555.781	13.38
555.904	18.38
556.027	11.38
556.15	3.38
556.272	16.38
556.395	11.38
556.518	-9.62
556.641	11.38
556.764	16.38
556.887	10.38
557.01	4.38
557.132	-3.62
557.255	20.38
557.378	27.38
557.501	8.38
557.624	18.38
557.747	30.38
557.869	25.38
557.992	19.38
558.115	22.38
558.238	-4.62
558.361	21.38
558.483	21.38
558.606	3.38
558.729	-14.62
558.852	41.38
558.975	20.38
559.098	11.38
559.22	15.38
559.343	25.38
559.466	19.38
559.589	15.38
559.712	25.38
559.834	5.38
559.957	7.38
560.08	10.38
560.203	12.38
560.325	23.38
560.448	29.38
560.571	2.38
560.694	2.38
560.817	34.38
560.939	32.38
561.062	-10.62
561.185	9.38
561.308	8.38
561.43	-9.62
561.553	6.38
561.676	3.38
561.799	5.38
561.921	6.38
562.044	-5.62
562.167	-5.62
562.29	33.38
562.413	23.38
562.535	23.38
562.658	5.38
562.781	6.38
562.903	11.38
563.026	28.38
563.149	38.38
563.272	15.38
563.394	5.38
563.517	0.38
563.64	-21.62
563.763	3.38
563.885	21.38
564.008	31.38
564.131	13.38
564.254	-11.62
564.376	11.38
564.499	-0.62
564.622	3.38
564.744	16.38
564.867	19.38
564.99	7.38
565.113	20.38
565.235	8.38
565.358	-12.62
565.481	0.38
565.603	-3.62
565.726	4.38
565.849	25.38
565.971	15.38
566.094	3.38
566.217	3.38
566.34	15.38
566.462	18.38
566.585	6.38
566.708	2.38
566.83	5.38
566.953	16.38
567.076	-2.62
567.198	-5.62
567.321	1.38
567.444	12.38
567.566	-1.62
567.689	-2.62
567.812	6.38
567.934	19.38
568.057	7.38
568.18	22.38
568.302	-0.62
568.425	-6.62
568.548	7.38
568.67	12.38
568.793	11.38
568.916	11.38
569.038	-16.62
569.161	-9.62
569.283	23.38
569.406	7.38
569.529	1.38
569.651	-8.62
569.774	0.38
569.897	-11.62
570.019	25.38
570.142	33.38
570.265	6.38
570.387	-3.62
570.51	11.38
570.632	9.38
570.755	5.38
570.878	-0.62
571	26.38
571.123	19.38
571.246	20.38
571.368	10.38
571.491	0.38
571.613	-11.62
571.736	-14.62
571.859	-0.62
571.981	5.38
572.104	6.38
572.226	6.38
572.349	7.38
572.472	22.38
572.594	-0.62
572.717	1.38
572.839	3.38
572.962	0.38
573.085	5.38
573.207	17.38
573.33	9.38
573.452	18.38
573.575	22.38
573.697	7.38
573.82	7.38
573.943	13.38
574.065	16.38
574.188	2.38
574.31	23.38
574.433	27.38
574.555	25.38
574.678	-1.62
574.801	17.38
574.923	-15.62
575.046	-4.62
575.168	-0.62
575.291	6.38
575.413	0.38
575.536	5.38
575.659	6.38
575.781	3.38
575.904	-8.62
576.026	3.38
576.149	-4.62
576.271	18.38
576.394	28.38
576.516	10.38
576.639	15.38
576.761	-11.62
576.884	-0.62
577.007	5.38
577.129	12.38
577.252	10.38
577.374	32.38
577.497	-4.62
577.619	-4.62
577.742	7.38
577.864	16.38
577.987	22.38
578.109	22.38
578.232	3.38
578.354	16.38
578.477	11.38
578.599	3.38
578.722	5.38
578.844	6.38
578.967	10.38
579.089	9.38
579.212	7.38
579.334	30.38
579.457	14.38
579.579	12.38
579.702	-1.62
579.824	12.38
579.947	1.38
580.069	-11.62
580.192	6.38
580.314	33.38
580.437	14.38
580.559	36.38
580.682	-3.62
580.804	12.38
580.927	12.38
581.049	28.38
581.172	12.38
581.294	11.38
581.417	22.38
581.539	12.38
581.662	28.38
581.784	15.38
581.907	14.38
582.029	9.38
582.152	6.38
582.274	33.38
582.396	15.38
582.519	9.38
582.641	-0.62
582.764	8.38
582.886	25.38
583.009	18.38
583.131	3.38
583.254	23.38
583.376	34.38
583.499	31.38
583.621	20.38
583.743	31.38
583.866	8.38
583.988	7.38
584.111	19.38
584.233	29.38
584.356	23.38
584.478	20.38
584.601	-5.62
584.723	7.38
584.845	21.38
584.968	1.38
585.09	-4.62
585.213	19.38
585.335	5.38
585.458	13.38
585.58	6.38
585.702	13.38
585.825	17.38
585.947	24.38
586.07	-14.62
586.192	-12.62
586.315	4.38
586.437	7.38
586.559	18.38
586.682	3.38
586.804	2.38
586.927	-5.62
587.049	-1.62
587.171	13.38
587.294	10.38
587.416	40.38
587.539	19.38
587.661	-0.62
587.783	8.38
587.906	1.38
588.028	23.38
588.151	20.38
588.273	30.38
588.395	-7.62
588.518	-10.62
588.64	9.38
588.763	24.38
588.885	20.38
589.007	6.38
589.13	-8.62
589.252	2.38
589.375	8.38
589.497	2.38
589.619	-4.62
589.742	2.38
589.864	15.38
589.986	12.38
590.109	-11.62
590.231	-9.62
590.354	10.38
590.476	-0.62
590.598	2.38
590.721	-5.62
590.843	6.38
590.965	0.38
591.088	7.38
591.21	12.38
591.332	13.38
591.455	-5.62
591.577	-13.62
591.7	6.38
591.822	16.38
591.944	16.38
592.067	22.38
592.189	21.38
592.311	9.38
592.434	8.38
592.556	25.38
592.678	2.38
592.801	10.38
592.923	7.38
593.045	-7.62
593.168	27.38
593.29	6.38
593.412	37.38
593.535	18.38
593.657	2.38
593.779	-7.62
593.902	17.38
594.024	18.38
594.146	23.38
594.269	27.38
594.391	3.38
594.513	8.38
594.636	14.38
594.758	7.38
594.88	38.38
595.003	18.38
595.125	-15.62
595.247	-2.62
595.37	12.38
595.492	5.38
595.614	18.38
595.737	25.38
595.859	18.38
595.981	8.38
596.104	12.38
596.226	5.38
596.348	10.38
596.471	9.38
596.593	15.38
596.715	9.38
596.838	18.38
596.96	1.38
597.082	8.38
597.204	9.38
597.327	-1.62
597.449	-17.62
597.571	10.38
597.694	16.38
597.816	-7.62
597.938	14.38
598.061	2.38
598.183	-0.62
598.305	0.38
598.427	-1.62
598.55	-3.62
598.672	24.38
598.794	14.38
598.917	7.38
599.039	8.38
599.161	17.38
599.283	20.38
599.406	19.38
599.528	15.38
599.65	24.38
599.773	1.38
599.895	26.38
600.017	27.38
600.139	17.38
600.262	-1.62
600.384	10.38
600.506	6.38
600.628	16.38
600.751	32.38
600.873	1.38
600.995	6.38
601.118	17.38
601.24	27.38
601.362	28.38
601.484	-4.62
601.607	3.38
601.729	22.38
601.851	14.38
601.973	28.38
602.096	3.38
602.218	11.38
602.34	1.38
602.462	11.38
602.585	13.38
602.707	-10.62
602.829	11.38
602.951	10.38
603.074	-13.62
603.196	8.38
603.318	11.38
603.44	19.38
603.563	24.38
603.685	-1.62
603.807	-2.62
603.929	8.38
604.052	14.38
604.174	28.38
604.296	17.38
604.418	12.38
604.541	22.38
604.663	-3.62
604.785	16.38
604.907	16.38
605.03	7.38
605.152	42.38
605.274	0.38
605.396	-5.62
605.519	3.38
605.641	3.38
605.763	15.38
605.885	12.38
606.008	24.38
606.13	16.38
606.252	21.38
606.374	3.38
606.496	-11.62
606.619	1.38
606.741	14.38
606.863	20.38
606.985	32.38
607.108	5.38
607.23	3.38
607.352	10.38
607.474	-3.62
607.596	22.38
607.719	34.38
607.841	18.38
607.963	5.38
608.085	35.38
608.207	34.38
608.33	6.38
608.452	0.38
608.574	6.38
608.696	25.38
608.819	3.38
608.941	-1.62
609.063	-5.62
609.185	1.38
609.307	10.38
609.43	9.38
609.552	17.38
609.674	-8.62
609.796	18.38
609.918	9.38
610.041	10.38
610.163	21.38
610.285	-0.62
610.407	16.38
610.529	-2.62
610.652	18.38
610.774	19.38
610.896	-6.62
611.018	4.38
611.14	-1.62
611.263	5.38
611.385	2.38
611.507	30.38
611.629	-9.62
611.751	30.38
611.873	34.38
611.996	7.38
612.118	31.38
612.24	2.38
612.362	6.38
612.484	28.38
612.607	30.38
612.729	28.38
612.851	32.38
612.973	7.38
613.095	2.38
613.218	6.38
613.34	12.38
613.462	4.38
613.584	13.38
613.706	17.38
613.828	42.38
613.951	16.38
614.073	14.38
614.195	4.38
614.317	12.38
614.439	21.38
614.561	15.38
614.684	20.38
614.806	5.38
614.928	23.38
615.05	2.38
615.172	24.38
615.294	14.38
615.417	24.38
615.539	8.38
615.661	10.38
615.783	23.38
615.905	20.38
616.027	70.38
616.15	102.38
616.272	97.38
616.394	56.38
616.516	35.38
616.638	17.38
616.76	14.38
616.883	6.38
617.005	12.38
617.127	5.38
617.249	8.38
617.371	13.38
617.493	5.38
617.615	22.38
617.738	10.38
617.86	14.38
617.982	9.38
618.104	22.38
618.226	10.38
618.348	-13.62
618.471	12.38
618.593	15.38
618.715	1.38
618.837	10.38
618.959	16.38
619.081	19.38
619.203	6.38
619.326	13.38
619.448	17.38
619.57	8.38
619.692	4.38
619.814	22.38
619.936	21.38
620.058	6.38
620.181	-12.62
620.303	0.38
620.425	15.38
620.547	-5.62
620.669	-15.62
620.791	-1.62
620.913	4.38
621.036	8.38
621.158	13.38
621.28	11.38
621.402	-6.62
621.524	7.38
621.646	19.38
621.768	1.38
621.891	-1.62
622.013	20.38
622.135	3.38
622.257	-7.62
622.379	4.38
622.501	30.38
622.623	15.38
622.745	17.38
622.868	15.38
622.99	6.38
623.112	1.38
623.234	2.38
623.356	11.38
623.478	-1.62
623.6	12.38
623.722	4.38
623.845	19.38
623.967	-1.62
624.089	6.38
624.211	-8.62
624.333	26.38
624.455	19.38
624.577	17.38
624.699	17.38
624.822	5.38
624.944	-8.62
625.066	9.38
625.188	9.38
625.31	1.38
625.432	12.38
625.554	18.38
625.676	30.38
625.799	-1.62
625.921	-6.62
626.043	-0.62
626.165	-1.62
626.287	-20.62
626.409	11.38
626.531	1.38
626.653	18.38
626.775	10.38
626.898	17.38
627.02	11.38
627.142	22.38
627.264	21.38
627.386	-20.62
627.508	16.38
627.63	1.38
627.752	2.38
627.874	13.38
627.997	27.38
628.119	3.38
628.241	35.38
628.363	17.38
628.485	19.38
628.607	8.38
628.729	10.38
628.851	-8.62
628.973	4.38
629.096	-0.62
629.218	14.38
629.34	19.38
629.462	12.38
629.584	12.38
629.706	16.38
629.828	41.38
629.95	14.38
630.072	14.38
630.195	12.38
630.317	0.38
630.439	13.38
630.561	20.38
630.683	5.38
630.805	4.38
630.927	11.38
631.049	6.38
631.171	3.38
631.293	5.38
631.416	24.38
631.538	19.38
631.66	2.38
631.782	8.38
631.904	16.38
632.026	-3.62
632.148	11.38
632.27	9.38
632.392	25.38
632.514	22.38
632.637	14.38
632.759	8.38
632.881	-2.62
633.003	-7.62
633.125	6.38
633.247	2.38
633.369	-0.62
633.491	4.38
633.613	18.38
633.735	15.38
633.858	21.38
633.98	16.38
634.102	3.38
634.224	-5.62
634.346	0.38
634.468	23.38
634.59	7.38
634.712	11.38
634.834	6.38
634.956	-4.62
635.078	6.38
635.201	-6.62
635.323	5.38
635.445	0.38
635.567	-17.62
635.689	17.38
635.811	5.38
635.933	-1.62
636.055	19.38
636.177	13.38
636.299	6.38
636.421	2.38
636.544	-21.62
636.666	12.38
636.788	11.38
636.91	-0.62
637.032	15.38
637.154	12.38
637.276	22.38
637.398	21.38
637.52	7.38
637.642	19.38
637.764	-0.62
637.887	-5.62
638.009	0.38
638.131	2.38
638.253	2.38
638.375	23.38
638.497	11.38
638.619	-12.62
638.741	-4.62
638.863	2.38
638.985	-10.62
639.107	8.38
639.23	1.38
639.352	15.38
639.474	-0.62
639.596	10.38
639.718	5.38
639.84	1.38
639.962	9.38
640.084	22.38
640.206	3.38
640.328	-1.62
640.45	5.38
640.573	10.38
640.695	3.38
640.817	1.38
640.939	19.38
641.061	-8.62
641.183	0.38
641.305	5.38
641.427	3.38
641.549	19.38
641.671	14.38
641.793	14.38
641.915	18.38
642.038	4.38
642.16	10.38
642.282	2.38
642.404	-0.62
642.526	3.38
642.648	6.38
642.77	14.38
642.892	6.38
643.014	31.38
643.136	21.38
643.258	11.38
643.381	22.38
643.503	46.38
643.625	3.38
643.747	-12.62
643.869	-12.62
643.991	18.38
644.113	18.38
644.235	-0.62
644.357	23.38
644.479	13.38
644.601	17.38
644.723	3.38
644.846	18.38
644.968	6.38
645.09	-0.62
645.212	-0.62
645.334	24.38
645.456	18.38
645.578	19.38
645.7	21.38
645.822	12.38
645.944	-0.62
646.066	0.38
646.188	10.38
646.311	30.38
646.433	14.38
646.555	59.38
646.677	51.38
646.799	42.38
646.921	32.38
647.043	42.38
647.165	-6.62
647.287	7.38
647.409	4.38
647.531	12.38
647.654	-13.62
647.776	14.38
647.898	20.38
648.02	14.38
648.142	6.38
648.264	7.38
648.386	11.38
648.508	-0.62
648.63	-2.62
648.752	3.38
648.874	13.38
648.997	7.38
649.119	10.38
649.241	15.38
649.363	36.38
649.485	9.38
649.607	-7.62
649.729	3.38
649.851	12.38
649.973	15.38
650.095	26.38
650.217	-1.62
650.34	-11.62
650.462	14.38
650.584	-0.62
650.706	-7.62
650.828	14.38
650.95	-7.62
651.072	10.38
651.194	5.38
651.316	18.38
651.438	9.38
651.56	-3.62
651.683	-3.62
651.805	8.38
651.927	-1.62
652.049	10.38
652.171	2.38
652.293	1.38
652.415	-10.62
652.537	-17.62
652.659	-23.62
652.781	12.38
652.903	21.38
653.026	21.38
653.148	13.38
653.27	19.38
653.392	4.38
653.514	7.38
653.636	9.38
653.758	22.38
653.88	-2.62
654.002	6.38
654.124	16.38
654.247	-0.62
654.369	20.38
654.491	10.38
654.613	4.38
654.735	24.38
654.857	35.38
654.979	19.38
655.101	33.38
655.223	37.38
655.345	33.38
655.468	27.38
655.59	20.38
655.712	42.38
655.834	14.38
655.956	40.38
656.078	30.38
656.2	44.38
656.322	38.38
656.444	23.38
656.566	49.38
656.689	66.38
656.811	56.38
656.933	91.38
657.055	94.38
657.177	162.38
657.299	254.38
657.421	518.38
657.543	1946.38
657.665	12786.38
657.787	15199.38
657.91	15372.38
658.032	15661.38
658.154	4769.38
658.276	4716.38
658.398	1371.38
658.52	1099.38
658.642	534.38
658.764	620.38
658.886	287.38
659.009	430.38
659.131	241.38
659.253	316.38
659.375	168.38
659.497	254.38
659.619	142.38
659.741	202.38
659.863	96.38
659.985	168.38
660.108	116.38
660.23	144.38
660.352	90.38
660.474	132.38
660.596	71.38
660.718	127.38
660.84	63.38
660.962	104.38
661.084	55.38
661.207	100.38
661.329	64.38
661.451	96.38
661.573	66.38
661.695	111.38
661.817	64.38
661.939	111.38
662.061	62.38
662.184	73.38
662.306	26.38
662.428	63.38
662.55	70.38
662.672	54.38
662.794	49.38
662.916	65.38
663.038	49.38
663.161	70.38
663.283	55.38
663.405	69.38
663.527	20.38
663.649	59.38
663.771	42.38
663.893	46.38
664.015	46.38
664.138	54.38
664.26	30.38
664.382	47.38
664.504	23.38
664.626	29.38
664.748	25.38
664.87	39.38
664.992	37.38
665.115	60.38
665.237	30.38
665.359	37.38
665.481	23.38
665.603	53.38
665.725	20.38
665.847	36.38
665.97	27.38
666.092	41.38
666.214	26.38
666.336	40.38
666.458	27.38
666.58	31.38
666.702	19.38
666.825	22.38
666.947	21.38
667.069	34.38
667.191	14.38
667.313	40.38
667.435	12.38
667.557	24.38
667.68	-0.62
667.802	23.38
667.924	19.38
668.046	44.38
668.168	37.38
668.29	33.38
668.412	27.38
668.535	40.38
668.657	27.38
668.779	11.38
668.901	23.38
669.023	44.38
669.145	15.38
669.267	51.38
669.39	11.38
669.512	50.38
669.634	31.38
669.756	58.38
669.878	18.38
670	18.38
670.123	16.38
670.245	39.38
670.367	18.38
670.489	39.38
670.611	11.38
670.733	16.38
670.856	10.38
670.978	31.38
671.1	30.38
671.222	24.38
671.344	8.38
671.466	16.38
671.589	10.38
671.711	22.38
671.833	3.38
671.955	23.38
672.077	9.38
672.199	26.38
672.322	32.38
672.444	29.38
672.566	35.38
672.688	46.38
672.81	25.38
672.932	25.38
673.055	23.38
673.177	17.38
673.299	11.38
673.421	0.38
673.543	10.38
673.665	38.38
673.788	24.38
673.91	12.38
674.032	2.38
674.154	12.38
674.276	14.38
674.399	14.38
674.521	6.38
674.643	16.38
674.765	2.38
674.887	31.38
675.009	7.38
675.132	3.38
675.254	10.38
675.376	21.38
675.498	20.38
675.62	42.38
675.743	6.38
675.865	22.38
675.987	-8.62
676.109	11.38
676.231	10.38
676.354	36.38
676.476	6.38
676.598	16.38
676.72	7.38
676.842	30.38
676.965	11.38
677.087	18.38
677.209	5.38
677.331	20.38
677.453	23.38
677.576	3.38
677.698	14.38
677.82	16.38
677.942	0.38
678.064	7.38
678.187	6.38
678.309	17.38
678.431	16.38
678.553	10.38
678.675	33.38
678.798	18.38
678.92	13.38
679.042	16.38
679.164	1.38
679.286	28.38
679.409	15.38
679.531	-14.62
679.653	2.38
679.775	30.38
679.898	19.38
680.02	10.38
680.142	3.38
680.264	32.38
680.386	13.38
680.509	16.38
680.631	11.38
680.753	4.38
680.875	0.38
680.998	11.38
681.12	0.38
681.242	13.38
681.364	-1.62
681.486	3.38
681.609	10.38
681.731	3.38
681.853	1.38
681.975	3.38
682.098	18.38
682.22	30.38
682.342	8.38
682.464	24.38
682.587	10.38
682.709	15.38
682.831	-9.62
682.953	23.38
683.076	5.38
683.198	5.38
683.32	9.38
683.442	11.38
683.565	37.38
683.687	-7.62
683.809	-3.62
683.931	8.38
684.054	27.38
684.176	16.38
684.298	2.38
684.42	-2.62
684.543	18.38
684.665	-1.62
684.787	-3.62
684.909	13.38
685.032	24.38
685.154	-1.62
685.276	-1.62
685.398	6.38
685.521	-15.62
685.643	16.38
685.765	25.38
685.887	20.38
686.01	9.38
686.132	2.38
686.254	9.38
686.377	27.38
686.499	20.38
686.621	25.38
686.743	20.38
686.866	13.38
686.988	35.38
687.11	22.38
687.232	14.38
687.355	2.38
687.477	14.38
687.599	11.38
687.722	7.38
687.844	17.38
687.966	0.38
688.088	3.38
688.211	30.38
688.333	26.38
688.455	16.38
688.578	27.38
688.7	9.38
688.822	11.38
688.944	-22.62
689.067	37.38
689.189	6.38
689.311	-15.62
689.434	14.38
689.556	4.38
689.678	13.38
689.801	9.38
689.923	19.38
690.045	25.38
690.167	21.38
690.29	28.38
690.412	18.38
690.534	26.38
690.657	5.38
690.779	3.38
690.901	13.38
691.024	12.38
691.146	4.38
691.268	22.38
691.391	7.38
691.513	27.38
691.635	23.38
691.758	35.38
691.88	16.38
692.002	15.38
692.125	4.38
692.247	8.38
692.369	9.38
692.492	-12.62
692.614	2.38
692.736	3.38
692.859	-6.62
692.981	1.38
693.103	3.38
693.226	17.38
693.348	29.38
693.47	14.38
693.593	-4.62
693.715	-3.62
693.837	0.38
693.96	-3.62
694.082	-2.62
694.204	8.38
694.327	9.38
694.449	2.38
694.571	26.38
694.694	24.38
694.816	11.38
694.938	4.38
695.061	4.38
695.183	6.38
695.305	-4.62
695.428	17.38
695.55	-8.62
695.672	-7.62
695.795	13.38
695.917	18.38
696.04	5.38
696.162	20.38
696.284	1.38
696.407	7.38
696.529	16.38
696.651	36.38
696.774	15.38
696.896	31.38
697.019	19.38
697.141	21.38
697.263	-0.62
697.386	3.38
697.508	21.38
697.63	13.38
697.753	13.38
697.875	7.38
697.998	-5.62
698.12	30.38
698.242	7.38
698.365	-2.62
698.487	11.38
698.61	11.38
698.732	22.38
698.854	17.38
698.977	3.38
699.099	12.38
699.221	1.38
699.344	8.38
699.466	13.38
699.589	15.38
699.711	-8.62
699.834	10.38
699.956	7.38
700.078	-7.62
700.201	4.38
700.323	11.38
700.446	20.38
700.568	15.38
700.69	23.38
700.813	15.38
700.935	0.38
701.058	14.38
701.18	5.38
701.302	4.38
701.425	14.38
701.547	17.38
701.67	-0.62
701.792	15.38
701.915	17.38
702.037	0.38
702.159	-5.62
702.282	11.38
702.404	10.38
702.527	16.38
702.649	26.38
702.772	20.38
702.894	4.38
703.017	8.38
703.139	17.38
703.261	22.38
703.384	16.38
703.506	6.38
703.629	1.38
703.751	23.38
703.874	19.38
703.996	3.38
704.119	-6.62
704.241	17.38
704.364	7.38
704.486	27.38
704.608	14.38
704.731	13.38
704.853	6.38
704.976	8.38
705.098	16.38
705.221	0.38
705.343	17.38
705.466	36.38
705.588	5.38
705.711	-1.62
705.833	-9.62
705.956	-3.62
706.078	-1.62
706.201	20.38
706.323	7.38
706.446	-8.62
