Data from LowRes_H2_15_26_11_07_2024_HR4C61881__18__15-28-15-438.txt Node

Date: Thu Nov 07 15:28:15 EST 2024
User: crc00042
Spectrometer: HR4C6188
Trigger mode: 4
Integration Time (sec): 1.000000E-1
Scans to average: 1
Electric dark correction enabled: true
Nonlinearity correction enabled: false
Boxcar width: 0
XAxis mode: Wavelengths
Number of Pixels in Spectrum: 3648
>>>>>Begin Spectral Data<<<<<
245.66	-97.31
245.797	-97.31
245.934	-97.31
246.071	-86.31
246.208	28.69
246.344	-0.31
246.481	1.69
246.618	-6.31
246.755	6.69
246.892	-10.31
247.029	-22.31
247.165	-17.31
247.302	17.69
247.439	11.69
247.576	5.69
247.713	3.69
247.849	28.69
247.986	-19.31
248.123	9.69
248.26	4.69
248.396	18.69
248.533	4.69
248.67	12.69
248.806	-0.31
248.943	-9.31
249.08	-2.31
249.216	19.69
249.353	-1.31
249.49	-11.31
249.626	-2.31
249.763	6.69
249.9	-3.31
250.036	7.69
250.173	14.69
250.309	-9.31
250.446	10.69
250.582	31.69
250.719	17.69
250.856	2.69
250.992	-2.31
251.129	-15.31
251.265	-2.31
251.402	10.69
251.538	-2.31
251.675	6.69
251.811	23.69
251.948	5.69
252.084	14.69
252.221	5.69
252.357	-5.31
252.493	38.69
252.63	17.69
252.766	16.69
252.903	2.69
253.039	4.69
253.175	2.69
253.312	-1.31
253.448	-3.31
253.585	-17.31
253.721	18.69
253.857	-14.31
253.994	18.69
254.13	16.69
254.266	16.69
254.403	5.69
254.539	3.69
254.675	-2.31
254.811	12.69
254.948	2.69
255.084	10.69
255.22	-12.31
255.356	-2.31
255.493	17.69
255.629	7.69
255.765	10.69
255.901	12.69
256.037	-4.31
256.174	16.69
256.31	3.69
256.446	11.69
256.582	10.69
256.718	16.69
256.854	25.69
256.991	16.69
257.127	7.69
257.263	-2.31
257.399	22.69
257.535	-10.31
257.671	4.69
257.807	-4.31
257.943	-17.31
258.079	-6.31
258.215	8.69
258.351	22.69
258.487	20.69
258.623	22.69
258.759	16.69
258.895	-12.31
259.031	6.69
259.167	-0.31
259.303	25.69
259.439	3.69
259.575	0.69
259.711	11.69
259.847	4.69
259.983	12.69
260.119	-4.31
260.255	8.69
260.391	28.69
260.527	6.69
260.663	4.69
260.799	6.69
260.934	15.69
261.07	2.69
261.206	-16.31
261.342	-15.31
261.478	19.69
261.614	17.69
261.749	-6.31
261.885	1.69
262.021	7.69
262.157	23.69
262.293	8.69
262.428	5.69
262.564	11.69
262.7	16.69
262.836	15.69
262.971	8.69
263.107	13.69
263.243	22.69
263.378	-7.31
263.514	-24.31
263.65	-7.31
263.785	-7.31
263.921	-8.31
264.057	14.69
264.192	9.69
264.328	4.69
264.464	-10.31
264.599	23.69
264.735	22.69
264.871	-11.31
265.006	15.69
265.142	-5.31
265.277	6.69
265.413	32.69
265.548	30.69
265.684	19.69
265.819	12.69
265.955	-9.31
266.091	-2.31
266.226	3.69
266.362	-9.31
266.497	0.69
266.633	2.69
266.768	-0.31
266.903	24.69
267.039	16.69
267.174	33.69
267.31	2.69
267.445	4.69
267.581	-0.31
267.716	4.69
267.851	17.69
267.987	6.69
268.122	19.69
268.258	-5.31
268.393	-7.31
268.528	7.69
268.664	1.69
268.799	1.69
268.934	8.69
269.07	6.69
269.205	-1.31
269.34	26.69
269.476	-9.31
269.611	-17.31
269.746	33.69
269.881	17.69
270.017	25.69
270.152	17.69
270.287	-1.31
270.422	19.69
270.558	-7.31
270.693	18.69
270.828	-3.31
270.963	-10.31
271.098	14.69
271.234	-2.31
271.369	11.69
271.504	12.69
271.639	3.69
271.774	-0.31
271.909	16.69
272.045	0.69
272.18	-8.31
272.315	-3.31
272.45	7.69
272.585	-1.31
272.72	-24.31
272.855	5.69
272.99	22.69
273.125	-21.31
273.26	-16.31
273.395	-2.31
273.53	-7.31
273.665	27.69
273.8	1.69
273.935	8.69
274.07	8.69
274.205	9.69
274.34	1.69
274.475	3.69
274.61	26.69
274.745	4.69
274.88	2.69
275.015	6.69
275.15	12.69
275.285	18.69
275.42	12.69
275.555	22.69
275.69	-5.31
275.825	3.69
275.959	20.69
276.094	9.69
276.229	-8.31
276.364	-8.31
276.499	13.69
276.634	3.69
276.768	2.69
276.903	-5.31
277.038	15.69
277.173	1.69
277.308	3.69
277.442	7.69
277.577	7.69
277.712	28.69
277.847	2.69
277.981	8.69
278.116	-25.31
278.251	18.69
278.386	22.69
278.52	13.69
278.655	7.69
278.79	36.69
278.924	16.69
279.059	11.69
279.194	-3.31
279.328	28.69
279.463	17.69
279.598	15.69
279.732	8.69
279.867	11.69
280.001	21.69
280.136	13.69
280.271	0.69
280.405	17.69
280.54	0.69
280.674	-6.31
280.809	15.69
280.943	-10.31
281.078	4.69
281.213	27.69
281.347	8.69
281.482	20.69
281.616	-1.31
281.751	0.69
281.885	-10.31
282.02	8.69
282.154	20.69
282.288	9.69
282.423	-2.31
282.557	-5.31
282.692	0.69
282.826	9.69
282.961	15.69
283.095	6.69
283.229	11.69
283.364	-5.31
283.498	-4.31
283.633	2.69
283.767	15.69
283.901	12.69
284.036	-17.31
284.17	11.69
284.304	4.69
284.439	11.69
284.573	10.69
284.707	22.69
284.842	10.69
284.976	1.69
285.11	-14.31
285.244	15.69
285.379	38.69
285.513	0.69
285.647	7.69
285.781	18.69
285.916	21.69
286.05	-5.31
286.184	23.69
286.318	3.69
286.453	-6.31
286.587	7.69
286.721	-5.31
286.855	11.69
286.989	21.69
287.123	5.69
287.258	-2.31
287.392	11.69
287.526	37.69
287.66	-8.31
287.794	-13.31
287.928	12.69
288.062	9.69
288.196	3.69
288.33	10.69
288.464	19.69
288.598	18.69
288.733	19.69
288.867	9.69
289.001	0.69
289.135	8.69
289.269	-3.31
289.403	0.69
289.537	14.69
289.671	1.69
289.805	-0.31
289.939	10.69
290.073	-2.31
290.207	29.69
290.34	14.69
290.474	31.69
290.608	25.69
290.742	10.69
290.876	2.69
291.01	-16.31
291.144	33.69
291.278	11.69
291.412	24.69
291.546	1.69
291.679	6.69
291.813	-3.31
291.947	14.69
292.081	4.69
292.215	-2.31
292.349	24.69
292.482	11.69
292.616	1.69
292.75	10.69
292.884	1.69
293.018	12.69
293.151	-9.31
293.285	14.69
293.419	0.69
293.553	10.69
293.686	16.69
293.82	21.69
293.954	30.69
294.088	33.69
294.221	-6.31
294.355	9.69
294.489	7.69
294.622	3.69
294.756	12.69
294.89	14.69
295.023	14.69
295.157	3.69
295.291	10.69
295.424	30.69
295.558	19.69
295.691	10.69
295.825	-2.31
295.959	0.69
296.092	-5.31
296.226	7.69
296.359	6.69
296.493	11.69
296.627	3.69
296.76	-2.31
296.894	7.69
297.027	9.69
297.161	-0.31
297.294	3.69
297.428	8.69
297.561	40.69
297.695	16.69
297.828	7.69
297.962	10.69
298.095	-7.31
298.229	7.69
298.362	-1.31
298.495	-15.31
298.629	-4.31
298.762	-4.31
298.896	14.69
299.029	-2.31
299.162	14.69
299.296	12.69
299.429	-6.31
299.563	-10.31
299.696	11.69
299.829	3.69
299.963	26.69
300.096	20.69
300.229	9.69
300.363	19.69
300.496	16.69
300.629	-2.31
300.763	11.69
300.896	-9.31
301.029	-8.31
301.162	20.69
301.296	12.69
301.429	19.69
301.562	-11.31
301.695	1.69
301.829	1.69
301.962	18.69
302.095	6.69
302.228	-32.31
302.362	8.69
302.495	-18.31
302.628	7.69
302.761	-9.31
302.894	5.69
303.027	20.69
303.161	-13.31
303.294	6.69
303.427	28.69
303.56	1.69
303.693	9.69
303.826	-0.31
303.959	10.69
304.092	22.69
304.225	2.69
304.359	9.69
304.492	16.69
304.625	-7.31
304.758	7.69
304.891	-4.31
305.024	9.69
305.157	-5.31
305.29	8.69
305.423	5.69
305.556	11.69
305.689	22.69
305.822	6.69
305.955	19.69
306.088	18.69
306.221	3.69
306.354	-11.31
306.487	2.69
306.62	8.69
306.752	-3.31
306.885	6.69
307.018	4.69
307.151	8.69
307.284	-1.31
307.417	-23.31
307.55	10.69
307.683	4.69
307.816	21.69
307.948	17.69
308.081	7.69
308.214	17.69
308.347	40.69
308.48	13.69
308.613	-12.31
308.745	23.69
308.878	-11.31
309.011	9.69
309.144	26.69
309.277	15.69
309.409	0.69
309.542	-2.31
309.675	28.69
309.808	30.69
309.94	33.69
310.073	-1.31
310.206	0.69
310.339	6.69
310.471	-13.31
310.604	11.69
310.737	11.69
310.869	16.69
311.002	8.69
311.135	6.69
311.267	-12.31
311.4	-4.31
311.533	31.69
311.665	4.69
311.798	10.69
311.93	7.69
312.063	29.69
312.196	7.69
312.328	-0.31
312.461	-4.31
312.593	5.69
312.726	11.69
312.859	6.69
312.991	15.69
313.124	-1.31
313.256	16.69
313.389	20.69
313.521	-10.31
313.654	7.69
313.786	-3.31
313.919	-5.31
314.051	16.69
314.184	10.69
314.316	-1.31
314.449	-15.31
314.581	9.69
314.714	11.69
314.846	11.69
314.978	-26.31
315.111	8.69
315.243	8.69
315.376	5.69
315.508	2.69
315.641	-12.31
315.773	15.69
315.905	-2.31
316.038	-1.31
316.17	7.69
316.302	16.69
316.435	17.69
316.567	2.69
316.699	29.69
316.832	5.69
316.964	-2.31
317.096	-5.31
317.229	-3.31
317.361	-19.31
317.493	-5.31
317.625	-4.31
317.758	18.69
317.89	42.69
318.022	7.69
318.155	-5.31
318.287	7.69
318.419	7.69
318.551	-9.31
318.683	4.69
318.816	-4.31
318.948	0.69
319.08	10.69
319.212	1.69
319.344	7.69
319.477	15.69
319.609	-1.31
319.741	4.69
319.873	-4.31
320.005	3.69
320.137	19.69
320.269	-4.31
320.401	1.69
320.534	-7.31
320.666	-17.31
320.798	-15.31
320.93	-11.31
321.062	-7.31
321.194	1.69
321.326	9.69
321.458	31.69
321.59	19.69
321.722	0.69
321.854	22.69
321.986	-15.31
322.118	-1.31
322.25	10.69
322.382	11.69
322.514	-8.31
322.646	-5.31
322.778	29.69
322.91	-8.31
323.042	6.69
323.174	2.69
323.306	-2.31
323.438	0.69
323.57	-0.31
323.702	-2.31
323.834	16.69
323.966	-2.31
324.097	10.69
324.229	5.69
324.361	19.69
324.493	21.69
324.625	5.69
324.757	19.69
324.889	1.69
325.021	10.69
325.152	21.69
325.284	0.69
325.416	-20.31
325.548	21.69
325.68	0.69
325.811	20.69
325.943	15.69
326.075	-13.31
326.207	15.69
326.339	23.69
326.47	-0.31
326.602	25.69
326.734	18.69
326.866	9.69
326.997	-4.31
327.129	-10.31
327.261	-16.31
327.392	-2.31
327.524	10.69
327.656	6.69
327.787	22.69
327.919	10.69
328.051	18.69
328.182	24.69
328.314	32.69
328.446	5.69
328.577	18.69
328.709	8.69
328.841	4.69
328.972	15.69
329.104	0.69
329.235	-10.31
329.367	1.69
329.499	-4.31
329.63	21.69
329.762	13.69
329.893	12.69
330.025	0.69
330.156	-2.31
330.288	4.69
330.419	17.69
330.551	19.69
330.683	26.69
330.814	12.69
330.946	10.69
331.077	-1.31
331.208	-5.31
331.34	3.69
331.471	-12.31
331.603	8.69
331.734	-16.31
331.866	7.69
331.997	14.69
332.129	17.69
332.26	-0.31
332.392	-6.31
332.523	0.69
332.654	-15.31
332.786	5.69
332.917	-5.31
333.048	41.69
333.18	15.69
333.311	-16.31
333.443	6.69
333.574	0.69
333.705	19.69
333.837	-4.31
333.968	-0.31
334.099	14.69
334.231	24.69
334.362	4.69
334.493	26.69
334.624	22.69
334.756	8.69
334.887	22.69
335.018	9.69
335.15	10.69
335.281	17.69
335.412	28.69
335.543	12.69
335.675	-2.31
335.806	21.69
335.937	-0.31
336.068	18.69
336.199	16.69
336.331	-14.31
336.462	-22.31
336.593	26.69
336.724	-15.31
336.855	16.69
336.986	18.69
337.118	22.69
337.249	7.69
337.38	17.69
337.511	12.69
337.642	6.69
337.773	5.69
337.904	4.69
338.035	23.69
338.166	2.69
338.298	24.69
338.429	-5.31
338.56	14.69
338.691	10.69
338.822	7.69
338.953	24.69
339.084	14.69
339.215	22.69
339.346	-0.31
339.477	-3.31
339.608	-2.31
339.739	-4.31
339.87	-6.31
340.001	-0.31
340.132	26.69
340.263	9.69
340.394	26.69
340.525	12.69
340.656	15.69
340.787	-1.31
340.918	19.69
341.049	3.69
341.179	17.69
341.31	21.69
341.441	14.69
341.572	24.69
341.703	18.69
341.834	-3.31
341.965	18.69
342.096	-11.31
342.227	13.69
342.357	20.69
342.488	15.69
342.619	-1.31
342.75	4.69
342.881	19.69
343.012	31.69
343.142	26.69
343.273	4.69
343.404	-0.31
343.535	41.69
343.666	21.69
343.796	16.69
343.927	31.69
344.058	29.69
344.189	9.69
344.319	22.69
344.45	8.69
344.581	26.69
344.712	-2.31
344.842	4.69
344.973	3.69
345.104	19.69
345.234	-0.31
345.365	1.69
345.496	7.69
345.626	2.69
345.757	16.69
345.888	-1.31
346.018	17.69
346.149	15.69
346.28	23.69
346.41	4.69
346.541	10.69
346.672	-9.31
346.802	14.69
346.933	18.69
347.063	4.69
347.194	2.69
347.325	-11.31
347.455	30.69
347.586	13.69
347.716	-3.31
347.847	24.69
347.977	11.69
348.108	10.69
348.238	4.69
348.369	-1.31
348.499	32.69
348.63	3.69
348.76	-2.31
348.891	4.69
349.021	16.69
349.152	-0.31
349.282	1.69
349.413	7.69
349.543	18.69
349.674	16.69
349.804	15.69
349.935	0.69
350.065	10.69
350.196	5.69
350.326	23.69
350.456	19.69
350.587	28.69
350.717	1.69
350.848	13.69
350.978	15.69
351.108	-7.31
351.239	16.69
351.369	-5.31
351.499	1.69
351.63	-0.31
351.76	18.69
351.89	1.69
352.021	7.69
352.151	8.69
352.281	5.69
352.412	4.69
352.542	7.69
352.672	16.69
352.803	21.69
352.933	8.69
353.063	9.69
353.193	5.69
353.324	-2.31
353.454	4.69
353.584	14.69
353.714	3.69
353.845	17.69
353.975	-2.31
354.105	-6.31
354.235	-1.31
354.365	14.69
354.496	8.69
354.626	22.69
354.756	7.69
354.886	20.69
355.016	13.69
355.146	14.69
355.277	14.69
355.407	0.69
355.537	6.69
355.667	18.69
355.797	7.69
355.927	8.69
356.057	19.69
356.187	-5.31
356.318	-8.31
356.448	14.69
356.578	13.69
356.708	13.69
356.838	11.69
356.968	0.69
357.098	-1.31
357.228	20.69
357.358	5.69
357.488	17.69
357.618	45.69
357.748	15.69
357.878	-7.31
358.008	1.69
358.138	-9.31
358.268	7.69
358.398	14.69
358.528	-14.31
358.658	16.69
358.788	5.69
358.918	30.69
359.048	14.69
359.178	18.69
359.308	10.69
359.438	15.69
359.568	16.69
359.698	4.69
359.827	0.69
359.957	14.69
360.087	21.69
360.217	-8.31
360.347	18.69
360.477	16.69
360.607	-1.31
360.737	10.69
360.866	1.69
360.996	-2.31
361.126	-3.31
361.256	27.69
361.386	28.69
361.516	10.69
361.645	7.69
361.775	10.69
361.905	-6.31
362.035	19.69
362.165	-4.31
362.294	27.69
362.424	13.69
362.554	10.69
362.684	16.69
362.813	6.69
362.943	23.69
363.073	6.69
363.203	9.69
363.332	18.69
363.462	-2.31
363.592	-10.31
363.721	2.69
363.851	3.69
363.981	21.69
364.111	-8.31
364.24	5.69
364.37	16.69
364.5	32.69
364.629	24.69
364.759	-7.31
364.888	-7.31
365.018	5.69
365.148	10.69
365.277	24.69
365.407	8.69
365.537	-3.31
365.666	14.69
365.796	16.69
365.925	20.69
366.055	11.69
366.184	10.69
366.314	11.69
366.444	25.69
366.573	26.69
366.703	5.69
366.832	22.69
366.962	15.69
367.091	24.69
367.221	10.69
367.35	11.69
367.48	38.69
367.609	13.69
367.739	3.69
367.868	-3.31
367.998	5.69
368.127	8.69
368.257	19.69
368.386	34.69
368.516	37.69
368.645	15.69
368.775	6.69
368.904	-5.31
369.033	2.69
369.163	21.69
369.292	23.69
369.422	29.69
369.551	12.69
369.68	17.69
369.81	11.69
369.939	1.69
370.069	23.69
370.198	24.69
370.327	-1.31
370.457	18.69
370.586	10.69
370.715	10.69
370.845	-9.31
370.974	6.69
371.103	10.69
371.233	17.69
371.362	9.69
371.491	-3.31
371.621	14.69
371.75	20.69
371.879	6.69
372.008	19.69
372.138	-2.31
372.267	16.69
372.396	14.69
372.525	15.69
372.655	13.69
372.784	-6.31
372.913	-1.31
373.042	5.69
373.172	30.69
373.301	-10.31
373.43	1.69
373.559	-4.31
373.688	23.69
373.818	42.69
373.947	21.69
374.076	22.69
374.205	16.69
374.334	-6.31
374.463	-15.31
374.593	31.69
374.722	25.69
374.851	42.69
374.98	6.69
375.109	7.69
375.238	11.69
375.367	31.69
375.496	0.69
375.625	0.69
375.755	17.69
375.884	46.69
376.013	14.69
376.142	-9.31
376.271	3.69
376.4	5.69
376.529	13.69
376.658	11.69
376.787	12.69
376.916	10.69
377.045	-12.31
377.174	11.69
377.303	-2.31
377.432	22.69
377.561	8.69
377.69	12.69
377.819	23.69
377.948	19.69
378.077	5.69
378.206	7.69
378.335	17.69
378.464	18.69
378.593	32.69
378.722	16.69
378.851	7.69
378.98	14.69
379.108	-19.31
379.237	-11.31
379.366	16.69
379.495	15.69
379.624	4.69
379.753	13.69
379.882	17.69
380.011	-10.31
380.14	-5.31
380.268	8.69
380.397	-7.31
380.526	19.69
380.655	8.69
380.784	-2.31
380.913	-5.31
381.041	6.69
381.17	-10.31
381.299	19.69
381.428	19.69
381.557	15.69
381.685	-6.31
381.814	9.69
381.943	-3.31
382.072	9.69
382.2	8.69
382.329	13.69
382.458	11.69
382.587	22.69
382.715	18.69
382.844	15.69
382.973	15.69
383.102	22.69
383.23	2.69
383.359	-1.31
383.488	12.69
383.616	13.69
383.745	5.69
383.874	-3.31
384.003	-2.31
384.131	2.69
384.26	4.69
384.389	17.69
384.517	5.69
384.646	-14.31
384.774	-5.31
384.903	25.69
385.032	22.69
385.16	12.69
385.289	8.69
385.418	6.69
385.546	6.69
385.675	13.69
385.803	17.69
385.932	7.69
386.06	4.69
386.189	12.69
386.318	0.69
386.446	-0.31
386.575	2.69
386.703	17.69
386.832	7.69
386.96	-7.31
387.089	16.69
387.217	23.69
387.346	4.69
387.474	5.69
387.603	1.69
387.731	7.69
387.86	19.69
387.988	8.69
388.117	27.69
388.245	5.69
388.374	-17.31
388.502	13.69
388.631	8.69
388.759	-1.31
388.888	13.69
389.016	14.69
389.144	-2.31
389.273	7.69
389.401	-4.31
389.53	-11.31
389.658	22.69
389.786	9.69
389.915	6.69
390.043	-6.31
390.172	13.69
390.3	31.69
390.428	22.69
390.557	13.69
390.685	32.69
390.813	4.69
390.942	28.69
391.07	9.69
391.198	1.69
391.327	-6.31
391.455	-20.31
391.583	23.69
391.712	11.69
391.84	15.69
391.968	2.69
392.096	6.69
392.225	-7.31
392.353	34.69
392.481	7.69
392.609	17.69
392.738	22.69
392.866	5.69
392.994	-12.31
393.122	18.69
393.251	-13.31
393.379	-2.31
393.507	-1.31
393.635	8.69
393.764	32.69
393.892	29.69
394.02	18.69
394.148	2.69
394.276	-15.31
394.404	26.69
394.533	-1.31
394.661	9.69
394.789	2.69
394.917	41.69
395.045	7.69
395.173	-9.31
395.302	4.69
395.43	20.69
395.558	22.69
395.686	38.69
395.814	11.69
395.942	0.69
396.07	5.69
396.198	9.69
396.326	-5.31
396.454	20.69
396.582	23.69
396.711	7.69
396.839	30.69
396.967	14.69
397.095	26.69
397.223	28.69
397.351	41.69
397.479	30.69
397.607	12.69
397.735	18.69
397.863	23.69
397.991	28.69
398.119	-2.31
398.247	25.69
398.375	3.69
398.503	10.69
398.631	11.69
398.759	26.69
398.887	16.69
399.015	10.69
399.143	10.69
399.271	19.69
399.399	23.69
399.526	10.69
399.654	20.69
399.782	1.69
399.91	17.69
400.038	19.69
400.166	7.69
400.294	7.69
400.422	13.69
400.55	22.69
400.678	0.69
400.805	18.69
400.933	6.69
401.061	13.69
401.189	-5.31
401.317	24.69
401.445	27.69
401.573	19.69
401.7	15.69
401.828	8.69
401.956	11.69
402.084	27.69
402.212	21.69
402.34	10.69
402.467	14.69
402.595	18.69
402.723	5.69
402.851	35.69
402.978	20.69
403.106	29.69
403.234	8.69
403.362	35.69
403.489	19.69
403.617	4.69
403.745	1.69
403.873	9.69
404	21.69
404.128	2.69
404.256	18.69
404.384	21.69
404.511	25.69
404.639	-4.31
404.767	3.69
404.894	12.69
405.022	12.69
405.15	38.69
405.277	-3.31
405.405	0.69
405.533	17.69
405.66	-11.31
405.788	-17.31
405.916	8.69
406.043	-10.31
406.171	7.69
406.299	22.69
406.426	18.69
406.554	18.69
406.681	21.69
406.809	24.69
406.937	6.69
407.064	15.69
407.192	13.69
407.319	19.69
407.447	20.69
407.574	29.69
407.702	4.69
407.83	-6.31
407.957	-13.31
408.085	3.69
408.212	-0.31
408.34	20.69
408.467	7.69
408.595	16.69
408.722	40.69
408.85	38.69
408.977	7.69
409.105	3.69
409.232	11.69
409.36	19.69
409.487	2.69
409.615	15.69
409.742	36.69
409.87	25.69
409.997	46.69
410.125	47.69
410.252	57.69
410.379	55.69
410.507	21.69
410.634	24.69
410.762	23.69
410.889	10.69
411.017	32.69
411.144	29.69
411.271	19.69
411.399	12.69
411.526	24.69
411.653	17.69
411.781	32.69
411.908	9.69
412.036	-6.31
412.163	30.69
412.29	3.69
412.418	20.69
412.545	14.69
412.672	8.69
412.8	47.69
412.927	32.69
413.054	38.69
413.182	19.69
413.309	20.69
413.436	16.69
413.564	21.69
413.691	24.69
413.818	27.69
413.945	-4.31
414.073	-4.31
414.2	23.69
414.327	19.69
414.454	11.69
414.582	6.69
414.709	-0.31
414.836	-3.31
414.963	11.69
415.091	16.69
415.218	-7.31
415.345	9.69
415.472	18.69
415.6	-14.31
415.727	17.69
415.854	16.69
415.981	15.69
416.108	11.69
416.236	11.69
416.363	19.69
416.49	14.69
416.617	3.69
416.744	31.69
416.871	20.69
416.998	16.69
417.126	-1.31
417.253	4.69
417.38	-2.31
417.507	16.69
417.634	12.69
417.761	26.69
417.888	31.69
418.015	11.69
418.143	16.69
418.27	22.69
418.397	17.69
418.524	27.69
418.651	3.69
418.778	24.69
418.905	43.69
419.032	28.69
419.159	14.69
419.286	37.69
419.413	31.69
419.54	16.69
419.667	-9.31
419.794	-10.31
419.921	16.69
420.048	16.69
420.175	15.69
420.302	1.69
420.429	-1.31
420.556	25.69
420.683	0.69
420.81	5.69
420.937	4.69
421.064	33.69
421.191	6.69
421.318	25.69
421.445	39.69
421.572	-1.31
421.699	4.69
421.826	7.69
421.953	6.69
422.08	0.69
422.207	-16.31
422.334	-10.31
422.461	22.69
422.588	-8.31
422.714	14.69
422.841	15.69
422.968	2.69
423.095	15.69
423.222	18.69
423.349	12.69
423.476	38.69
423.603	21.69
423.729	11.69
423.856	5.69
423.983	23.69
424.11	4.69
424.237	22.69
424.364	32.69
424.491	11.69
424.617	-26.31
424.744	-17.31
424.871	7.69
424.998	8.69
425.125	3.69
425.251	23.69
425.378	10.69
425.505	18.69
425.632	29.69
425.758	9.69
425.885	30.69
426.012	30.69
426.139	36.69
426.266	-5.31
426.392	-3.31
426.519	19.69
426.646	9.69
426.772	17.69
426.899	4.69
427.026	19.69
427.153	18.69
427.279	35.69
427.406	8.69
427.533	13.69
427.659	31.69
427.786	12.69
427.913	37.69
428.039	21.69
428.166	8.69
428.293	29.69
428.419	11.69
428.546	10.69
428.673	8.69
428.799	10.69
428.926	9.69
429.053	25.69
429.179	10.69
429.306	7.69
429.433	21.69
429.559	32.69
429.686	-5.31
429.812	7.69
429.939	-13.31
430.066	2.69
430.192	10.69
430.319	19.69
430.445	3.69
430.572	5.69
430.699	3.69
430.825	8.69
430.952	21.69
431.078	27.69
431.205	31.69
431.331	-3.31
431.458	14.69
431.584	14.69
431.711	5.69
431.837	13.69
431.964	6.69
432.09	7.69
432.217	-3.31
432.343	0.69
432.47	17.69
432.596	18.69
432.723	13.69
432.849	-12.31
432.976	14.69
433.102	5.69
433.229	17.69
433.355	50.69
433.482	91.69
433.608	165.69
433.735	152.69
433.861	134.69
433.987	158.69
434.114	236.69
434.24	206.69
434.367	76.69
434.493	10.69
434.62	31.69
434.746	21.69
434.872	3.69
434.999	6.69
435.125	18.69
435.252	8.69
435.378	9.69
435.504	3.69
435.631	27.69
435.757	15.69
435.883	27.69
436.01	8.69
436.136	22.69
436.262	28.69
436.389	17.69
436.515	18.69
436.641	17.69
436.768	15.69
436.894	20.69
437.02	14.69
437.147	18.69
437.273	19.69
437.399	6.69
437.526	29.69
437.652	-3.31
437.778	27.69
437.904	-16.31
438.031	-0.31
438.157	16.69
438.283	10.69
438.409	-2.31
438.536	-7.31
438.662	27.69
438.788	15.69
438.914	24.69
439.041	10.69
439.167	32.69
439.293	-4.31
439.419	10.69
439.546	37.69
439.672	6.69
439.798	20.69
439.924	29.69
440.05	44.69
440.177	9.69
440.303	5.69
440.429	9.69
440.555	22.69
440.681	12.69
440.807	22.69
440.934	14.69
441.06	30.69
441.186	19.69
441.312	16.69
441.438	27.69
441.564	21.69
441.69	42.69
441.816	21.69
441.943	2.69
442.069	5.69
442.195	19.69
442.321	27.69
442.447	16.69
442.573	3.69
442.699	11.69
442.825	3.69
442.951	5.69
443.077	20.69
443.203	14.69
443.33	25.69
443.456	-12.31
443.582	22.69
443.708	8.69
443.834	18.69
443.96	23.69
444.086	18.69
444.212	24.69
444.338	14.69
444.464	17.69
444.59	23.69
444.716	22.69
444.842	24.69
444.968	10.69
445.094	13.69
445.22	2.69
445.346	-9.31
445.472	10.69
445.598	8.69
445.724	0.69
445.85	13.69
445.976	5.69
446.102	17.69
446.228	25.69
446.354	9.69
446.48	9.69
446.605	24.69
446.731	14.69
446.857	12.69
446.983	6.69
447.109	2.69
447.235	15.69
447.361	4.69
447.487	23.69
447.613	13.69
447.739	0.69
447.865	10.69
447.99	5.69
448.116	10.69
448.242	12.69
448.368	19.69
448.494	21.69
448.62	19.69
448.746	13.69
448.872	23.69
448.997	18.69
449.123	11.69
449.249	22.69
449.375	23.69
449.501	4.69
449.627	18.69
449.752	46.69
449.878	2.69
450.004	14.69
450.13	24.69
450.256	5.69
450.381	-4.31
450.507	15.69
450.633	19.69
450.759	28.69
450.884	14.69
451.01	32.69
451.136	8.69
451.262	17.69
451.388	10.69
451.513	4.69
451.639	16.69
451.765	17.69
451.89	20.69
452.016	9.69
452.142	7.69
452.268	12.69
452.393	17.69
452.519	9.69
452.645	11.69
452.771	3.69
452.896	-8.31
453.022	-2.31
453.148	30.69
453.273	25.69
453.399	14.69
453.525	20.69
453.65	11.69
453.776	26.69
453.902	10.69
454.027	33.69
454.153	15.69
454.279	29.69
454.404	24.69
454.53	16.69
454.656	24.69
454.781	10.69
454.907	17.69
455.032	16.69
455.158	40.69
455.284	24.69
455.409	13.69
455.535	15.69
455.66	8.69
455.786	21.69
455.912	20.69
456.037	28.69
456.163	10.69
456.288	13.69
456.414	2.69
456.539	-6.31
456.665	11.69
456.791	1.69
456.916	12.69
457.042	29.69
457.167	-1.31
457.293	12.69
457.418	19.69
457.544	18.69
457.669	-5.31
457.795	0.69
457.92	8.69
458.046	13.69
458.171	8.69
458.297	-15.31
458.422	0.69
458.548	7.69
458.673	7.69
458.799	14.69
458.924	-14.31
459.05	24.69
459.175	4.69
459.301	10.69
459.426	21.69
459.552	14.69
459.677	16.69
459.803	46.69
459.928	38.69
460.053	17.69
460.179	19.69
460.304	23.69
460.43	12.69
460.555	15.69
460.681	16.69
460.806	22.69
460.931	16.69
461.057	32.69
461.182	19.69
461.308	36.69
461.433	8.69
461.558	-1.31
461.684	36.69
461.809	24.69
461.934	7.69
462.06	25.69
462.185	-9.31
462.311	5.69
462.436	26.69
462.561	27.69
462.687	12.69
462.812	9.69
462.937	0.69
463.063	-6.31
463.188	-8.31
463.313	27.69
463.439	5.69
463.564	36.69
463.689	27.69
463.814	24.69
463.94	6.69
464.065	26.69
464.19	31.69
464.316	-1.31
464.441	10.69
464.566	-7.31
464.692	4.69
464.817	14.69
464.942	4.69
465.067	13.69
465.193	-15.31
465.318	-4.31
465.443	5.69
465.568	15.69
465.694	27.69
465.819	10.69
465.944	23.69
466.069	17.69
466.194	14.69
466.32	22.69
466.445	14.69
466.57	4.69
466.695	13.69
466.82	16.69
466.946	11.69
467.071	10.69
467.196	-5.31
467.321	18.69
467.446	-1.31
467.572	16.69
467.697	-10.31
467.822	34.69
467.947	22.69
468.072	2.69
468.197	12.69
468.323	-9.31
468.448	9.69
468.573	-0.31
468.698	-2.31
468.823	6.69
468.948	12.69
469.073	14.69
469.198	6.69
469.324	26.69
469.449	2.69
469.574	27.69
469.699	5.69
469.824	17.69
469.949	13.69
470.074	19.69
470.199	50.69
470.324	40.69
470.449	33.69
470.574	8.69
470.7	4.69
470.825	36.69
470.95	40.69
471.075	-3.31
471.2	24.69
471.325	17.69
471.45	-0.31
471.575	2.69
471.7	29.69
471.825	16.69
471.95	10.69
472.075	18.69
472.2	4.69
472.325	17.69
472.45	19.69
472.575	5.69
472.7	2.69
472.825	30.69
472.95	18.69
473.075	18.69
473.2	6.69
473.325	19.69
473.45	3.69
473.575	3.69
473.7	36.69
473.825	13.69
473.95	22.69
474.075	12.69
474.2	21.69
474.325	8.69
474.45	16.69
474.574	25.69
474.699	27.69
474.824	32.69
474.949	9.69
475.074	15.69
475.199	43.69
475.324	43.69
475.449	17.69
475.574	20.69
475.699	13.69
475.824	2.69
475.949	15.69
476.073	7.69
476.198	2.69
476.323	24.69
476.448	23.69
476.573	3.69
476.698	18.69
476.823	33.69
476.947	24.69
477.072	1.69
477.197	-3.31
477.322	13.69
477.447	13.69
477.572	26.69
477.697	18.69
477.821	24.69
477.946	34.69
478.071	21.69
478.196	21.69
478.321	19.69
478.445	23.69
478.57	14.69
478.695	8.69
478.82	24.69
478.945	26.69
479.069	7.69
479.194	1.69
479.319	25.69
479.444	10.69
479.569	4.69
479.693	18.69
479.818	22.69
479.943	22.69
480.068	17.69
480.192	30.69
480.317	23.69
480.442	25.69
480.567	26.69
480.691	12.69
480.816	8.69
480.941	6.69
481.066	41.69
481.19	30.69
481.315	30.69
481.44	-0.31
481.564	-4.31
481.689	40.69
481.814	34.69
481.938	13.69
482.063	15.69
482.188	17.69
482.313	24.69
482.437	29.69
482.562	27.69
482.687	35.69
482.811	23.69
482.936	1.69
483.061	23.69
483.185	19.69
483.31	30.69
483.435	22.69
483.559	10.69
483.684	11.69
483.808	29.69
483.933	11.69
484.058	24.69
484.182	23.69
484.307	21.69
484.432	15.69
484.556	15.69
484.681	28.69
484.805	39.69
484.93	26.69
485.055	46.69
485.179	78.69
485.304	127.69
485.428	352.69
485.553	1239.69
485.678	1689.69
485.802	1597.69
485.927	1802.69
486.051	2648.69
486.176	1613.69
486.3	448.69
486.425	142.69
486.549	92.69
486.674	70.69
486.799	34.69
486.923	32.69
487.048	27.69
487.172	14.69
487.297	37.69
487.421	28.69
487.546	37.69
487.67	30.69
487.795	20.69
487.919	15.69
488.044	39.69
488.168	36.69
488.293	24.69
488.417	10.69
488.542	19.69
488.666	24.69
488.791	40.69
488.915	22.69
489.04	26.69
489.164	26.69
489.289	52.69
489.413	9.69
489.538	30.69
489.662	40.69
489.786	13.69
489.911	18.69
490.035	25.69
490.16	1.69
490.284	15.69
490.409	9.69
490.533	26.69
490.658	34.69
490.782	22.69
490.906	14.69
491.031	32.69
491.155	10.69
491.28	32.69
491.404	38.69
491.528	32.69
491.653	4.69
491.777	34.69
491.902	18.69
492.026	15.69
492.15	17.69
492.275	49.69
492.399	22.69
492.524	11.69
492.648	45.69
492.772	36.69
492.897	26.69
493.021	13.69
493.145	41.69
493.27	16.69
493.394	13.69
493.518	15.69
493.643	19.69
493.767	32.69
493.891	3.69
494.016	8.69
494.14	13.69
494.264	20.69
494.389	30.69
494.513	-0.31
494.637	5.69
494.762	31.69
494.886	22.69
495.01	6.69
495.134	15.69
495.259	22.69
495.383	15.69
495.507	19.69
495.632	39.69
495.756	50.69
495.88	25.69
496.004	17.69
496.129	15.69
496.253	34.69
496.377	22.69
496.501	24.69
496.626	20.69
496.75	31.69
496.874	25.69
496.998	24.69
497.123	24.69
497.247	16.69
497.371	14.69
497.495	27.69
497.62	12.69
497.744	15.69
497.868	26.69
497.992	31.69
498.116	11.69
498.241	21.69
498.365	12.69
498.489	4.69
498.613	30.69
498.737	6.69
498.862	2.69
498.986	5.69
499.11	11.69
499.234	23.69
499.358	12.69
499.482	9.69
499.607	32.69
499.731	14.69
499.855	24.69
499.979	15.69
500.103	22.69
500.227	25.69
500.351	19.69
500.476	28.69
500.6	16.69
500.724	12.69
500.848	13.69
500.972	43.69
501.096	21.69
501.22	34.69
501.344	14.69
501.469	32.69
501.593	20.69
501.717	23.69
501.841	13.69
501.965	22.69
502.089	6.69
502.213	42.69
502.337	15.69
502.461	1.69
502.585	17.69
502.709	8.69
502.834	-2.31
502.958	3.69
503.082	22.69
503.206	30.69
503.33	15.69
503.454	28.69
503.578	31.69
503.702	39.69
503.826	11.69
503.95	25.69
504.074	17.69
504.198	10.69
504.322	3.69
504.446	19.69
504.57	31.69
504.694	17.69
504.818	18.69
504.942	24.69
505.066	9.69
505.19	10.69
505.314	7.69
505.438	27.69
505.562	19.69
505.686	22.69
505.81	10.69
505.934	16.69
506.058	9.69
506.182	22.69
506.306	25.69
506.43	5.69
506.554	0.69
506.678	0.69
506.802	4.69
506.926	22.69
507.05	6.69
507.174	31.69
507.298	38.69
507.422	12.69
507.546	29.69
507.67	24.69
507.794	11.69
507.918	22.69
508.042	21.69
508.165	11.69
508.289	1.69
508.413	0.69
508.537	12.69
508.661	18.69
508.785	13.69
508.909	25.69
509.033	-7.31
509.157	27.69
509.281	29.69
509.405	4.69
509.528	33.69
509.652	38.69
509.776	4.69
509.9	25.69
510.024	8.69
510.148	13.69
510.272	23.69
510.396	34.69
510.519	0.69
510.643	34.69
510.767	19.69
510.891	21.69
511.015	-9.31
511.139	8.69
511.263	23.69
511.386	23.69
511.51	24.69
511.634	20.69
511.758	15.69
511.882	4.69
512.006	24.69
512.129	49.69
512.253	59.69
512.377	10.69
512.501	26.69
512.625	36.69
512.748	21.69
512.872	8.69
512.996	-3.31
513.12	19.69
513.244	-6.31
513.367	14.69
513.491	6.69
513.615	3.69
513.739	8.69
513.862	19.69
513.986	27.69
514.11	40.69
514.234	22.69
514.358	30.69
514.481	34.69
514.605	8.69
514.729	24.69
514.853	7.69
514.976	6.69
515.1	15.69
515.224	16.69
515.348	10.69
515.471	16.69
515.595	19.69
515.719	6.69
515.842	32.69
515.966	29.69
516.09	42.69
516.214	13.69
516.337	42.69
516.461	16.69
516.585	9.69
516.708	8.69
516.832	19.69
516.956	20.69
517.08	19.69
517.203	15.69
517.327	23.69
517.451	23.69
517.574	42.69
517.698	30.69
517.822	26.69
517.945	33.69
518.069	37.69
518.193	40.69
518.316	35.69
518.44	28.69
518.564	23.69
518.687	29.69
518.811	36.69
518.935	56.69
519.058	31.69
519.182	44.69
519.306	48.69
519.429	35.69
519.553	42.69
519.676	36.69
519.8	31.69
519.924	11.69
520.047	34.69
520.171	17.69
520.294	16.69
520.418	17.69
520.542	7.69
520.665	25.69
520.789	11.69
520.913	10.69
521.036	6.69
521.16	21.69
521.283	14.69
521.407	3.69
521.53	9.69
521.654	-8.31
521.778	27.69
521.901	-1.31
522.025	20.69
522.148	15.69
522.272	20.69
522.395	10.69
522.519	18.69
522.643	10.69
522.766	25.69
522.89	6.69
523.013	6.69
523.137	1.69
523.26	3.69
523.384	6.69
523.507	11.69
523.631	12.69
523.754	11.69
523.878	15.69
524.002	18.69
524.125	12.69
524.249	5.69
524.372	9.69
524.496	11.69
524.619	9.69
524.743	13.69
524.866	16.69
524.99	18.69
525.113	2.69
525.237	10.69
525.36	22.69
525.484	22.69
525.607	12.69
525.731	4.69
525.854	16.69
525.978	33.69
526.101	9.69
526.224	5.69
526.348	18.69
526.471	25.69
526.595	19.69
526.718	7.69
526.842	0.69
526.965	12.69
527.089	25.69
527.212	13.69
527.336	-6.31
527.459	32.69
527.582	10.69
527.706	15.69
527.829	29.69
527.953	22.69
528.076	11.69
528.2	4.69
528.323	20.69
528.446	13.69
528.57	18.69
528.693	30.69
528.817	-3.31
528.94	27.69
529.064	43.69
529.187	9.69
529.31	11.69
529.434	0.69
529.557	8.69
529.68	6.69
529.804	29.69
529.927	11.69
530.051	10.69
530.174	10.69
530.297	5.69
530.421	11.69
530.544	34.69
530.668	20.69
530.791	0.69
530.914	23.69
531.038	5.69
531.161	9.69
531.284	16.69
531.408	22.69
531.531	2.69
531.654	22.69
531.778	5.69
531.901	-10.31
532.024	21.69
532.148	-0.31
532.271	7.69
532.394	12.69
532.518	25.69
532.641	35.69
532.764	34.69
532.888	9.69
533.011	4.69
533.134	5.69
533.258	34.69
533.381	10.69
533.504	10.69
533.628	23.69
533.751	27.69
533.874	22.69
533.997	18.69
534.121	4.69
534.244	8.69
534.367	13.69
534.491	1.69
534.614	35.69
534.737	13.69
534.86	1.69
534.984	1.69
535.107	9.69
535.23	21.69
535.354	18.69
535.477	0.69
535.6	2.69
535.723	12.69
535.847	21.69
535.97	1.69
536.093	35.69
536.216	22.69
536.34	30.69
536.463	-10.31
536.586	13.69
536.709	21.69
536.833	33.69
536.956	6.69
537.079	4.69
537.202	15.69
537.325	1.69
537.449	-10.31
537.572	27.69
537.695	12.69
537.818	3.69
537.941	1.69
538.065	18.69
538.188	29.69
538.311	44.69
538.434	18.69
538.558	15.69
538.681	26.69
538.804	28.69
538.927	42.69
539.05	18.69
539.173	15.69
539.297	17.69
539.42	17.69
539.543	22.69
539.666	30.69
539.789	14.69
539.913	22.69
540.036	17.69
540.159	5.69
540.282	9.69
540.405	9.69
540.528	1.69
540.651	29.69
540.775	8.69
540.898	17.69
541.021	17.69
541.144	19.69
541.267	27.69
541.39	-6.31
541.513	15.69
541.637	2.69
541.76	-4.31
541.883	11.69
542.006	12.69
542.129	25.69
542.252	19.69
542.375	17.69
542.498	21.69
542.622	22.69
542.745	21.69
542.868	15.69
542.991	31.69
543.114	21.69
543.237	46.69
543.36	29.69
543.483	15.69
543.606	17.69
543.73	25.69
543.853	3.69
543.976	10.69
544.099	25.69
544.222	19.69
544.345	7.69
544.468	-3.31
544.591	-1.31
544.714	10.69
544.837	35.69
544.96	17.69
545.083	38.69
545.206	12.69
545.329	30.69
545.453	8.69
545.576	24.69
545.699	12.69
545.822	14.69
545.945	35.69
546.068	20.69
546.191	29.69
546.314	15.69
546.437	32.69
546.56	14.69
546.683	18.69
546.806	30.69
546.929	4.69
547.052	-5.31
547.175	-7.31
547.298	11.69
547.421	0.69
547.544	8.69
547.667	27.69
547.79	20.69
547.913	12.69
548.036	-8.31
548.159	17.69
548.282	10.69
548.405	12.69
548.528	24.69
548.651	6.69
548.774	7.69
548.897	35.69
549.02	38.69
549.143	13.69
549.266	16.69
549.389	35.69
549.512	3.69
549.635	28.69
549.758	28.69
549.881	5.69
550.004	12.69
550.127	17.69
550.25	12.69
550.373	5.69
550.496	14.69
550.619	26.69
550.742	3.69
550.865	0.69
550.988	13.69
551.111	28.69
551.234	19.69
551.356	23.69
551.479	-0.31
551.602	-0.31
551.725	24.69
551.848	18.69
551.971	18.69
552.094	14.69
552.217	-3.31
552.34	-0.31
552.463	10.69
552.586	25.69
552.709	10.69
552.832	16.69
552.955	30.69
553.077	18.69
553.2	13.69
553.323	-0.31
553.446	7.69
553.569	-0.31
553.692	2.69
553.815	2.69
553.938	20.69
554.061	28.69
554.184	18.69
554.306	25.69
554.429	17.69
554.552	24.69
554.675	-2.31
554.798	14.69
554.921	13.69
555.044	9.69
555.167	8.69
555.29	6.69
555.412	-2.31
555.535	10.69
555.658	16.69
555.781	20.69
555.904	4.69
556.027	30.69
556.15	17.69
556.272	25.69
556.395	8.69
556.518	6.69
556.641	9.69
556.764	38.69
556.887	13.69
557.01	1.69
557.132	6.69
557.255	15.69
557.378	18.69
557.501	14.69
557.624	15.69
557.747	37.69
557.869	15.69
557.992	22.69
558.115	18.69
558.238	13.69
558.361	8.69
558.483	26.69
558.606	13.69
558.729	8.69
558.852	21.69
558.975	32.69
559.098	27.69
559.22	5.69
559.343	22.69
559.466	18.69
559.589	10.69
559.712	27.69
559.834	9.69
559.957	18.69
560.08	18.69
560.203	26.69
560.325	15.69
560.448	36.69
560.571	24.69
560.694	20.69
560.817	48.69
560.939	11.69
561.062	20.69
561.185	16.69
561.308	9.69
561.43	11.69
561.553	13.69
561.676	1.69
561.799	22.69
561.921	18.69
562.044	0.69
562.167	-5.31
562.29	16.69
562.413	43.69
562.535	24.69
562.658	0.69
562.781	4.69
562.903	19.69
563.026	14.69
563.149	26.69
563.272	23.69
563.394	14.69
563.517	23.69
563.64	13.69
563.763	19.69
563.885	26.69
564.008	30.69
564.131	36.69
564.254	-10.31
564.376	8.69
564.499	0.69
564.622	13.69
564.744	22.69
564.867	18.69
564.99	18.69
565.113	22.69
565.235	16.69
565.358	10.69
565.481	-2.31
565.603	19.69
565.726	16.69
565.849	33.69
565.971	17.69
566.094	23.69
566.217	14.69
566.34	17.69
566.462	18.69
566.585	25.69
566.708	34.69
566.83	29.69
566.953	28.69
567.076	7.69
567.198	23.69
567.321	2.69
567.444	9.69
567.566	12.69
567.689	3.69
567.812	0.69
567.934	18.69
568.057	19.69
568.18	36.69
568.302	11.69
568.425	-3.31
568.548	8.69
568.67	0.69
568.793	16.69
568.916	4.69
569.038	16.69
569.161	26.69
569.283	21.69
569.406	23.69
569.529	0.69
569.651	-11.31
569.774	0.69
569.897	4.69
570.019	23.69
570.142	16.69
570.265	11.69
570.387	9.69
570.51	30.69
570.632	17.69
570.755	5.69
570.878	13.69
571	27.69
571.123	10.69
571.246	32.69
571.368	18.69
571.491	13.69
571.613	6.69
571.736	-3.31
571.859	1.69
571.981	6.69
572.104	9.69
572.226	33.69
572.349	9.69
572.472	9.69
572.594	24.69
572.717	29.69
572.839	5.69
572.962	-3.31
573.085	24.69
573.207	32.69
573.33	16.69
573.452	28.69
573.575	35.69
573.697	16.69
573.82	0.69
573.943	16.69
574.065	26.69
574.188	-0.31
574.31	29.69
574.433	27.69
574.555	29.69
574.678	9.69
574.801	29.69
574.923	8.69
575.046	8.69
575.168	13.69
575.291	-3.31
575.413	8.69
575.536	13.69
575.659	2.69
575.781	2.69
575.904	2.69
576.026	33.69
576.149	7.69
576.271	25.69
576.394	19.69
576.516	7.69
576.639	23.69
576.761	-3.31
576.884	-3.31
577.007	6.69
577.129	9.69
577.252	10.69
577.374	37.69
577.497	-0.31
577.619	2.69
577.742	-5.31
577.864	20.69
577.987	7.69
578.109	27.69
578.232	17.69
578.354	23.69
578.477	6.69
578.599	9.69
578.722	14.69
578.844	10.69
578.967	11.69
579.089	13.69
579.212	-7.31
579.334	25.69
579.457	7.69
579.579	15.69
579.702	12.69
579.824	28.69
579.947	-1.31
580.069	3.69
580.192	-3.31
580.314	5.69
580.437	1.69
580.559	27.69
580.682	13.69
580.804	23.69
580.927	28.69
581.049	46.69
581.172	31.69
581.294	18.69
581.417	18.69
581.539	37.69
581.662	32.69
581.784	14.69
581.907	14.69
582.029	20.69
582.152	0.69
582.274	15.69
582.396	5.69
582.519	9.69
582.641	-6.31
582.764	-10.31
582.886	31.69
583.009	-3.31
583.131	-4.31
583.254	8.69
583.376	26.69
583.499	22.69
583.621	20.69
583.743	33.69
583.866	24.69
583.988	8.69
584.111	32.69
584.233	22.69
584.356	26.69
584.478	24.69
584.601	13.69
584.723	14.69
584.845	40.69
584.968	14.69
585.09	2.69
585.213	17.69
585.335	-8.31
585.458	10.69
585.58	22.69
585.702	47.69
585.825	24.69
585.947	22.69
586.07	16.69
586.192	6.69
586.315	12.69
586.437	8.69
586.559	2.69
586.682	7.69
586.804	13.69
586.927	16.69
587.049	21.69
587.171	16.69
587.294	30.69
587.416	39.69
587.539	7.69
587.661	2.69
587.783	1.69
587.906	-3.31
588.028	22.69
588.151	25.69
588.273	18.69
588.395	7.69
588.518	3.69
588.64	20.69
588.763	24.69
588.885	30.69
589.007	6.69
589.13	-1.31
589.252	0.69
589.375	19.69
589.497	12.69
589.619	23.69
589.742	31.69
589.864	32.69
589.986	1.69
590.109	-1.31
590.231	1.69
590.354	21.69
590.476	-7.31
590.598	8.69
590.721	5.69
590.843	17.69
590.965	12.69
591.088	27.69
591.21	13.69
591.332	20.69
591.455	-5.31
591.577	4.69
591.7	16.69
591.822	21.69
591.944	24.69
592.067	23.69
592.189	15.69
592.311	17.69
592.434	9.69
592.556	11.69
592.678	9.69
592.801	21.69
592.923	16.69
593.045	8.69
593.168	21.69
593.29	10.69
593.412	21.69
593.535	1.69
593.657	13.69
593.779	27.69
593.902	28.69
594.024	4.69
594.146	19.69
594.269	24.69
594.391	8.69
594.513	17.69
594.636	16.69
594.758	6.69
594.88	10.69
595.003	23.69
595.125	21.69
595.247	32.69
595.37	19.69
595.492	5.69
595.614	17.69
595.737	18.69
595.859	4.69
595.981	24.69
596.104	6.69
596.226	20.69
596.348	16.69
596.471	-7.31
596.593	30.69
596.715	2.69
596.838	6.69
596.96	14.69
597.082	30.69
597.204	14.69
597.327	20.69
597.449	-9.31
597.571	-9.31
597.694	30.69
597.816	19.69
597.938	16.69
598.061	13.69
598.183	12.69
598.305	30.69
598.427	28.69
598.55	22.69
598.672	40.69
598.794	22.69
598.917	11.69
599.039	11.69
599.161	23.69
599.283	17.69
599.406	30.69
599.528	10.69
599.65	46.69
599.773	30.69
599.895	29.69
600.017	24.69
600.139	18.69
600.262	18.69
600.384	34.69
600.506	19.69
600.628	28.69
600.751	23.69
600.873	22.69
600.995	15.69
601.118	24.69
601.24	8.69
601.362	4.69
601.484	14.69
601.607	19.69
601.729	18.69
601.851	8.69
601.973	17.69
602.096	-3.31
602.218	11.69
602.34	22.69
602.462	26.69
602.585	12.69
602.707	10.69
602.829	7.69
602.951	8.69
603.074	5.69
603.196	20.69
603.318	4.69
603.44	28.69
603.563	11.69
603.685	-5.31
603.807	21.69
603.929	6.69
604.052	41.69
604.174	21.69
604.296	19.69
604.418	21.69
604.541	32.69
604.663	10.69
604.785	14.69
604.907	14.69
605.03	15.69
605.152	46.69
605.274	2.69
605.396	6.69
605.519	9.69
605.641	17.69
605.763	2.69
605.885	25.69
606.008	20.69
606.13	26.69
606.252	11.69
606.374	1.69
606.496	0.69
606.619	14.69
606.741	22.69
606.863	37.69
606.985	32.69
607.108	30.69
607.23	17.69
607.352	15.69
607.474	20.69
607.596	25.69
607.719	34.69
607.841	27.69
607.963	7.69
608.085	9.69
608.207	41.69
608.33	31.69
608.452	9.69
608.574	4.69
608.696	20.69
608.819	11.69
608.941	39.69
609.063	15.69
609.185	16.69
609.307	12.69
609.43	30.69
609.552	26.69
609.674	3.69
609.796	9.69
609.918	28.69
610.041	12.69
610.163	10.69
610.285	10.69
610.407	19.69
610.529	0.69
610.652	25.69
610.774	19.69
610.896	18.69
611.018	17.69
611.14	16.69
611.263	6.69
611.385	4.69
611.507	14.69
611.629	19.69
611.751	28.69
611.873	47.69
611.996	15.69
612.118	24.69
612.24	13.69
612.362	24.69
612.484	16.69
612.607	20.69
612.729	32.69
612.851	12.69
612.973	9.69
613.095	6.69
613.218	23.69
613.34	33.69
613.462	24.69
613.584	13.69
613.706	15.69
613.828	40.69
613.951	-0.31
614.073	11.69
614.195	0.69
614.317	29.69
614.439	29.69
614.561	10.69
614.684	30.69
614.806	40.69
614.928	4.69
615.05	23.69
615.172	27.69
615.294	31.69
615.417	29.69
615.539	5.69
615.661	7.69
615.783	34.69
615.905	33.69
616.027	76.69
616.15	105.69
616.272	86.69
616.394	64.69
616.516	26.69
616.638	21.69
616.76	1.69
616.883	29.69
617.005	30.69
617.127	34.69
617.249	19.69
617.371	33.69
617.493	4.69
617.615	16.69
617.738	6.69
617.86	7.69
617.982	21.69
618.104	17.69
618.226	19.69
618.348	9.69
618.471	22.69
618.593	17.69
618.715	-5.31
618.837	3.69
618.959	12.69
619.081	13.69
619.203	18.69
619.326	4.69
619.448	26.69
619.57	6.69
619.692	29.69
619.814	38.69
619.936	16.69
620.058	21.69
620.181	16.69
620.303	8.69
620.425	18.69
620.547	15.69
620.669	9.69
620.791	18.69
620.913	10.69
621.036	4.69
621.158	16.69
621.28	12.69
621.402	4.69
621.524	7.69
621.646	14.69
621.768	3.69
621.891	-3.31
622.013	22.69
622.135	8.69
622.257	8.69
622.379	12.69
622.501	13.69
622.623	15.69
622.745	-5.31
622.868	4.69
622.99	5.69
623.112	27.69
623.234	7.69
623.356	21.69
623.478	-1.31
623.6	36.69
623.722	15.69
623.845	25.69
623.967	9.69
624.089	10.69
624.211	18.69
624.333	16.69
624.455	39.69
624.577	6.69
624.699	27.69
624.822	12.69
624.944	11.69
625.066	0.69
625.188	-0.31
625.31	14.69
625.432	33.69
625.554	13.69
625.676	21.69
625.799	2.69
625.921	9.69
626.043	14.69
626.165	20.69
626.287	4.69
626.409	17.69
626.531	8.69
626.653	13.69
626.775	29.69
626.898	19.69
627.02	22.69
627.142	17.69
627.264	35.69
627.386	5.69
627.508	12.69
627.63	8.69
627.752	22.69
627.874	23.69
627.997	30.69
628.119	19.69
628.241	32.69
628.363	23.69
628.485	25.69
628.607	15.69
628.729	11.69
628.851	4.69
628.973	-2.31
629.096	-1.31
629.218	13.69
629.34	15.69
629.462	8.69
629.584	24.69
629.706	18.69
629.828	29.69
629.95	15.69
630.072	19.69
630.195	11.69
630.317	21.69
630.439	19.69
630.561	19.69
630.683	4.69
630.805	26.69
630.927	14.69
631.049	4.69
631.171	1.69
631.293	7.69
631.416	12.69
631.538	22.69
631.66	5.69
631.782	11.69
631.904	36.69
632.026	-2.31
632.148	17.69
632.27	3.69
632.392	8.69
632.514	12.69
632.637	34.69
632.759	21.69
632.881	7.69
633.003	-7.31
633.125	4.69
633.247	9.69
633.369	27.69
633.491	25.69
633.613	18.69
633.735	4.69
633.858	18.69
633.98	10.69
634.102	-0.31
634.224	8.69
634.346	11.69
634.468	25.69
634.59	9.69
634.712	25.69
634.834	22.69
634.956	21.69
635.078	-3.31
635.201	-3.31
635.323	3.69
635.445	9.69
635.567	7.69
635.689	13.69
635.811	9.69
635.933	12.69
636.055	17.69
636.177	14.69
636.299	27.69
636.421	5.69
636.544	-24.31
636.666	5.69
636.788	25.69
636.91	12.69
637.032	12.69
637.154	24.69
637.276	37.69
637.398	19.69
637.52	17.69
637.642	16.69
637.764	17.69
637.887	4.69
638.009	9.69
638.131	6.69
638.253	17.69
638.375	22.69
638.497	16.69
638.619	1.69
638.741	9.69
638.863	-1.31
638.985	1.69
639.107	11.69
639.23	11.69
639.352	13.69
639.474	5.69
639.596	4.69
639.718	11.69
639.84	12.69
639.962	26.69
640.084	31.69
640.206	13.69
640.328	12.69
640.45	12.69
640.573	6.69
640.695	7.69
640.817	12.69
640.939	12.69
641.061	16.69
641.183	11.69
641.305	11.69
641.427	13.69
641.549	15.69
641.671	14.69
641.793	17.69
641.915	10.69
642.038	22.69
642.16	11.69
642.282	14.69
642.404	13.69
642.526	21.69
642.648	10.69
642.77	-6.31
642.892	11.69
643.014	42.69
643.136	19.69
643.258	8.69
643.381	24.69
643.503	30.69
643.625	0.69
643.747	4.69
643.869	19.69
643.991	9.69
644.113	11.69
644.235	1.69
644.357	4.69
644.479	23.69
644.601	7.69
644.723	2.69
644.846	21.69
644.968	-0.31
645.09	-3.31
645.212	2.69
645.334	9.69
645.456	26.69
645.578	21.69
645.7	22.69
645.822	25.69
645.944	30.69
646.066	6.69
646.188	-9.31
646.311	16.69
646.433	20.69
646.555	44.69
646.677	49.69
646.799	31.69
646.921	24.69
647.043	23.69
647.165	1.69
647.287	-0.31
647.409	11.69
647.531	20.69
647.654	2.69
647.776	30.69
647.898	17.69
648.02	22.69
648.142	-1.31
648.264	2.69
648.386	7.69
648.508	-7.31
648.63	11.69
648.752	11.69
648.874	9.69
648.997	27.69
649.119	15.69
649.241	2.69
649.363	29.69
649.485	21.69
649.607	14.69
649.729	4.69
649.851	11.69
649.973	14.69
650.095	5.69
650.217	-3.31
650.34	-3.31
650.462	4.69
650.584	8.69
650.706	4.69
650.828	20.69
650.95	12.69
651.072	15.69
651.194	8.69
651.316	13.69
651.438	23.69
651.56	-0.31
651.683	0.69
651.805	9.69
651.927	8.69
652.049	5.69
652.171	-13.31
652.293	13.69
652.415	5.69
652.537	-6.31
652.659	-9.31
652.781	12.69
652.903	30.69
653.026	58.69
653.148	22.69
653.27	14.69
653.392	29.69
653.514	-0.31
653.636	8.69
653.758	21.69
653.88	10.69
654.002	19.69
654.124	30.69
654.247	25.69
654.369	37.69
654.491	16.69
654.613	19.69
654.735	5.69
654.857	13.69
654.979	23.69
655.101	28.69
655.223	38.69
655.345	26.69
655.468	32.69
655.59	31.69
655.712	32.69
655.834	22.69
655.956	13.69
656.078	37.69
656.2	46.69
656.322	33.69
656.444	37.69
656.566	47.69
656.689	51.69
656.811	50.69
656.933	86.69
657.055	102.69
657.177	157.69
657.299	239.69
657.421	490.69
657.543	1857.69
657.665	12461.69
657.787	15156.69
657.91	15220.69
658.032	15667.69
658.154	4610.69
658.276	3208.69
658.398	1109.69
658.52	1023.69
658.642	471.69
658.764	597.69
658.886	272.69
659.009	409.69
659.131	216.69
659.253	302.69
659.375	156.69
659.497	242.69
659.619	148.69
659.741	201.69
659.863	100.69
659.985	173.69
660.108	108.69
660.23	147.69
660.352	86.69
660.474	141.69
660.596	64.69
660.718	114.69
660.84	67.69
660.962	112.69
661.084	53.69
661.207	115.69
661.329	69.69
661.451	77.69
661.573	48.69
661.695	98.69
661.817	49.69
661.939	97.69
662.061	63.69
662.184	68.69
662.306	42.69
662.428	83.69
662.55	52.69
662.672	67.69
662.794	51.69
662.916	68.69
663.038	33.69
663.161	88.69
663.283	45.69
663.405	72.69
663.527	33.69
663.649	62.69
663.771	39.69
663.893	42.69
664.015	40.69
664.138	34.69
664.26	36.69
664.382	52.69
664.504	30.69
664.626	43.69
664.748	11.69
664.87	45.69
664.992	43.69
665.115	71.69
665.237	36.69
665.359	40.69
665.481	27.69
665.603	50.69
665.725	17.69
665.847	33.69
665.97	14.69
666.092	54.69
666.214	33.69
666.336	28.69
666.458	39.69
666.58	41.69
666.702	30.69
666.825	34.69
666.947	1.69
667.069	43.69
667.191	24.69
667.313	45.69
667.435	17.69
667.557	23.69
667.68	26.69
667.802	37.69
667.924	17.69
668.046	37.69
668.168	16.69
668.29	41.69
668.412	24.69
668.535	31.69
668.657	13.69
668.779	23.69
668.901	16.69
669.023	30.69
669.145	16.69
669.267	46.69
669.39	20.69
669.512	34.69
669.634	16.69
669.756	24.69
669.878	29.69
670	40.69
670.123	4.69
670.245	29.69
670.367	22.69
670.489	44.69
670.611	10.69
670.733	14.69
670.856	34.69
670.978	22.69
671.1	39.69
671.222	42.69
671.344	24.69
671.466	13.69
671.589	0.69
671.711	27.69
671.833	3.69
671.955	26.69
672.077	15.69
672.199	33.69
672.322	33.69
672.444	21.69
672.566	34.69
672.688	24.69
672.81	35.69
672.932	45.69
673.055	13.69
673.177	24.69
673.299	24.69
673.421	24.69
673.543	12.69
673.665	31.69
673.788	8.69
673.91	19.69
674.032	-2.31
674.154	19.69
674.276	32.69
674.399	14.69
674.521	10.69
674.643	40.69
674.765	-6.31
674.887	34.69
675.009	16.69
675.132	24.69
675.254	22.69
675.376	30.69
675.498	13.69
675.62	26.69
675.743	25.69
675.865	41.69
675.987	2.69
676.109	12.69
676.231	30.69
676.354	41.69
676.476	21.69
676.598	30.69
676.72	12.69
676.842	23.69
676.965	6.69
677.087	22.69
677.209	16.69
677.331	26.69
677.453	14.69
677.576	25.69
677.698	19.69
677.82	28.69
677.942	10.69
678.064	25.69
678.187	25.69
678.309	6.69
678.431	4.69
678.553	31.69
678.675	22.69
678.798	26.69
678.92	12.69
679.042	25.69
679.164	4.69
679.286	44.69
679.409	13.69
679.531	2.69
679.653	8.69
679.775	24.69
679.898	-6.31
680.02	6.69
680.142	-3.31
680.264	27.69
680.386	5.69
680.509	39.69
680.631	30.69
680.753	16.69
680.875	-13.31
680.998	30.69
681.12	19.69
681.242	29.69
681.364	15.69
681.486	29.69
681.609	7.69
681.731	5.69
681.853	-6.31
681.975	-2.31
682.098	18.69
682.22	24.69
682.342	0.69
682.464	33.69
682.587	12.69
682.709	16.69
682.831	3.69
682.953	2.69
683.076	4.69
683.198	20.69
683.32	10.69
683.442	34.69
683.565	22.69
683.687	1.69
683.809	10.69
683.931	2.69
684.054	10.69
684.176	12.69
684.298	21.69
684.42	8.69
684.543	12.69
684.665	4.69
684.787	7.69
684.909	14.69
685.032	22.69
685.154	-9.31
685.276	8.69
685.398	14.69
685.521	-5.31
685.643	21.69
685.765	20.69
685.887	24.69
686.01	4.69
686.132	8.69
686.254	8.69
686.377	25.69
686.499	15.69
686.621	20.69
686.743	14.69
686.866	27.69
686.988	42.69
687.11	40.69
687.232	24.69
687.355	4.69
687.477	25.69
687.599	20.69
687.722	4.69
687.844	15.69
687.966	8.69
688.088	13.69
688.211	33.69
688.333	20.69
688.455	19.69
688.578	19.69
688.7	13.69
688.822	40.69
688.944	-1.31
689.067	48.69
689.189	3.69
689.311	-0.31
689.434	14.69
689.556	16.69
689.678	28.69
689.801	5.69
689.923	10.69
690.045	25.69
690.167	20.69
690.29	20.69
690.412	12.69
690.534	19.69
690.657	-7.31
690.779	10.69
690.901	5.69
691.024	11.69
691.146	8.69
691.268	7.69
691.391	17.69
691.513	42.69
691.635	18.69
691.758	26.69
691.88	7.69
692.002	1.69
692.125	17.69
692.247	7.69
692.369	10.69
692.492	-2.31
692.614	4.69
692.736	27.69
692.859	9.69
692.981	16.69
693.103	5.69
693.226	20.69
693.348	44.69
693.47	33.69
693.593	28.69
693.715	-7.31
693.837	-4.31
693.96	13.69
694.082	1.69
694.204	12.69
694.327	10.69
694.449	-7.31
694.571	14.69
694.694	29.69
694.816	22.69
694.938	1.69
695.061	14.69
695.183	6.69
695.305	8.69
695.428	24.69
695.55	-0.31
695.672	8.69
695.795	32.69
695.917	25.69
696.04	1.69
696.162	-2.31
696.284	20.69
696.407	15.69
696.529	23.69
696.651	50.69
696.774	14.69
696.896	27.69
697.019	15.69
697.141	15.69
697.263	8.69
697.386	12.69
697.508	1.69
697.63	14.69
697.753	-3.31
697.875	5.69
697.998	-9.31
698.12	13.69
698.242	6.69
698.365	0.69
698.487	13.69
698.61	14.69
698.732	12.69
698.854	10.69
698.977	0.69
699.099	33.69
699.221	10.69
699.344	16.69
699.466	14.69
699.589	4.69
699.711	4.69
699.834	22.69
699.956	28.69
700.078	19.69
700.201	3.69
700.323	24.69
700.446	17.69
700.568	24.69
700.69	31.69
700.813	12.69
700.935	10.69
701.058	16.69
701.18	4.69
701.302	28.69
701.425	8.69
701.547	5.69
701.67	8.69
701.792	6.69
701.915	-1.31
702.037	8.69
702.159	17.69
702.282	20.69
702.404	4.69
702.527	18.69
702.649	40.69
702.772	24.69
702.894	16.69
703.017	27.69
703.139	34.69
703.261	21.69
703.384	6.69
703.506	-9.31
703.629	-12.31
703.751	25.69
703.874	0.69
703.996	1.69
704.119	14.69
704.241	18.69
704.364	-2.31
704.486	12.69
704.608	22.69
704.731	12.69
704.853	7.69
704.976	6.69
705.098	34.69
705.221	25.69
705.343	10.69
705.466	12.69
705.588	18.69
705.711	18.69
705.833	23.69
705.956	0.69
706.078	21.69
706.201	19.69
706.323	10.69
706.446	-5.31
