Data from LowRes_H2_15_26_11_07_2024_HR4C61881__51__15-28-18-737.txt Node

Date: Thu Nov 07 15:28:18 EST 2024
User: crc00042
Spectrometer: HR4C6188
Trigger mode: 4
Integration Time (sec): 1.000000E-1
Scans to average: 1
Electric dark correction enabled: true
Nonlinearity correction enabled: false
Boxcar width: 0
XAxis mode: Wavelengths
Number of Pixels in Spectrum: 3648
>>>>>Begin Spectral Data<<<<<
245.66	-122.31
245.797	-122.31
245.934	-122.31
246.071	-73.31
246.208	16.69
246.344	5.69
246.481	-8.31
246.618	-13.31
246.755	11.69
246.892	-5.31
247.029	-4.31
247.165	-18.31
247.302	3.69
247.439	0.69
247.576	3.69
247.713	-4.31
247.849	32.69
247.986	-4.31
248.123	14.69
248.26	8.69
248.396	10.69
248.533	2.69
248.67	1.69
248.806	-12.31
248.943	-14.31
249.08	4.69
249.216	13.69
249.353	-11.31
249.49	-7.31
249.626	-0.31
249.763	8.69
249.9	-6.31
250.036	7.69
250.173	28.69
250.309	4.69
250.446	8.69
250.582	-12.31
250.719	-9.31
250.856	-10.31
250.992	-9.31
251.129	3.69
251.265	-8.31
251.402	-9.31
251.538	6.69
251.675	11.69
251.811	17.69
251.948	16.69
252.084	9.69
252.221	-8.31
252.357	6.69
252.493	34.69
252.63	14.69
252.766	3.69
252.903	1.69
253.039	2.69
253.175	4.69
253.312	1.69
253.448	0.69
253.585	-20.31
253.721	6.69
253.857	-9.31
253.994	10.69
254.13	2.69
254.266	5.69
254.403	-4.31
254.539	-1.31
254.675	-1.31
254.811	2.69
254.948	0.69
255.084	-4.31
255.22	-19.31
255.356	-8.31
255.493	14.69
255.629	-7.31
255.765	-13.31
255.901	13.69
256.037	7.69
256.174	10.69
256.31	-10.31
256.446	7.69
256.582	8.69
256.718	22.69
256.854	11.69
256.991	15.69
257.127	5.69
257.263	14.69
257.399	17.69
257.535	-5.31
257.671	-14.31
257.807	-4.31
257.943	-16.31
258.079	-5.31
258.215	-3.31
258.351	10.69
258.487	-2.31
258.623	19.69
258.759	-3.31
258.895	0.69
259.031	7.69
259.167	-4.31
259.303	27.69
259.439	19.69
259.575	5.69
259.711	-9.31
259.847	3.69
259.983	10.69
260.119	-8.31
260.255	3.69
260.391	21.69
260.527	12.69
260.663	6.69
260.799	23.69
260.934	6.69
261.07	-1.31
261.206	-16.31
261.342	-18.31
261.478	27.69
261.614	25.69
261.749	3.69
261.885	-6.31
262.021	-2.31
262.157	14.69
262.293	7.69
262.428	21.69
262.564	10.69
262.7	28.69
262.836	-10.31
262.971	19.69
263.107	8.69
263.243	12.69
263.378	1.69
263.514	2.69
263.65	11.69
263.785	-14.31
263.921	1.69
264.057	14.69
264.192	-3.31
264.328	33.69
264.464	-0.31
264.599	17.69
264.735	16.69
264.871	-6.31
265.006	-5.31
265.142	4.69
265.277	-3.31
265.413	29.69
265.548	14.69
265.684	31.69
265.819	13.69
265.955	10.69
266.091	-16.31
266.226	-5.31
266.362	7.69
266.497	15.69
266.633	3.69
266.768	-5.31
266.903	14.69
267.039	21.69
267.174	30.69
267.31	-12.31
267.445	6.69
267.581	7.69
267.716	14.69
267.851	12.69
267.987	13.69
268.122	14.69
268.258	-17.31
268.393	-16.31
268.528	25.69
268.664	-0.31
268.799	-4.31
268.934	-4.31
269.07	3.69
269.205	13.69
269.34	19.69
269.476	-9.31
269.611	-13.31
269.746	24.69
269.881	0.69
270.017	-1.31
270.152	16.69
270.287	16.69
270.422	24.69
270.558	-8.31
270.693	11.69
270.828	6.69
270.963	-16.31
271.098	4.69
271.234	-18.31
271.369	16.69
271.504	11.69
271.639	-12.31
271.774	-0.31
271.909	-6.31
272.045	-27.31
272.18	-12.31
272.315	12.69
272.45	10.69
272.585	-22.31
272.72	-12.31
272.855	9.69
272.99	18.69
273.125	-5.31
273.26	-18.31
273.395	-5.31
273.53	5.69
273.665	9.69
273.8	-4.31
273.935	-1.31
274.07	22.69
274.205	6.69
274.34	-8.31
274.475	1.69
274.61	20.69
274.745	-3.31
274.88	27.69
275.015	8.69
275.15	21.69
275.285	26.69
275.42	10.69
275.555	12.69
275.69	19.69
275.825	13.69
275.959	12.69
276.094	-9.31
276.229	13.69
276.364	-12.31
276.499	-15.31
276.634	19.69
276.768	10.69
276.903	2.69
277.038	13.69
277.173	11.69
277.308	9.69
277.442	6.69
277.577	4.69
277.712	6.69
277.847	2.69
277.981	18.69
278.116	-6.31
278.251	-2.31
278.386	-4.31
278.52	9.69
278.655	12.69
278.79	13.69
278.924	-0.31
279.059	9.69
279.194	-10.31
279.328	33.69
279.463	8.69
279.598	25.69
279.732	11.69
279.867	5.69
280.001	27.69
280.136	11.69
280.271	12.69
280.405	7.69
280.54	-10.31
280.674	8.69
280.809	21.69
280.943	-11.31
281.078	1.69
281.213	18.69
281.347	28.69
281.482	14.69
281.616	7.69
281.751	20.69
281.885	-15.31
282.02	-4.31
282.154	10.69
282.288	-8.31
282.423	1.69
282.557	-10.31
282.692	2.69
282.826	7.69
282.961	9.69
283.095	11.69
283.229	-7.31
283.364	2.69
283.498	-3.31
283.633	10.69
283.767	1.69
283.901	-11.31
284.036	6.69
284.17	-3.31
284.304	-9.31
284.439	-4.31
284.573	-1.31
284.707	3.69
284.842	-13.31
284.976	2.69
285.11	-14.31
285.244	0.69
285.379	51.69
285.513	-7.31
285.647	21.69
285.781	27.69
285.916	14.69
286.05	1.69
286.184	13.69
286.318	13.69
286.453	-3.31
286.587	-20.31
286.721	1.69
286.855	-5.31
286.989	-5.31
287.123	-17.31
287.258	-7.31
287.392	6.69
287.526	9.69
287.66	-3.31
287.794	7.69
287.928	-3.31
288.062	10.69
288.196	-11.31
288.33	15.69
288.464	26.69
288.598	13.69
288.733	6.69
288.867	17.69
289.001	3.69
289.135	8.69
289.269	-20.31
289.403	15.69
289.537	-1.31
289.671	-12.31
289.805	-28.31
289.939	7.69
290.073	-8.31
290.207	12.69
290.34	16.69
290.474	10.69
290.608	15.69
290.742	24.69
290.876	11.69
291.01	-8.31
291.144	29.69
291.278	13.69
291.412	6.69
291.546	-5.31
291.679	-19.31
291.813	13.69
291.947	13.69
292.081	-0.31
292.215	8.69
292.349	21.69
292.482	25.69
292.616	26.69
292.75	14.69
292.884	15.69
293.018	-6.31
293.151	-17.31
293.285	-8.31
293.419	1.69
293.553	-12.31
293.686	-3.31
293.82	12.69
293.954	12.69
294.088	19.69
294.221	-16.31
294.355	-14.31
294.489	-10.31
294.622	-8.31
294.756	-4.31
294.89	2.69
295.023	-0.31
295.157	30.69
295.291	8.69
295.424	15.69
295.558	6.69
295.691	13.69
295.825	-2.31
295.959	10.69
296.092	6.69
296.226	-3.31
296.359	9.69
296.493	8.69
296.627	6.69
296.76	-4.31
296.894	-10.31
297.027	-3.31
297.161	12.69
297.294	-5.31
297.428	1.69
297.561	20.69
297.695	3.69
297.828	10.69
297.962	10.69
298.095	-12.31
298.229	9.69
298.362	-3.31
298.495	1.69
298.629	-3.31
298.762	6.69
298.896	3.69
299.029	-13.31
299.162	-0.31
299.296	0.69
299.429	8.69
299.563	2.69
299.696	18.69
299.829	-0.31
299.963	9.69
300.096	10.69
300.229	22.69
300.363	11.69
300.496	4.69
300.629	2.69
300.763	6.69
300.896	-1.31
301.029	14.69
301.162	14.69
301.296	-6.31
301.429	12.69
301.562	-27.31
301.695	17.69
301.829	4.69
301.962	18.69
302.095	6.69
302.228	-12.31
302.362	-1.31
302.495	7.69
302.628	22.69
302.761	3.69
302.894	10.69
303.027	12.69
303.161	7.69
303.294	-10.31
303.427	3.69
303.56	9.69
303.693	9.69
303.826	7.69
303.959	-10.31
304.092	16.69
304.225	4.69
304.359	9.69
304.492	24.69
304.625	-7.31
304.758	-2.31
304.891	5.69
305.024	14.69
305.157	2.69
305.29	3.69
305.423	-7.31
305.556	-1.31
305.689	8.69
305.822	-12.31
305.955	-5.31
306.088	-10.31
306.221	-0.31
306.354	11.69
306.487	-4.31
306.62	-8.31
306.752	-8.31
306.885	-1.31
307.018	2.69
307.151	31.69
307.284	21.69
307.417	-25.31
307.55	11.69
307.683	-5.31
307.816	28.69
307.948	14.69
308.081	17.69
308.214	8.69
308.347	13.69
308.48	-2.31
308.613	-9.31
308.745	15.69
308.878	6.69
309.011	-6.31
309.144	1.69
309.277	13.69
309.409	23.69
309.542	-7.31
309.675	17.69
309.808	3.69
309.94	44.69
310.073	-7.31
310.206	0.69
310.339	20.69
310.471	-9.31
310.604	7.69
310.737	3.69
310.869	-11.31
311.002	9.69
311.135	9.69
311.267	-14.31
311.4	10.69
311.533	27.69
311.665	4.69
311.798	-9.31
311.93	24.69
312.063	9.69
312.196	10.69
312.328	-3.31
312.461	11.69
312.593	12.69
312.726	15.69
312.859	-1.31
312.991	8.69
313.124	-22.31
313.256	6.69
313.389	21.69
313.521	8.69
313.654	-2.31
313.786	-7.31
313.919	-2.31
314.051	5.69
314.184	10.69
314.316	5.69
314.449	-28.31
314.581	-10.31
314.714	4.69
314.846	15.69
314.978	-14.31
315.111	-12.31
315.243	2.69
315.376	5.69
315.508	17.69
315.641	15.69
315.773	13.69
315.905	13.69
316.038	0.69
316.17	5.69
316.302	18.69
316.435	0.69
316.567	12.69
316.699	23.69
316.832	8.69
316.964	-8.31
317.096	-3.31
317.229	-3.31
317.361	-10.31
317.493	-1.31
317.625	-10.31
317.758	-1.31
317.89	24.69
318.022	20.69
318.155	5.69
318.287	7.69
318.419	3.69
318.551	6.69
318.683	-0.31
318.816	1.69
318.948	-17.31
319.08	-4.31
319.212	-6.31
319.344	10.69
319.477	5.69
319.609	15.69
319.741	23.69
319.873	16.69
320.005	-9.31
320.137	-11.31
320.269	-0.31
320.401	8.69
320.534	-0.31
320.666	-0.31
320.798	-22.31
320.93	-4.31
321.062	-4.31
321.194	-3.31
321.326	-3.31
321.458	10.69
321.59	9.69
321.722	3.69
321.854	-0.31
321.986	15.69
322.118	21.69
322.25	-3.31
322.382	4.69
322.514	14.69
322.646	-16.31
322.778	-3.31
322.91	-14.31
323.042	3.69
323.174	-1.31
323.306	8.69
323.438	-6.31
323.57	8.69
323.702	2.69
323.834	-3.31
323.966	-12.31
324.097	13.69
324.229	7.69
324.361	-0.31
324.493	5.69
324.625	7.69
324.757	0.69
324.889	-4.31
325.021	5.69
325.152	23.69
325.284	23.69
325.416	-3.31
325.548	20.69
325.68	-1.31
325.811	26.69
325.943	5.69
326.075	-0.31
326.207	4.69
326.339	5.69
326.47	-20.31
326.602	24.69
326.734	20.69
326.866	17.69
326.997	-16.31
327.129	-16.31
327.261	-16.31
327.392	-2.31
327.524	10.69
327.656	-10.31
327.787	-0.31
327.919	3.69
328.051	8.69
328.182	30.69
328.314	32.69
328.446	11.69
328.577	22.69
328.709	1.69
328.841	-11.31
328.972	-2.31
329.104	-8.31
329.235	-6.31
329.367	6.69
329.499	2.69
329.63	7.69
329.762	1.69
329.893	14.69
330.025	-8.31
330.156	-4.31
330.288	15.69
330.419	18.69
330.551	12.69
330.683	2.69
330.814	15.69
330.946	16.69
331.077	-3.31
331.208	-1.31
331.34	-10.31
331.471	-4.31
331.603	4.69
331.734	-14.31
331.866	-1.31
331.997	13.69
332.129	-2.31
332.26	-16.31
332.392	14.69
332.523	-4.31
332.654	-29.31
332.786	-19.31
332.917	-12.31
333.048	18.69
333.18	11.69
333.311	-0.31
333.443	4.69
333.574	-3.31
333.705	25.69
333.837	13.69
333.968	6.69
334.099	32.69
334.231	21.69
334.362	-5.31
334.493	29.69
334.624	15.69
334.756	11.69
334.887	17.69
335.018	-5.31
335.15	11.69
335.281	-8.31
335.412	21.69
335.543	5.69
335.675	-4.31
335.806	12.69
335.937	-5.31
336.068	5.69
336.199	34.69
336.331	6.69
336.462	0.69
336.593	14.69
336.724	-12.31
336.855	2.69
336.986	5.69
337.118	17.69
337.249	2.69
337.38	12.69
337.511	-7.31
337.642	4.69
337.773	4.69
337.904	15.69
338.035	11.69
338.166	18.69
338.298	8.69
338.429	-22.31
338.56	11.69
338.691	5.69
338.822	16.69
338.953	23.69
339.084	19.69
339.215	29.69
339.346	18.69
339.477	8.69
339.608	-5.31
339.739	1.69
339.87	9.69
340.001	-10.31
340.132	32.69
340.263	12.69
340.394	-9.31
340.525	2.69
340.656	-20.31
340.787	-15.31
340.918	27.69
341.049	-3.31
341.179	0.69
341.31	3.69
341.441	10.69
341.572	-4.31
341.703	-5.31
341.834	-15.31
341.965	9.69
342.096	-3.31
342.227	-4.31
342.357	11.69
342.488	-6.31
342.619	25.69
342.75	0.69
342.881	11.69
343.012	5.69
343.142	38.69
343.273	11.69
343.404	8.69
343.535	28.69
343.666	28.69
343.796	16.69
343.927	23.69
344.058	20.69
344.189	7.69
344.319	-0.31
344.45	-1.31
344.581	6.69
344.712	-3.31
344.842	-3.31
344.973	-6.31
345.104	-1.31
345.234	7.69
345.365	4.69
345.496	-4.31
345.626	3.69
345.757	10.69
345.888	-17.31
346.018	7.69
346.149	4.69
346.28	30.69
346.41	9.69
346.541	4.69
346.672	1.69
346.802	12.69
346.933	2.69
347.063	13.69
347.194	5.69
347.325	7.69
347.455	16.69
347.586	16.69
347.716	-6.31
347.847	10.69
347.977	-1.31
348.108	25.69
348.238	18.69
348.369	1.69
348.499	14.69
348.63	23.69
348.76	1.69
348.891	12.69
349.021	1.69
349.152	-1.31
349.282	7.69
349.413	-1.31
349.543	15.69
349.674	1.69
349.804	1.69
349.935	-4.31
350.065	-0.31
350.196	-5.31
350.326	3.69
350.456	5.69
350.587	24.69
350.717	30.69
350.848	23.69
350.978	4.69
351.108	-13.31
351.239	39.69
351.369	17.69
351.499	-6.31
351.63	-11.31
351.76	-0.31
351.89	-2.31
352.021	6.69
352.151	8.69
352.281	3.69
352.412	13.69
352.542	4.69
352.672	-2.31
352.803	11.69
352.933	10.69
353.063	14.69
353.193	22.69
353.324	6.69
353.454	33.69
353.584	28.69
353.714	12.69
353.845	12.69
353.975	10.69
354.105	0.69
354.235	20.69
354.365	3.69
354.496	29.69
354.626	26.69
354.756	15.69
354.886	-4.31
355.016	25.69
355.146	14.69
355.277	1.69
355.407	-1.31
355.537	12.69
355.667	23.69
355.797	3.69
355.927	4.69
356.057	2.69
356.187	14.69
356.318	10.69
356.448	26.69
356.578	20.69
356.708	16.69
356.838	8.69
356.968	18.69
357.098	-6.31
357.228	11.69
357.358	-2.31
357.488	-5.31
357.618	15.69
357.748	32.69
357.878	5.69
358.008	-5.31
358.138	-0.31
358.268	16.69
358.398	14.69
358.528	-16.31
358.658	7.69
358.788	7.69
358.918	0.69
359.048	12.69
359.178	30.69
359.308	9.69
359.438	18.69
359.568	28.69
359.698	12.69
359.827	5.69
359.957	12.69
360.087	9.69
360.217	5.69
360.347	-0.31
360.477	23.69
360.607	-10.31
360.737	18.69
360.866	5.69
360.996	-10.31
361.126	-13.31
361.256	27.69
361.386	11.69
361.516	24.69
361.645	4.69
361.775	16.69
361.905	-10.31
362.035	26.69
362.165	7.69
362.294	17.69
362.424	25.69
362.554	12.69
362.684	-4.31
362.813	19.69
362.943	-0.31
363.073	-0.31
363.203	5.69
363.332	19.69
363.462	-3.31
363.592	9.69
363.721	17.69
363.851	5.69
363.981	19.69
364.111	17.69
364.24	5.69
364.37	18.69
364.5	31.69
364.629	25.69
364.759	-5.31
364.888	-21.31
365.018	5.69
365.148	16.69
365.277	11.69
365.407	25.69
365.537	14.69
365.666	-0.31
365.796	-0.31
365.925	17.69
366.055	8.69
366.184	-5.31
366.314	-0.31
366.444	19.69
366.573	1.69
366.703	-7.31
366.832	12.69
366.962	18.69
367.091	24.69
367.221	6.69
367.35	9.69
367.48	43.69
367.609	12.69
367.739	17.69
367.868	6.69
367.998	0.69
368.127	17.69
368.257	16.69
368.386	39.69
368.516	19.69
368.645	13.69
368.775	8.69
368.904	-10.31
369.033	2.69
369.163	-14.31
369.292	17.69
369.422	20.69
369.551	22.69
369.68	9.69
369.81	23.69
369.939	11.69
370.069	10.69
370.198	16.69
370.327	-15.31
370.457	0.69
370.586	7.69
370.715	-0.31
370.845	1.69
370.974	6.69
371.103	18.69
371.233	9.69
371.362	8.69
371.491	19.69
371.621	24.69
371.75	6.69
371.879	-10.31
372.008	2.69
372.138	5.69
372.267	16.69
372.396	5.69
372.525	3.69
372.655	14.69
372.784	-11.31
372.913	3.69
373.042	7.69
373.172	37.69
373.301	-19.31
373.43	-2.31
373.559	10.69
373.688	7.69
373.818	22.69
373.947	20.69
374.076	17.69
374.205	10.69
374.334	9.69
374.463	-12.31
374.593	9.69
374.722	11.69
374.851	25.69
374.98	-6.31
375.109	7.69
375.238	10.69
375.367	37.69
375.496	-15.31
375.625	-9.31
375.755	10.69
375.884	18.69
376.013	15.69
376.142	9.69
376.271	-5.31
376.4	4.69
376.529	21.69
376.658	16.69
376.787	-11.31
376.916	1.69
377.045	-0.31
377.174	0.69
377.303	5.69
377.432	27.69
377.561	17.69
377.69	3.69
377.819	25.69
377.948	-15.31
378.077	-7.31
378.206	-11.31
378.335	27.69
378.464	-0.31
378.593	20.69
378.722	9.69
378.851	4.69
378.98	17.69
379.108	-6.31
379.237	-2.31
379.366	10.69
379.495	15.69
379.624	12.69
379.753	4.69
379.882	-4.31
380.011	-7.31
380.14	-23.31
380.268	10.69
380.397	-3.31
380.526	32.69
380.655	13.69
380.784	-18.31
380.913	-8.31
381.041	11.69
381.17	-13.31
381.299	-17.31
381.428	15.69
381.557	10.69
381.685	-6.31
381.814	9.69
381.943	-5.31
382.072	3.69
382.2	6.69
382.329	2.69
382.458	-1.31
382.587	25.69
382.715	21.69
382.844	24.69
382.973	18.69
383.102	5.69
383.23	0.69
383.359	-18.31
383.488	13.69
383.616	9.69
383.745	-22.31
383.874	9.69
384.003	-6.31
384.131	6.69
384.26	-0.31
384.389	6.69
384.517	-19.31
384.646	-2.31
384.774	14.69
384.903	13.69
385.032	20.69
385.16	16.69
385.289	4.69
385.418	7.69
385.546	9.69
385.675	25.69
385.803	9.69
385.932	10.69
386.06	12.69
386.189	-0.31
386.318	18.69
386.446	4.69
386.575	5.69
386.703	-8.31
386.832	-0.31
386.96	-9.31
387.089	18.69
387.217	14.69
387.346	-18.31
387.474	-5.31
387.603	18.69
387.731	20.69
387.86	34.69
387.988	20.69
388.117	20.69
388.245	10.69
388.374	9.69
388.502	10.69
388.631	-16.31
388.759	0.69
388.888	1.69
389.016	-6.31
389.144	-3.31
389.273	22.69
389.401	4.69
389.53	-8.31
389.658	12.69
389.786	10.69
389.915	9.69
390.043	22.69
390.172	-0.31
390.3	26.69
390.428	22.69
390.557	12.69
390.685	-9.31
390.813	6.69
390.942	18.69
391.07	-6.31
391.198	7.69
391.327	11.69
391.455	-11.31
391.583	13.69
391.712	2.69
391.84	4.69
391.968	-2.31
392.096	7.69
392.225	4.69
392.353	20.69
392.481	18.69
392.609	41.69
392.738	26.69
392.866	4.69
392.994	-14.31
393.122	23.69
393.251	7.69
393.379	-15.31
393.507	-13.31
393.635	-4.31
393.764	22.69
393.892	16.69
394.02	-6.31
394.148	-1.31
394.276	15.69
394.404	35.69
394.533	-6.31
394.661	7.69
394.789	32.69
394.917	21.69
395.045	-5.31
395.173	-1.31
395.302	11.69
395.43	-2.31
395.558	23.69
395.686	17.69
395.814	20.69
395.942	-1.31
396.07	2.69
396.198	-0.31
396.326	18.69
396.454	22.69
396.582	23.69
396.711	-0.31
396.839	20.69
396.967	17.69
397.095	7.69
397.223	27.69
397.351	30.69
397.479	9.69
397.607	-0.31
397.735	14.69
397.863	9.69
397.991	16.69
398.119	-6.31
398.247	5.69
398.375	1.69
398.503	10.69
398.631	14.69
398.759	8.69
398.887	4.69
399.015	3.69
399.143	-6.31
399.271	25.69
399.399	29.69
399.526	7.69
399.654	26.69
399.782	-5.31
399.91	21.69
400.038	32.69
400.166	17.69
400.294	16.69
400.422	11.69
400.55	11.69
400.678	20.69
400.805	8.69
400.933	-6.31
401.061	23.69
401.189	15.69
401.317	25.69
401.445	31.69
401.573	13.69
401.7	-5.31
401.828	-1.31
401.956	14.69
402.084	17.69
402.212	27.69
402.34	3.69
402.467	13.69
402.595	33.69
402.723	25.69
402.851	30.69
402.978	12.69
403.106	27.69
403.234	0.69
403.362	11.69
403.489	14.69
403.617	19.69
403.745	1.69
403.873	3.69
404	18.69
404.128	7.69
404.256	27.69
404.384	20.69
404.511	14.69
404.639	2.69
404.767	-7.31
404.894	9.69
405.022	4.69
405.15	35.69
405.277	10.69
405.405	-4.31
405.533	7.69
405.66	-7.31
405.788	-4.31
405.916	-22.31
406.043	-9.31
406.171	-16.31
406.299	23.69
406.426	20.69
406.554	26.69
406.681	20.69
406.809	7.69
406.937	10.69
407.064	7.69
407.192	21.69
407.319	14.69
407.447	8.69
407.574	18.69
407.702	8.69
407.83	-15.31
407.957	0.69
408.085	37.69
408.212	14.69
408.34	14.69
408.467	-1.31
408.595	8.69
408.722	8.69
408.85	34.69
408.977	5.69
409.105	18.69
409.232	30.69
409.36	13.69
409.487	9.69
409.615	8.69
409.742	21.69
409.87	17.69
409.997	23.69
410.125	59.69
410.252	69.69
410.379	59.69
410.507	29.69
410.634	21.69
410.762	21.69
410.889	44.69
411.017	7.69
411.144	18.69
411.271	7.69
411.399	7.69
411.526	29.69
411.653	2.69
411.781	27.69
411.908	17.69
412.036	-0.31
412.163	35.69
412.29	23.69
412.418	7.69
412.545	16.69
412.672	8.69
412.8	39.69
412.927	6.69
413.054	31.69
413.182	9.69
413.309	-1.31
413.436	-4.31
413.564	-0.31
413.691	14.69
413.818	29.69
413.945	-15.31
414.073	6.69
414.2	4.69
414.327	19.69
414.454	17.69
414.582	3.69
414.709	10.69
414.836	-9.31
414.963	18.69
415.091	22.69
415.218	12.69
415.345	-4.31
415.472	-0.31
415.6	-6.31
415.727	12.69
415.854	15.69
415.981	8.69
416.108	-5.31
416.236	7.69
416.363	27.69
416.49	1.69
416.617	12.69
416.744	28.69
416.871	15.69
416.998	11.69
417.126	7.69
417.253	22.69
417.38	6.69
417.507	11.69
417.634	-5.31
417.761	5.69
417.888	3.69
418.015	11.69
418.143	17.69
418.27	13.69
418.397	9.69
418.524	9.69
418.651	-2.31
418.778	4.69
418.905	33.69
419.032	27.69
419.159	-0.31
419.286	43.69
419.413	10.69
419.54	27.69
419.667	3.69
419.794	-10.31
419.921	10.69
420.048	19.69
420.175	17.69
420.302	-0.31
420.429	18.69
420.556	16.69
420.683	-2.31
420.81	-1.31
420.937	4.69
421.064	10.69
421.191	18.69
421.318	25.69
421.445	8.69
421.572	7.69
421.699	15.69
421.826	13.69
421.953	14.69
422.08	13.69
422.207	3.69
422.334	0.69
422.461	26.69
422.588	2.69
422.714	18.69
422.841	28.69
422.968	12.69
423.095	10.69
423.222	-12.31
423.349	-4.31
423.476	17.69
423.603	6.69
423.729	2.69
423.856	5.69
423.983	6.69
424.11	16.69
424.237	13.69
424.364	25.69
424.491	1.69
424.617	-6.31
424.744	6.69
424.871	12.69
424.998	6.69
425.125	3.69
425.251	13.69
425.378	19.69
425.505	20.69
425.632	12.69
425.758	5.69
425.885	19.69
426.012	19.69
426.139	21.69
426.266	3.69
426.392	16.69
426.519	18.69
426.646	6.69
426.772	35.69
426.899	12.69
427.026	16.69
427.153	0.69
427.279	18.69
427.406	11.69
427.533	10.69
427.659	19.69
427.786	7.69
427.913	37.69
428.039	15.69
428.166	24.69
428.293	13.69
428.419	8.69
428.546	11.69
428.673	-1.31
428.799	-3.31
428.926	12.69
429.053	32.69
429.179	15.69
429.306	34.69
429.433	56.69
429.559	11.69
429.686	5.69
429.812	-0.31
429.939	12.69
430.066	7.69
430.192	15.69
430.319	27.69
430.445	18.69
430.572	0.69
430.699	-5.31
430.825	-3.31
430.952	8.69
431.078	5.69
431.205	7.69
431.331	7.69
431.458	19.69
431.584	24.69
431.711	4.69
431.837	21.69
431.964	8.69
432.09	18.69
432.217	1.69
432.343	4.69
432.47	31.69
432.596	11.69
432.723	-6.31
432.849	5.69
432.976	9.69
433.102	16.69
433.229	-0.31
433.355	33.69
433.482	84.69
433.608	168.69
433.735	153.69
433.861	126.69
433.987	143.69
434.114	234.69
434.24	213.69
434.367	74.69
434.493	16.69
434.62	36.69
434.746	35.69
434.872	7.69
434.999	28.69
435.125	7.69
435.252	1.69
435.378	14.69
435.504	23.69
435.631	30.69
435.757	6.69
435.883	34.69
436.01	23.69
436.136	14.69
436.262	9.69
436.389	10.69
436.515	20.69
436.641	10.69
436.768	16.69
436.894	17.69
437.02	3.69
437.147	32.69
437.273	24.69
437.399	8.69
437.526	30.69
437.652	14.69
437.778	9.69
437.904	-13.31
438.031	2.69
438.157	22.69
438.283	23.69
438.409	-6.31
438.536	6.69
438.662	14.69
438.788	15.69
438.914	9.69
439.041	19.69
439.167	39.69
439.293	15.69
439.419	19.69
439.546	21.69
439.672	15.69
439.798	23.69
439.924	31.69
440.05	20.69
440.177	22.69
440.303	5.69
440.429	-18.31
440.555	12.69
440.681	1.69
440.807	12.69
440.934	8.69
441.06	-10.31
441.186	6.69
441.312	5.69
441.438	28.69
441.564	18.69
441.69	30.69
441.816	1.69
441.943	-5.31
442.069	9.69
442.195	24.69
442.321	17.69
442.447	-4.31
442.573	8.69
442.699	9.69
442.825	-18.31
442.951	17.69
443.077	8.69
443.203	28.69
443.33	5.69
443.456	-2.31
443.582	20.69
443.708	10.69
443.834	21.69
443.96	28.69
444.086	6.69
444.212	42.69
444.338	20.69
444.464	30.69
444.59	12.69
444.716	14.69
444.842	15.69
444.968	17.69
445.094	13.69
445.22	7.69
445.346	3.69
445.472	27.69
445.598	13.69
445.724	23.69
445.85	6.69
445.976	21.69
446.102	20.69
446.228	31.69
446.354	20.69
446.48	1.69
446.605	18.69
446.731	25.69
446.857	13.69
446.983	20.69
447.109	-18.31
447.235	24.69
447.361	5.69
447.487	6.69
447.613	21.69
447.739	13.69
447.865	15.69
447.99	14.69
448.116	15.69
448.242	12.69
448.368	2.69
448.494	4.69
448.62	14.69
448.746	11.69
448.872	20.69
448.997	4.69
449.123	6.69
449.249	30.69
449.375	25.69
449.501	8.69
449.627	2.69
449.752	39.69
449.878	15.69
450.004	11.69
450.13	11.69
450.256	7.69
450.381	26.69
450.507	8.69
450.633	11.69
450.759	36.69
450.884	-10.31
451.01	16.69
451.136	0.69
451.262	9.69
451.388	22.69
451.513	3.69
451.639	3.69
451.765	4.69
451.89	16.69
452.016	12.69
452.142	11.69
452.268	24.69
452.393	23.69
452.519	8.69
452.645	19.69
452.771	27.69
452.896	5.69
453.022	2.69
453.148	36.69
453.273	15.69
453.399	13.69
453.525	6.69
453.65	-2.31
453.776	13.69
453.902	5.69
454.027	23.69
454.153	16.69
454.279	14.69
454.404	13.69
454.53	38.69
454.656	38.69
454.781	-4.31
454.907	4.69
455.032	4.69
455.158	28.69
455.284	37.69
455.409	24.69
455.535	12.69
455.66	12.69
455.786	13.69
455.912	0.69
456.037	7.69
456.163	29.69
456.288	9.69
456.414	2.69
456.539	2.69
456.665	33.69
456.791	13.69
456.916	-0.31
457.042	28.69
457.167	-7.31
457.293	24.69
457.418	7.69
457.544	12.69
457.669	10.69
457.795	6.69
457.92	9.69
458.046	35.69
458.171	8.69
458.297	8.69
458.422	11.69
458.548	1.69
458.673	24.69
458.799	6.69
458.924	-1.31
459.05	3.69
459.175	15.69
459.301	20.69
459.426	15.69
459.552	13.69
459.677	16.69
459.803	23.69
459.928	-2.31
460.053	-6.31
460.179	35.69
460.304	36.69
460.43	16.69
460.555	9.69
460.681	8.69
460.806	0.69
460.931	15.69
461.057	6.69
461.182	11.69
461.308	29.69
461.433	14.69
461.558	-3.31
461.684	17.69
461.809	22.69
461.934	17.69
462.06	36.69
462.185	-5.31
462.311	3.69
462.436	19.69
462.561	3.69
462.687	5.69
462.812	11.69
462.937	12.69
463.063	-4.31
463.188	-9.31
463.313	29.69
463.439	6.69
463.564	5.69
463.689	18.69
463.814	15.69
463.94	7.69
464.065	27.69
464.19	-0.31
464.316	7.69
464.441	0.69
464.566	15.69
464.692	18.69
464.817	13.69
464.942	6.69
465.067	11.69
465.193	-10.31
465.318	18.69
465.443	18.69
465.568	-2.31
465.694	18.69
465.819	25.69
465.944	1.69
466.069	8.69
466.194	21.69
466.32	17.69
466.445	24.69
466.57	4.69
466.695	15.69
466.82	13.69
466.946	9.69
467.071	25.69
467.196	-3.31
467.321	25.69
467.446	1.69
467.572	16.69
467.697	-0.31
467.822	20.69
467.947	39.69
468.072	3.69
468.197	-3.31
468.323	-3.31
468.448	14.69
468.573	17.69
468.698	7.69
468.823	20.69
468.948	1.69
469.073	2.69
469.198	20.69
469.324	26.69
469.449	19.69
469.574	29.69
469.699	36.69
469.824	25.69
469.949	19.69
470.074	23.69
470.199	42.69
470.324	42.69
470.449	12.69
470.574	-1.31
470.7	27.69
470.825	12.69
470.95	19.69
471.075	-7.31
471.2	20.69
471.325	8.69
471.45	21.69
471.575	25.69
471.7	18.69
471.825	-19.31
471.95	12.69
472.075	-2.31
472.2	9.69
472.325	11.69
472.45	4.69
472.575	3.69
472.7	9.69
472.825	37.69
472.95	9.69
473.075	-1.31
473.2	-4.31
473.325	1.69
473.45	3.69
473.575	11.69
473.7	-6.31
473.825	11.69
473.95	27.69
474.075	42.69
474.2	9.69
474.325	3.69
474.45	27.69
474.574	11.69
474.699	4.69
474.824	26.69
474.949	22.69
475.074	38.69
475.199	24.69
475.324	20.69
475.449	15.69
475.574	20.69
475.699	8.69
475.824	12.69
475.949	16.69
476.073	14.69
476.198	8.69
476.323	2.69
476.448	0.69
476.573	16.69
476.698	13.69
476.823	21.69
476.947	14.69
477.072	6.69
477.197	7.69
477.322	1.69
477.447	-8.31
477.572	26.69
477.697	3.69
477.821	9.69
477.946	14.69
478.071	22.69
478.196	22.69
478.321	14.69
478.445	5.69
478.57	2.69
478.695	2.69
478.82	29.69
478.945	19.69
479.069	-1.31
479.194	5.69
479.319	25.69
479.444	23.69
479.569	15.69
479.693	21.69
479.818	13.69
479.943	33.69
480.068	11.69
480.192	10.69
480.317	23.69
480.442	21.69
480.567	12.69
480.691	10.69
480.816	8.69
480.941	-0.31
481.066	21.69
481.19	32.69
481.315	30.69
481.44	7.69
481.564	-0.31
481.689	28.69
481.814	16.69
481.938	18.69
482.063	14.69
482.188	19.69
482.313	40.69
482.437	13.69
482.562	35.69
482.687	22.69
482.811	21.69
482.936	44.69
483.061	38.69
483.185	37.69
483.31	26.69
483.435	6.69
483.559	10.69
483.684	11.69
483.808	22.69
483.933	4.69
484.058	-2.31
484.182	10.69
484.307	38.69
484.432	24.69
484.556	0.69
484.681	13.69
484.805	19.69
484.93	40.69
485.055	46.69
485.179	89.69
485.304	129.69
485.428	378.69
485.553	1255.69
485.678	1746.69
485.802	1603.69
485.927	1783.69
486.051	2701.69
486.176	1654.69
486.3	458.69
486.425	146.69
486.549	82.69
486.674	73.69
486.799	37.69
486.923	16.69
487.048	1.69
487.172	21.69
487.297	20.69
487.421	31.69
487.546	29.69
487.67	13.69
487.795	11.69
487.919	25.69
488.044	26.69
488.168	20.69
488.293	11.69
488.417	5.69
488.542	32.69
488.666	23.69
488.791	16.69
488.915	21.69
489.04	29.69
489.164	20.69
489.289	31.69
489.413	13.69
489.538	19.69
489.662	22.69
489.786	11.69
489.911	9.69
490.035	15.69
490.16	14.69
490.284	17.69
490.409	-5.31
490.533	13.69
490.658	29.69
490.782	9.69
490.906	21.69
491.031	13.69
491.155	33.69
491.28	35.69
491.404	25.69
491.528	22.69
491.653	19.69
491.777	25.69
491.902	-8.31
492.026	24.69
492.15	29.69
492.275	29.69
492.399	25.69
492.524	15.69
492.648	34.69
492.772	29.69
492.897	19.69
493.021	13.69
493.145	39.69
493.27	29.69
493.394	11.69
493.518	11.69
493.643	19.69
493.767	25.69
493.891	19.69
494.016	18.69
494.14	26.69
494.264	19.69
494.389	30.69
494.513	-1.31
494.637	17.69
494.762	43.69
494.886	19.69
495.01	22.69
495.134	10.69
495.259	23.69
495.383	13.69
495.507	2.69
495.632	33.69
495.756	44.69
495.88	32.69
496.004	17.69
496.129	11.69
496.253	11.69
496.377	14.69
496.501	37.69
496.626	4.69
496.75	15.69
496.874	26.69
496.998	6.69
497.123	35.69
497.247	26.69
497.371	11.69
497.495	15.69
497.62	12.69
497.744	20.69
497.868	6.69
497.992	18.69
498.116	-0.31
498.241	20.69
498.365	10.69
498.489	23.69
498.613	42.69
498.737	-4.31
498.862	13.69
498.986	-6.31
499.11	2.69
499.234	11.69
499.358	12.69
499.482	19.69
499.607	17.69
499.731	18.69
499.855	23.69
499.979	15.69
500.103	19.69
500.227	25.69
500.351	17.69
500.476	22.69
500.6	27.69
500.724	18.69
500.848	4.69
500.972	26.69
501.096	12.69
501.22	44.69
501.344	17.69
501.469	2.69
501.593	22.69
501.717	20.69
501.841	0.69
501.965	12.69
502.089	26.69
502.213	6.69
502.337	-1.31
502.461	2.69
502.585	8.69
502.709	35.69
502.834	15.69
502.958	20.69
503.082	27.69
503.206	21.69
503.33	21.69
503.454	36.69
503.578	25.69
503.702	19.69
503.826	10.69
503.95	16.69
504.074	16.69
504.198	1.69
504.322	1.69
504.446	12.69
504.57	35.69
504.694	15.69
504.818	2.69
504.942	28.69
505.066	7.69
505.19	2.69
505.314	13.69
505.438	8.69
505.562	9.69
505.686	8.69
505.81	22.69
505.934	30.69
506.058	11.69
506.182	-2.31
506.306	14.69
506.43	2.69
506.554	2.69
506.678	-1.31
506.802	21.69
506.926	26.69
507.05	29.69
507.174	20.69
507.298	18.69
507.422	30.69
507.546	33.69
507.67	35.69
507.794	1.69
507.918	6.69
508.042	19.69
508.165	5.69
508.289	16.69
508.413	24.69
508.537	13.69
508.661	17.69
508.785	15.69
508.909	22.69
509.033	25.69
509.157	25.69
509.281	14.69
509.405	11.69
509.528	41.69
509.652	38.69
509.776	22.69
509.9	35.69
510.024	-4.31
510.148	20.69
510.272	23.69
510.396	2.69
510.519	27.69
510.643	16.69
510.767	22.69
510.891	34.69
511.015	11.69
511.139	8.69
511.263	33.69
511.386	10.69
511.51	23.69
511.634	19.69
511.758	7.69
511.882	18.69
512.006	38.69
512.129	9.69
512.253	36.69
512.377	22.69
512.501	30.69
512.625	21.69
512.748	27.69
512.872	23.69
512.996	7.69
513.12	27.69
513.244	14.69
513.367	26.69
513.491	30.69
513.615	18.69
513.739	14.69
513.862	28.69
513.986	0.69
514.11	25.69
514.234	7.69
514.358	22.69
514.481	34.69
514.605	7.69
514.729	25.69
514.853	21.69
514.976	33.69
515.1	19.69
515.224	24.69
515.348	16.69
515.471	2.69
515.595	21.69
515.719	19.69
515.842	32.69
515.966	4.69
516.09	38.69
516.214	11.69
516.337	25.69
516.461	11.69
516.585	29.69
516.708	18.69
516.832	12.69
516.956	7.69
517.08	11.69
517.203	-10.31
517.327	9.69
517.451	25.69
517.574	36.69
517.698	11.69
517.822	21.69
517.945	38.69
518.069	38.69
518.193	44.69
518.316	36.69
518.44	23.69
518.564	7.69
518.687	24.69
518.811	42.69
518.935	58.69
519.058	18.69
519.182	24.69
519.306	33.69
519.429	22.69
519.553	49.69
519.676	29.69
519.8	25.69
519.924	11.69
520.047	28.69
520.171	11.69
520.294	17.69
520.418	23.69
520.542	6.69
520.665	25.69
520.789	18.69
520.913	5.69
521.036	3.69
521.16	13.69
521.283	2.69
521.407	0.69
521.53	-2.31
521.654	-17.31
521.778	13.69
521.901	7.69
522.025	10.69
522.148	10.69
522.272	7.69
522.395	17.69
522.519	21.69
522.643	11.69
522.766	1.69
522.89	25.69
523.013	21.69
523.137	1.69
523.26	2.69
523.384	33.69
523.507	21.69
523.631	-8.31
523.754	-9.31
523.878	14.69
524.002	16.69
524.125	6.69
524.249	-2.31
524.372	32.69
524.496	11.69
524.619	20.69
524.743	15.69
524.866	15.69
524.99	22.69
525.113	-8.31
525.237	31.69
525.36	13.69
525.484	25.69
525.607	14.69
525.731	7.69
525.854	27.69
525.978	29.69
526.101	-3.31
526.224	6.69
526.348	14.69
526.471	4.69
526.595	21.69
526.718	8.69
526.842	9.69
526.965	23.69
527.089	7.69
527.212	14.69
527.336	18.69
527.459	19.69
527.582	27.69
527.706	37.69
527.829	12.69
527.953	11.69
528.076	6.69
528.2	8.69
528.323	18.69
528.446	44.69
528.57	20.69
528.693	36.69
528.817	17.69
528.94	18.69
529.064	31.69
529.187	11.69
529.31	7.69
529.434	-7.31
529.557	23.69
529.68	-2.31
529.804	6.69
529.927	18.69
530.051	7.69
530.174	16.69
530.297	12.69
530.421	36.69
530.544	22.69
530.668	28.69
530.791	-1.31
530.914	23.69
531.038	11.69
531.161	4.69
531.284	10.69
531.408	19.69
531.531	15.69
531.654	13.69
531.778	9.69
531.901	1.69
532.024	24.69
532.148	13.69
532.271	27.69
532.394	3.69
532.518	42.69
532.641	24.69
532.764	44.69
532.888	32.69
533.011	3.69
533.134	-4.31
533.258	25.69
533.381	13.69
533.504	18.69
533.628	6.69
533.751	27.69
533.874	18.69
533.997	17.69
534.121	0.69
534.244	6.69
534.367	-12.31
534.491	23.69
534.614	21.69
534.737	17.69
534.86	10.69
534.984	18.69
535.107	12.69
535.23	22.69
535.354	1.69
535.477	-7.31
535.6	11.69
535.723	1.69
535.847	17.69
535.97	-6.31
536.093	15.69
536.216	3.69
536.34	17.69
536.463	6.69
536.586	19.69
536.709	2.69
536.833	7.69
536.956	7.69
537.079	14.69
537.202	22.69
537.325	5.69
537.449	20.69
537.572	30.69
537.695	14.69
537.818	2.69
537.941	-3.31
538.065	26.69
538.188	-4.31
538.311	16.69
538.434	20.69
538.558	21.69
538.681	23.69
538.804	13.69
538.927	23.69
539.05	-2.31
539.173	-6.31
539.297	-0.31
539.42	-12.31
539.543	16.69
539.666	37.69
539.789	16.69
539.913	14.69
540.036	28.69
540.159	25.69
540.282	6.69
540.405	2.69
540.528	4.69
540.651	17.69
540.775	20.69
540.898	3.69
541.021	11.69
541.144	13.69
541.267	19.69
541.39	10.69
541.513	28.69
541.637	18.69
541.76	-13.31
541.883	-7.31
542.006	11.69
542.129	43.69
542.252	10.69
542.375	13.69
542.498	17.69
542.622	7.69
542.745	12.69
542.868	13.69
542.991	38.69
543.114	23.69
543.237	23.69
543.36	15.69
543.483	35.69
543.606	19.69
543.73	16.69
543.853	4.69
543.976	7.69
544.099	19.69
544.222	9.69
544.345	3.69
544.468	10.69
544.591	8.69
544.714	29.69
544.837	38.69
544.96	7.69
545.083	12.69
545.206	11.69
545.329	28.69
545.453	19.69
545.576	1.69
545.699	4.69
545.822	14.69
545.945	15.69
546.068	3.69
546.191	12.69
546.314	8.69
546.437	9.69
546.56	23.69
546.683	28.69
546.806	33.69
546.929	-4.31
547.052	-0.31
547.175	-0.31
547.298	19.69
547.421	1.69
547.544	-5.31
547.667	22.69
547.79	14.69
547.913	3.69
548.036	-0.31
548.159	9.69
548.282	24.69
548.405	17.69
548.528	14.69
548.651	2.69
548.774	26.69
548.897	17.69
549.02	38.69
549.143	22.69
549.266	7.69
549.389	25.69
549.512	21.69
549.635	41.69
549.758	14.69
549.881	17.69
550.004	5.69
550.127	-10.31
550.25	7.69
550.373	-9.31
550.496	21.69
550.619	18.69
550.742	5.69
550.865	-6.31
550.988	18.69
551.111	17.69
551.234	15.69
551.356	-4.31
551.479	-2.31
551.602	2.69
551.725	14.69
551.848	36.69
551.971	18.69
552.094	17.69
552.217	19.69
552.34	16.69
552.463	17.69
552.586	18.69
552.709	15.69
552.832	22.69
552.955	7.69
553.077	19.69
553.2	23.69
553.323	-1.31
553.446	14.69
553.569	-3.31
553.692	25.69
553.815	15.69
553.938	31.69
554.061	20.69
554.184	16.69
554.306	6.69
554.429	6.69
554.552	5.69
554.675	4.69
554.798	5.69
554.921	-1.31
555.044	8.69
555.167	2.69
555.29	2.69
555.412	0.69
555.535	17.69
555.658	6.69
555.781	14.69
555.904	29.69
556.027	29.69
556.15	23.69
556.272	-13.31
556.395	26.69
556.518	3.69
556.641	18.69
556.764	27.69
556.887	12.69
557.01	5.69
557.132	-4.31
557.255	12.69
557.378	33.69
557.501	16.69
557.624	8.69
557.747	1.69
557.869	6.69
557.992	14.69
558.115	26.69
558.238	7.69
558.361	27.69
558.483	15.69
558.606	18.69
558.729	10.69
558.852	39.69
558.975	41.69
559.098	23.69
559.22	20.69
559.343	15.69
559.466	17.69
559.589	-5.31
559.712	8.69
559.834	6.69
559.957	31.69
560.08	2.69
560.203	21.69
560.325	27.69
560.448	20.69
560.571	9.69
560.694	29.69
560.817	29.69
560.939	4.69
561.062	-13.31
561.185	7.69
561.308	15.69
561.43	-14.31
561.553	11.69
561.676	-8.31
561.799	18.69
561.921	10.69
562.044	6.69
562.167	11.69
562.29	29.69
562.413	19.69
562.535	22.69
562.658	-11.31
562.781	9.69
562.903	4.69
563.026	4.69
563.149	36.69
563.272	12.69
563.394	6.69
563.517	13.69
563.64	7.69
563.763	4.69
563.885	15.69
564.008	34.69
564.131	13.69
564.254	5.69
564.376	11.69
564.499	2.69
564.622	14.69
564.744	34.69
564.867	4.69
564.99	14.69
565.113	2.69
565.235	-0.31
565.358	3.69
565.481	5.69
565.603	-0.31
565.726	4.69
565.849	23.69
565.971	14.69
566.094	4.69
566.217	9.69
566.34	11.69
566.462	23.69
566.585	21.69
566.708	25.69
566.83	10.69
566.953	12.69
567.076	9.69
567.198	-2.31
567.321	-4.31
567.444	21.69
567.566	-1.31
567.689	-10.31
567.812	17.69
567.934	31.69
568.057	23.69
568.18	16.69
568.302	33.69
568.425	13.69
568.548	20.69
568.67	4.69
568.793	4.69
568.916	3.69
569.038	18.69
569.161	-3.31
569.283	36.69
569.406	27.69
569.529	6.69
569.651	13.69
569.774	-11.31
569.897	-2.31
570.019	12.69
570.142	23.69
570.265	23.69
570.387	6.69
570.51	-3.31
570.632	2.69
570.755	0.69
570.878	14.69
571	21.69
571.123	-0.31
571.246	23.69
571.368	3.69
571.491	2.69
571.613	-17.31
571.736	-8.31
571.859	24.69
571.981	-9.31
572.104	-1.31
572.226	15.69
572.349	15.69
572.472	4.69
572.594	24.69
572.717	14.69
572.839	-4.31
572.962	15.69
573.085	15.69
573.207	22.69
573.33	15.69
573.452	24.69
573.575	26.69
573.697	30.69
573.82	0.69
573.943	7.69
574.065	2.69
574.188	11.69
574.31	23.69
574.433	25.69
574.555	21.69
574.678	4.69
574.801	21.69
574.923	14.69
575.046	7.69
575.168	22.69
575.291	11.69
575.413	4.69
575.536	1.69
575.659	20.69
575.781	-1.31
575.904	11.69
576.026	1.69
576.149	2.69
576.271	12.69
576.394	29.69
576.516	34.69
576.639	13.69
576.761	-2.31
576.884	-10.31
577.007	2.69
577.129	18.69
577.252	26.69
577.374	30.69
577.497	3.69
577.619	10.69
577.742	19.69
577.864	18.69
577.987	5.69
578.109	14.69
578.232	9.69
578.354	18.69
578.477	-12.31
578.599	5.69
578.722	4.69
578.844	-2.31
578.967	11.69
579.089	12.69
579.212	7.69
579.334	15.69
579.457	17.69
579.579	9.69
579.702	2.69
579.824	26.69
579.947	-5.31
580.069	-13.31
580.192	0.69
580.314	11.69
580.437	9.69
580.559	23.69
580.682	22.69
580.804	19.69
580.927	27.69
581.049	36.69
581.172	18.69
581.294	18.69
581.417	27.69
581.539	27.69
581.662	9.69
581.784	6.69
581.907	16.69
582.029	42.69
582.152	-7.31
582.274	15.69
582.396	12.69
582.519	2.69
582.641	10.69
582.764	10.69
582.886	38.69
583.009	19.69
583.131	23.69
583.254	4.69
583.376	21.69
583.499	27.69
583.621	25.69
583.743	22.69
583.866	18.69
583.988	8.69
584.111	20.69
584.233	22.69
584.356	23.69
584.478	2.69
584.601	-1.31
584.723	1.69
584.845	10.69
584.968	-2.31
585.09	-0.31
585.213	16.69
585.335	5.69
585.458	-1.31
585.58	14.69
585.702	13.69
585.825	20.69
585.947	18.69
586.07	-3.31
586.192	11.69
586.315	18.69
586.437	0.69
586.559	2.69
586.682	-12.31
586.804	3.69
586.927	3.69
587.049	6.69
587.171	5.69
587.294	20.69
587.416	30.69
587.539	13.69
587.661	-3.31
587.783	7.69
587.906	0.69
588.028	22.69
588.151	26.69
588.273	21.69
588.395	15.69
588.518	-5.31
588.64	8.69
588.763	27.69
588.885	26.69
589.007	12.69
589.13	3.69
589.252	5.69
589.375	21.69
589.497	22.69
589.619	18.69
589.742	36.69
589.864	43.69
589.986	4.69
590.109	10.69
590.231	-1.31
590.354	19.69
590.476	0.69
590.598	13.69
590.721	10.69
590.843	14.69
590.965	1.69
591.088	23.69
591.21	-2.31
591.332	17.69
591.455	18.69
591.577	14.69
591.7	10.69
591.822	13.69
591.944	0.69
592.067	3.69
592.189	25.69
592.311	34.69
592.434	15.69
592.556	23.69
592.678	16.69
592.801	13.69
592.923	16.69
593.045	-4.31
593.168	15.69
593.29	-1.31
593.412	14.69
593.535	6.69
593.657	7.69
593.779	27.69
593.902	28.69
594.024	6.69
594.146	14.69
594.269	13.69
594.391	14.69
594.513	13.69
594.636	2.69
594.758	-1.31
594.88	23.69
595.003	21.69
595.125	17.69
595.247	22.69
595.37	20.69
595.492	10.69
595.614	30.69
595.737	16.69
595.859	1.69
595.981	17.69
596.104	12.69
596.226	15.69
596.348	1.69
596.471	5.69
596.593	25.69
596.715	-0.31
596.838	15.69
596.96	9.69
597.082	19.69
597.204	7.69
597.327	20.69
597.449	4.69
597.571	9.69
597.694	14.69
597.816	-2.31
597.938	23.69
598.061	14.69
598.183	20.69
598.305	29.69
598.427	6.69
598.55	12.69
598.672	25.69
598.794	28.69
598.917	3.69
599.039	5.69
599.161	22.69
599.283	28.69
599.406	13.69
599.528	8.69
599.65	29.69
599.773	14.69
599.895	43.69
600.017	36.69
600.139	22.69
600.262	-14.31
600.384	5.69
600.506	8.69
600.628	24.69
600.751	11.69
600.873	7.69
600.995	17.69
601.118	34.69
601.24	14.69
601.362	29.69
601.484	2.69
601.607	12.69
601.729	-3.31
601.851	4.69
601.973	11.69
602.096	8.69
602.218	9.69
602.34	29.69
602.462	-0.31
602.585	8.69
602.707	0.69
602.829	22.69
602.951	14.69
603.074	1.69
603.196	6.69
603.318	10.69
603.44	28.69
603.563	19.69
603.685	7.69
603.807	14.69
603.929	8.69
604.052	7.69
604.174	11.69
604.296	17.69
604.418	22.69
604.541	19.69
604.663	-0.31
604.785	9.69
604.907	13.69
605.03	0.69
605.152	47.69
605.274	13.69
605.396	18.69
605.519	20.69
605.641	10.69
605.763	11.69
605.885	7.69
606.008	15.69
606.13	8.69
606.252	20.69
606.374	-0.31
606.496	13.69
606.619	18.69
606.741	6.69
606.863	34.69
606.985	27.69
607.108	22.69
607.23	12.69
607.352	7.69
607.474	14.69
607.596	2.69
607.719	-0.31
607.841	25.69
607.963	10.69
608.085	5.69
608.207	56.69
608.33	22.69
608.452	-2.31
608.574	-4.31
608.696	23.69
608.819	9.69
608.941	13.69
609.063	11.69
609.185	12.69
609.307	14.69
609.43	30.69
609.552	19.69
609.674	-2.31
609.796	16.69
609.918	27.69
610.041	25.69
610.163	19.69
610.285	3.69
610.407	15.69
610.529	-0.31
610.652	6.69
610.774	24.69
610.896	22.69
611.018	10.69
611.14	-5.31
611.263	10.69
611.385	14.69
611.507	15.69
611.629	-7.31
611.751	7.69
611.873	29.69
611.996	26.69
612.118	20.69
612.24	5.69
612.362	8.69
612.484	19.69
612.607	13.69
612.729	25.69
612.851	14.69
612.973	6.69
613.095	-8.31
613.218	8.69
613.34	13.69
613.462	20.69
613.584	15.69
613.706	15.69
613.828	23.69
613.951	1.69
614.073	-11.31
614.195	-3.31
614.317	30.69
614.439	33.69
614.561	27.69
614.684	14.69
614.806	-1.31
614.928	15.69
615.05	-6.31
615.172	26.69
615.294	27.69
615.417	11.69
615.539	1.69
615.661	15.69
615.783	24.69
615.905	32.69
616.027	74.69
616.15	102.69
616.272	87.69
616.394	56.69
616.516	34.69
616.638	21.69
616.76	23.69
616.883	12.69
617.005	21.69
617.127	33.69
617.249	23.69
617.371	17.69
617.493	5.69
617.615	21.69
617.738	4.69
617.86	29.69
617.982	17.69
618.104	4.69
618.226	-1.31
618.348	4.69
618.471	24.69
618.593	17.69
618.715	1.69
618.837	9.69
618.959	25.69
619.081	20.69
619.203	15.69
619.326	9.69
619.448	1.69
619.57	10.69
619.692	9.69
619.814	20.69
619.936	13.69
620.058	15.69
620.181	19.69
620.303	18.69
620.425	14.69
620.547	-11.31
620.669	4.69
620.791	-6.31
620.913	13.69
621.036	5.69
621.158	11.69
621.28	34.69
621.402	-0.31
621.524	23.69
621.646	19.69
621.768	1.69
621.891	-5.31
622.013	13.69
622.135	7.69
622.257	1.69
622.379	4.69
622.501	9.69
622.623	-1.31
622.745	20.69
622.868	21.69
622.99	15.69
623.112	19.69
623.234	23.69
623.356	30.69
623.478	5.69
623.6	23.69
623.722	-1.31
623.845	15.69
623.967	9.69
624.089	4.69
624.211	-13.31
624.333	10.69
624.455	16.69
624.577	4.69
624.699	26.69
624.822	18.69
624.944	6.69
625.066	18.69
625.188	-8.31
625.31	9.69
625.432	18.69
625.554	-4.31
625.676	19.69
625.799	-7.31
625.921	7.69
626.043	2.69
626.165	9.69
626.287	-11.31
626.409	30.69
626.531	10.69
626.653	22.69
626.775	23.69
626.898	14.69
627.02	16.69
627.142	16.69
627.264	13.69
627.386	1.69
627.508	21.69
627.63	-3.31
627.752	30.69
627.874	17.69
627.997	10.69
628.119	15.69
628.241	23.69
628.363	32.69
628.485	28.69
628.607	-6.31
628.729	6.69
628.851	-1.31
628.973	21.69
629.096	-7.31
629.218	13.69
629.34	11.69
629.462	-7.31
629.584	6.69
629.706	-1.31
629.828	8.69
629.95	10.69
630.072	19.69
630.195	10.69
630.317	26.69
630.439	2.69
630.561	-4.31
630.683	13.69
630.805	23.69
630.927	13.69
631.049	5.69
631.171	-10.31
631.293	17.69
631.416	-0.31
631.538	9.69
631.66	1.69
631.782	14.69
631.904	14.69
632.026	-9.31
632.148	-10.31
632.27	-0.31
632.392	34.69
632.514	26.69
632.637	17.69
632.759	-2.31
632.881	8.69
633.003	12.69
633.125	5.69
633.247	9.69
633.369	6.69
633.491	18.69
633.613	-0.31
633.735	-1.31
633.858	21.69
633.98	12.69
634.102	-21.31
634.224	3.69
634.346	7.69
634.468	5.69
634.59	12.69
634.712	27.69
634.834	21.69
634.956	1.69
635.078	7.69
635.201	5.69
635.323	17.69
635.445	9.69
635.567	-2.31
635.689	3.69
635.811	10.69
635.933	8.69
636.055	20.69
636.177	15.69
636.299	21.69
636.421	12.69
636.544	-2.31
636.666	29.69
636.788	35.69
636.91	21.69
637.032	-7.31
637.154	22.69
637.276	23.69
637.398	13.69
637.52	26.69
637.642	16.69
637.764	2.69
637.887	1.69
638.009	10.69
638.131	25.69
638.253	3.69
638.375	4.69
638.497	6.69
638.619	-14.31
638.741	2.69
638.863	-7.31
638.985	-3.31
639.107	12.69
639.23	14.69
639.352	14.69
639.474	14.69
639.596	17.69
639.718	5.69
639.84	5.69
639.962	17.69
640.084	16.69
640.206	25.69
640.328	9.69
640.45	14.69
640.573	7.69
640.695	1.69
640.817	3.69
640.939	23.69
641.061	7.69
641.183	0.69
641.305	-3.31
641.427	24.69
641.549	19.69
641.671	8.69
641.793	-3.31
641.915	11.69
642.038	20.69
642.16	5.69
642.282	-0.31
642.404	9.69
642.526	7.69
642.648	23.69
642.77	4.69
642.892	-5.31
643.014	22.69
643.136	8.69
643.258	17.69
643.381	33.69
643.503	30.69
643.625	7.69
643.747	-7.31
643.869	11.69
643.991	11.69
644.113	13.69
644.235	4.69
644.357	21.69
644.479	27.69
644.601	6.69
644.723	-1.31
644.846	30.69
644.968	11.69
645.09	16.69
645.212	-24.31
645.334	12.69
645.456	13.69
645.578	13.69
645.7	10.69
645.822	17.69
645.944	16.69
646.066	6.69
646.188	9.69
646.311	25.69
646.433	2.69
646.555	50.69
646.677	42.69
646.799	42.69
646.921	27.69
647.043	31.69
647.165	-11.31
647.287	11.69
647.409	26.69
647.531	31.69
647.654	-9.31
647.776	0.69
647.898	13.69
648.02	21.69
648.142	2.69
648.264	-1.31
648.386	1.69
648.508	2.69
648.63	-14.31
648.752	17.69
648.874	-5.31
648.997	-0.31
649.119	3.69
649.241	23.69
649.363	25.69
649.485	11.69
649.607	-0.31
649.729	-0.31
649.851	15.69
649.973	22.69
650.095	12.69
650.217	3.69
650.34	-4.31
650.462	19.69
650.584	27.69
650.706	20.69
650.828	9.69
650.95	7.69
651.072	25.69
651.194	8.69
651.316	-9.31
651.438	12.69
651.56	-6.31
651.683	12.69
651.805	5.69
651.927	8.69
652.049	-2.31
652.171	9.69
652.293	17.69
652.415	-7.31
652.537	-1.31
652.659	-6.31
652.781	7.69
652.903	27.69
653.026	26.69
653.148	31.69
653.27	10.69
653.392	10.69
653.514	0.69
653.636	22.69
653.758	11.69
653.88	2.69
654.002	-0.31
654.124	-1.31
654.247	5.69
654.369	25.69
654.491	8.69
654.613	3.69
654.735	13.69
654.857	21.69
654.979	22.69
655.101	22.69
655.223	45.69
655.345	33.69
655.468	36.69
655.59	17.69
655.712	27.69
655.834	12.69
655.956	31.69
656.078	34.69
656.2	39.69
656.322	34.69
656.444	25.69
656.566	49.69
656.689	47.69
656.811	54.69
656.933	94.69
657.055	97.69
657.177	163.69
657.299	257.69
657.421	515.69
657.543	1901.69
657.665	12591.69
657.787	15179.69
657.91	15278.69
658.032	15664.69
658.154	4659.69
658.276	3526.69
658.398	1165.69
658.52	1031.69
658.642	485.69
658.764	599.69
658.886	264.69
659.009	437.69
659.131	232.69
659.253	321.69
659.375	157.69
659.497	234.69
659.619	138.69
659.741	196.69
659.863	107.69
659.985	163.69
660.108	88.69
660.23	144.69
660.352	91.69
660.474	137.69
660.596	73.69
660.718	141.69
660.84	65.69
660.962	109.69
661.084	49.69
661.207	106.69
661.329	63.69
661.451	89.69
661.573	41.69
661.695	116.69
661.817	63.69
661.939	101.69
662.061	71.69
662.184	76.69
662.306	35.69
662.428	83.69
662.55	54.69
662.672	72.69
662.794	28.69
662.916	57.69
663.038	36.69
663.161	82.69
663.283	42.69
663.405	66.69
663.527	43.69
663.649	64.69
663.771	35.69
663.893	56.69
664.015	37.69
664.138	61.69
664.26	40.69
664.382	69.69
664.504	26.69
664.626	44.69
664.748	22.69
664.87	46.69
664.992	30.69
665.115	56.69
665.237	27.69
665.359	33.69
665.481	27.69
665.603	48.69
665.725	13.69
665.847	28.69
665.97	27.69
666.092	45.69
666.214	38.69
666.336	63.69
666.458	38.69
666.58	44.69
666.702	17.69
666.825	17.69
666.947	-0.31
667.069	30.69
667.191	37.69
667.313	56.69
667.435	12.69
667.557	26.69
667.68	6.69
667.802	35.69
667.924	11.69
668.046	30.69
668.168	16.69
668.29	42.69
668.412	9.69
668.535	40.69
668.657	15.69
668.779	21.69
668.901	36.69
669.023	34.69
669.145	27.69
669.267	45.69
669.39	21.69
669.512	21.69
669.634	5.69
669.756	34.69
669.878	17.69
670	50.69
670.123	17.69
670.245	49.69
670.367	11.69
670.489	27.69
670.611	7.69
670.733	8.69
670.856	3.69
670.978	31.69
671.1	23.69
671.222	22.69
671.344	11.69
671.466	5.69
671.589	-4.31
671.711	15.69
671.833	1.69
671.955	29.69
672.077	1.69
672.199	38.69
672.322	27.69
672.444	34.69
672.566	27.69
672.688	30.69
672.81	27.69
672.932	35.69
673.055	13.69
673.177	4.69
673.299	43.69
673.421	16.69
673.543	13.69
673.665	37.69
673.788	16.69
673.91	16.69
674.032	9.69
674.154	8.69
674.276	19.69
674.399	19.69
674.521	6.69
674.643	27.69
674.765	16.69
674.887	19.69
675.009	12.69
675.132	15.69
675.254	-0.31
675.376	26.69
675.498	7.69
675.62	30.69
675.743	12.69
675.865	50.69
675.987	-4.31
676.109	11.69
676.231	21.69
676.354	42.69
676.476	-10.31
676.598	42.69
676.72	18.69
676.842	20.69
676.965	11.69
677.087	19.69
677.209	13.69
677.331	17.69
677.453	19.69
677.576	42.69
677.698	31.69
677.82	41.69
677.942	12.69
678.064	22.69
678.187	10.69
678.309	17.69
678.431	2.69
678.553	9.69
678.675	20.69
678.798	29.69
678.92	29.69
679.042	8.69
679.164	2.69
679.286	32.69
679.409	-0.31
679.531	7.69
679.653	-9.31
679.775	0.69
679.898	7.69
680.02	23.69
680.142	5.69
680.264	31.69
680.386	-5.31
680.509	29.69
680.631	30.69
680.753	13.69
680.875	0.69
680.998	14.69
681.12	2.69
681.242	20.69
681.364	-2.31
681.486	9.69
681.609	8.69
681.731	21.69
681.853	19.69
681.975	14.69
682.098	27.69
682.22	37.69
682.342	0.69
682.464	17.69
682.587	8.69
682.709	5.69
682.831	14.69
682.953	-5.31
683.076	1.69
683.198	20.69
683.32	15.69
683.442	24.69
683.565	-2.31
683.687	6.69
683.809	9.69
683.931	-11.31
684.054	26.69
684.176	18.69
684.298	7.69
684.42	18.69
684.543	4.69
684.665	3.69
684.787	-1.31
684.909	7.69
685.032	10.69
685.154	8.69
685.276	23.69
685.398	12.69
685.521	-3.31
685.643	14.69
685.765	10.69
685.887	7.69
686.01	14.69
686.132	23.69
686.254	19.69
686.377	17.69
686.499	4.69
686.621	22.69
686.743	5.69
686.866	19.69
686.988	39.69
687.11	14.69
687.232	7.69
687.355	-1.31
687.477	12.69
687.599	28.69
687.722	16.69
687.844	23.69
687.966	5.69
688.088	26.69
688.211	24.69
688.333	10.69
688.455	5.69
688.578	31.69
688.7	37.69
688.822	11.69
688.944	-13.31
689.067	53.69
689.189	17.69
689.311	1.69
689.434	12.69
689.556	15.69
689.678	13.69
689.801	-1.31
689.923	26.69
690.045	38.69
690.167	22.69
690.29	24.69
690.412	7.69
690.534	19.69
690.657	6.69
690.779	10.69
690.901	13.69
691.024	10.69
691.146	-0.31
691.268	18.69
691.391	26.69
691.513	21.69
691.635	22.69
691.758	26.69
691.88	23.69
692.002	7.69
692.125	10.69
692.247	14.69
692.369	27.69
692.492	12.69
692.614	3.69
692.736	23.69
692.859	7.69
692.981	-0.31
693.103	20.69
693.226	28.69
693.348	14.69
693.47	2.69
693.593	4.69
693.715	3.69
693.837	17.69
693.96	17.69
694.082	2.69
694.204	10.69
694.327	30.69
694.449	2.69
694.571	17.69
694.694	23.69
694.816	25.69
694.938	8.69
695.061	14.69
695.183	35.69
695.305	13.69
695.428	16.69
695.55	-6.31
695.672	15.69
695.795	23.69
695.917	48.69
696.04	9.69
696.162	4.69
696.284	2.69
696.407	13.69
696.529	-6.31
696.651	28.69
696.774	10.69
696.896	31.69
697.019	14.69
697.141	30.69
697.263	16.69
697.386	3.69
697.508	2.69
697.63	26.69
697.753	-2.31
697.875	14.69
697.998	3.69
698.12	17.69
698.242	11.69
698.365	2.69
698.487	8.69
698.61	14.69
698.732	10.69
698.854	33.69
698.977	20.69
699.099	29.69
699.221	5.69
699.344	2.69
699.466	6.69
699.589	1.69
699.711	-5.31
699.834	8.69
699.956	2.69
700.078	-9.31
700.201	1.69
700.323	25.69
700.446	24.69
700.568	13.69
700.69	12.69
700.813	16.69
700.935	-10.31
701.058	5.69
701.18	-13.31
701.302	-14.31
701.425	5.69
701.547	4.69
701.67	10.69
701.792	4.69
701.915	6.69
702.037	8.69
702.159	15.69
702.282	11.69
702.404	2.69
702.527	2.69
702.649	24.69
702.772	15.69
702.894	21.69
703.017	9.69
703.139	14.69
703.261	18.69
703.384	14.69
703.506	-2.31
703.629	3.69
703.751	0.69
703.874	21.69
703.996	-8.31
704.119	6.69
704.241	13.69
704.364	-5.31
704.486	15.69
704.608	29.69
704.731	6.69
704.853	30.69
704.976	0.69
705.098	6.69
705.221	-0.31
705.343	1.69
705.466	5.69
705.588	5.69
705.711	13.69
705.833	10.69
705.956	11.69
706.078	27.69
706.201	24.69
706.323	-5.31
706.446	8.69
