Data from LowRes_H2_15_26_11_07_2024_HR4C61881__76__15-28-21-236.txt Node

Date: Thu Nov 07 15:28:21 EST 2024
User: crc00042
Spectrometer: HR4C6188
Trigger mode: 4
Integration Time (sec): 1.000000E-1
Scans to average: 1
Electric dark correction enabled: true
Nonlinearity correction enabled: false
Boxcar width: 0
XAxis mode: Wavelengths
Number of Pixels in Spectrum: 3648
>>>>>Begin Spectral Data<<<<<
245.66	-107.62
245.797	-107.62
245.934	-107.62
246.071	-90.62
246.208	17.38
246.344	11.38
246.481	-24.62
246.618	5.38
246.755	13.38
246.892	7.38
247.029	-16.62
247.165	-18.62
247.302	11.38
247.439	10.38
247.576	15.38
247.713	-14.62
247.849	23.38
247.986	-23.62
248.123	-4.62
248.26	2.38
248.396	30.38
248.533	-4.62
248.67	0.38
248.806	0.38
248.943	-12.62
249.08	-7.62
249.216	10.38
249.353	-24.62
249.49	-3.62
249.626	-15.62
249.763	-6.62
249.9	2.38
250.036	16.38
250.173	21.38
250.309	5.38
250.446	1.38
250.582	0.38
250.719	-8.62
250.856	9.38
250.992	3.38
251.129	8.38
251.265	-4.62
251.402	13.38
251.538	-10.62
251.675	4.38
251.811	13.38
251.948	11.38
252.084	-0.62
252.221	1.38
252.357	-3.62
252.493	31.38
252.63	5.38
252.766	15.38
252.903	-6.62
253.039	-10.62
253.175	-3.62
253.312	0.38
253.448	-17.62
253.585	-19.62
253.721	-8.62
253.857	-2.62
253.994	-2.62
254.13	3.38
254.266	-19.62
254.403	1.38
254.539	21.38
254.675	24.38
254.811	11.38
254.948	-3.62
255.084	0.38
255.22	3.38
255.356	4.38
255.493	11.38
255.629	11.38
255.765	8.38
255.901	15.38
256.037	19.38
256.174	7.38
256.31	-8.62
256.446	15.38
256.582	14.38
256.718	2.38
256.854	16.38
256.991	6.38
257.127	12.38
257.263	-1.62
257.399	9.38
257.535	-7.62
257.671	4.38
257.807	-3.62
257.943	-7.62
258.079	-25.62
258.215	4.38
258.351	22.38
258.487	14.38
258.623	22.38
258.759	1.38
258.895	20.38
259.031	0.38
259.167	3.38
259.303	19.38
259.439	-7.62
259.575	-2.62
259.711	-17.62
259.847	17.38
259.983	12.38
260.119	-9.62
260.255	6.38
260.391	6.38
260.527	6.38
260.663	10.38
260.799	34.38
260.934	12.38
261.07	-7.62
261.206	-22.62
261.342	-15.62
261.478	25.38
261.614	10.38
261.749	16.38
261.885	8.38
262.021	6.38
262.157	6.38
262.293	-17.62
262.428	-4.62
262.564	24.38
262.7	18.38
262.836	-12.62
262.971	21.38
263.107	9.38
263.243	27.38
263.378	10.38
263.514	-11.62
263.65	13.38
263.785	-9.62
263.921	-4.62
264.057	3.38
264.192	22.38
264.328	25.38
264.464	-8.62
264.599	14.38
264.735	8.38
264.871	-15.62
265.006	9.38
265.142	-1.62
265.277	12.38
265.413	12.38
265.548	14.38
265.684	22.38
265.819	3.38
265.955	-12.62
266.091	-25.62
266.226	-14.62
266.362	14.38
266.497	13.38
266.633	8.38
266.768	-3.62
266.903	5.38
267.039	18.38
267.174	24.38
267.31	6.38
267.445	8.38
267.581	2.38
267.716	24.38
267.851	4.38
267.987	26.38
268.122	12.38
268.258	6.38
268.393	-5.62
268.528	19.38
268.664	-3.62
268.799	-20.62
268.934	26.38
269.07	-1.62
269.205	18.38
269.34	25.38
269.476	2.38
269.611	-5.62
269.746	18.38
269.881	8.38
270.017	12.38
270.152	15.38
270.287	16.38
270.422	13.38
270.558	-2.62
270.693	2.38
270.828	-10.62
270.963	-11.62
271.098	-7.62
271.234	-11.62
271.369	23.38
271.504	4.38
271.639	3.38
271.774	-5.62
271.909	-19.62
272.045	-16.62
272.18	-4.62
272.315	-7.62
272.45	16.38
272.585	-6.62
272.72	-0.62
272.855	1.38
272.99	10.38
273.125	-5.62
273.26	-0.62
273.395	-0.62
273.53	-3.62
273.665	16.38
273.8	9.38
273.935	3.38
274.07	4.38
274.205	14.38
274.34	-3.62
274.475	-17.62
274.61	24.38
274.745	-3.62
274.88	24.38
275.015	-14.62
275.15	6.38
275.285	6.38
275.42	-2.62
275.555	31.38
275.69	17.38
275.825	4.38
275.959	15.38
276.094	-0.62
276.229	2.38
276.364	-0.62
276.499	-5.62
276.634	1.38
276.768	-4.62
276.903	-1.62
277.038	11.38
277.173	22.38
277.308	9.38
277.442	5.38
277.577	-16.62
277.712	11.38
277.847	30.38
277.981	14.38
278.116	-12.62
278.251	1.38
278.386	12.38
278.52	8.38
278.655	-1.62
278.79	-5.62
278.924	-2.62
279.059	10.38
279.194	-17.62
279.328	44.38
279.463	22.38
279.598	20.38
279.732	22.38
279.867	0.38
280.001	-0.62
280.136	0.38
280.271	-3.62
280.405	12.38
280.54	4.38
280.674	-14.62
280.809	11.38
280.943	-0.62
281.078	18.38
281.213	25.38
281.347	13.38
281.482	20.38
281.616	2.38
281.751	11.38
281.885	0.38
282.02	8.38
282.154	7.38
282.288	-17.62
282.423	-13.62
282.557	-6.62
282.692	9.38
282.826	4.38
282.961	6.38
283.095	10.38
283.229	-13.62
283.364	-17.62
283.498	21.38
283.633	17.38
283.767	-26.62
283.901	-8.62
284.036	0.38
284.17	-12.62
284.304	1.38
284.439	1.38
284.573	-12.62
284.707	10.38
284.842	-15.62
284.976	-3.62
285.11	-19.62
285.244	9.38
285.379	48.38
285.513	17.38
285.647	0.38
285.781	-0.62
285.916	19.38
286.05	-4.62
286.184	6.38
286.318	13.38
286.453	-5.62
286.587	-14.62
286.721	-12.62
286.855	6.38
286.989	16.38
287.123	8.38
287.258	-4.62
287.392	-16.62
287.526	17.38
287.66	3.38
287.794	2.38
287.928	-8.62
288.062	0.38
288.196	22.38
288.33	16.38
288.464	23.38
288.598	21.38
288.733	11.38
288.867	2.38
289.001	6.38
289.135	-0.62
289.269	-11.62
289.403	1.38
289.537	12.38
289.671	25.38
289.805	0.38
289.939	21.38
290.073	11.38
290.207	24.38
290.34	6.38
290.474	12.38
290.608	21.38
290.742	5.38
290.876	3.38
291.01	-6.62
291.144	27.38
291.278	4.38
291.412	-1.62
291.546	-1.62
291.679	3.38
291.813	-8.62
291.947	15.38
292.081	-1.62
292.215	11.38
292.349	26.38
292.482	23.38
292.616	-8.62
292.75	3.38
292.884	-0.62
293.018	-4.62
293.151	-10.62
293.285	9.38
293.419	-10.62
293.553	10.38
293.686	2.38
293.82	9.38
293.954	27.38
294.088	30.38
294.221	-14.62
294.355	-6.62
294.489	22.38
294.622	-6.62
294.756	1.38
294.89	23.38
295.023	15.38
295.157	-10.62
295.291	2.38
295.424	17.38
295.558	-12.62
295.691	-0.62
295.825	-13.62
295.959	1.38
296.092	3.38
296.226	-1.62
296.359	6.38
296.493	2.38
296.627	8.38
296.76	12.38
296.894	5.38
297.027	2.38
297.161	-5.62
297.294	-24.62
297.428	-5.62
297.561	35.38
297.695	-12.62
297.828	-1.62
297.962	-3.62
298.095	-14.62
298.229	2.38
298.362	-7.62
298.495	-5.62
298.629	-14.62
298.762	-1.62
298.896	6.38
299.029	-5.62
299.162	11.38
299.296	10.38
299.429	10.38
299.563	2.38
299.696	5.38
299.829	8.38
299.963	11.38
300.096	10.38
300.229	11.38
300.363	22.38
300.496	32.38
300.629	-1.62
300.763	-14.62
300.896	3.38
301.029	6.38
301.162	6.38
301.296	-11.62
301.429	8.38
301.562	-2.62
301.695	5.38
301.829	16.38
301.962	20.38
302.095	-1.62
302.228	-7.62
302.362	5.38
302.495	-13.62
302.628	6.38
302.761	5.38
302.894	9.38
303.027	9.38
303.161	-11.62
303.294	-17.62
303.427	15.38
303.56	-2.62
303.693	6.38
303.826	10.38
303.959	18.38
304.092	10.38
304.225	-13.62
304.359	-3.62
304.492	1.38
304.625	-7.62
304.758	14.38
304.891	-9.62
305.024	-4.62
305.157	-8.62
305.29	2.38
305.423	5.38
305.556	13.38
305.689	17.38
305.822	9.38
305.955	5.38
306.088	3.38
306.221	3.38
306.354	10.38
306.487	-5.62
306.62	-6.62
306.752	3.38
306.885	16.38
307.018	2.38
307.151	19.38
307.284	28.38
307.417	-8.62
307.55	9.38
307.683	4.38
307.816	-0.62
307.948	-10.62
308.081	16.38
308.214	13.38
308.347	29.38
308.48	-17.62
308.613	-29.62
308.745	1.38
308.878	-0.62
309.011	5.38
309.144	17.38
309.277	2.38
309.409	10.38
309.542	6.38
309.675	-3.62
309.808	2.38
309.94	18.38
310.073	-8.62
310.206	-7.62
310.339	4.38
310.471	-1.62
310.604	14.38
310.737	-1.62
310.869	1.38
311.002	11.38
311.135	-14.62
311.267	-18.62
311.4	-13.62
311.533	19.38
311.665	12.38
311.798	-9.62
311.93	-16.62
312.063	17.38
312.196	-0.62
312.328	7.38
312.461	12.38
312.593	14.38
312.726	20.38
312.859	3.38
312.991	10.38
313.124	-10.62
313.256	29.38
313.389	10.38
313.521	10.38
313.654	-2.62
313.786	-17.62
313.919	-8.62
314.051	2.38
314.184	-3.62
314.316	-1.62
314.449	-18.62
314.581	-9.62
314.714	-8.62
314.846	16.38
314.978	-14.62
315.111	13.38
315.243	26.38
315.376	19.38
315.508	0.38
315.641	7.38
315.773	33.38
315.905	4.38
316.038	3.38
316.17	-0.62
316.302	22.38
316.435	7.38
316.567	-0.62
316.699	12.38
316.832	-14.62
316.964	-11.62
317.096	-5.62
317.229	-9.62
317.361	-4.62
317.493	-17.62
317.625	-16.62
317.758	-8.62
317.89	12.38
318.022	0.38
318.155	4.38
318.287	4.38
318.419	3.38
318.551	-10.62
318.683	-9.62
318.816	-8.62
318.948	-7.62
319.08	-9.62
319.212	8.38
319.344	18.38
319.477	6.38
319.609	3.38
319.741	13.38
319.873	-6.62
320.005	2.38
320.137	9.38
320.269	5.38
320.401	0.38
320.534	26.38
320.666	-3.62
320.798	-20.62
320.93	3.38
321.062	-4.62
321.194	-9.62
321.326	17.38
321.458	19.38
321.59	-6.62
321.722	-3.62
321.854	2.38
321.986	12.38
322.118	-0.62
322.25	-17.62
322.382	-1.62
322.514	-9.62
322.646	-16.62
322.778	3.38
322.91	-7.62
323.042	27.38
323.174	17.38
323.306	-5.62
323.438	-22.62
323.57	13.38
323.702	-16.62
323.834	3.38
323.966	-4.62
324.097	9.38
324.229	21.38
324.361	2.38
324.493	16.38
324.625	0.38
324.757	6.38
324.889	17.38
325.021	2.38
325.152	11.38
325.284	13.38
325.416	3.38
325.548	8.38
325.68	-6.62
325.811	16.38
325.943	12.38
326.075	-12.62
326.207	20.38
326.339	6.38
326.47	-19.62
326.602	10.38
326.734	22.38
326.866	17.38
326.997	-19.62
327.129	-11.62
327.261	-21.62
327.392	16.38
327.524	14.38
327.656	4.38
327.787	17.38
327.919	4.38
328.051	25.38
328.182	22.38
328.314	20.38
328.446	4.38
328.577	32.38
328.709	12.38
328.841	-16.62
328.972	-4.62
329.104	1.38
329.235	-6.62
329.367	6.38
329.499	5.38
329.63	20.38
329.762	12.38
329.893	25.38
330.025	8.38
330.156	2.38
330.288	22.38
330.419	23.38
330.551	7.38
330.683	11.38
330.814	8.38
330.946	27.38
331.077	0.38
331.208	4.38
331.34	-7.62
331.471	-10.62
331.603	4.38
331.734	-11.62
331.866	-1.62
331.997	1.38
332.129	2.38
332.26	-0.62
332.392	20.38
332.523	-4.62
332.654	-18.62
332.786	4.38
332.917	-16.62
333.048	-1.62
333.18	13.38
333.311	7.38
333.443	1.38
333.574	7.38
333.705	11.38
333.837	19.38
333.968	-4.62
334.099	16.38
334.231	14.38
334.362	7.38
334.493	10.38
334.624	6.38
334.756	2.38
334.887	15.38
335.018	6.38
335.15	24.38
335.281	-3.62
335.412	18.38
335.543	22.38
335.675	1.38
335.806	-9.62
335.937	-1.62
336.068	11.38
336.199	40.38
336.331	-5.62
336.462	-8.62
336.593	21.38
336.724	-1.62
336.855	1.38
336.986	-2.62
337.118	17.38
337.249	27.38
337.38	13.38
337.511	2.38
337.642	13.38
337.773	11.38
337.904	12.38
338.035	4.38
338.166	-4.62
338.298	-4.62
338.429	2.38
338.56	21.38
338.691	32.38
338.822	13.38
338.953	0.38
339.084	27.38
339.215	19.38
339.346	-10.62
339.477	1.38
339.608	6.38
339.739	-7.62
339.87	15.38
340.001	2.38
340.132	18.38
340.263	-0.62
340.394	19.38
340.525	8.38
340.656	-2.62
340.787	-10.62
340.918	15.38
341.049	12.38
341.179	-2.62
341.31	11.38
341.441	13.38
341.572	15.38
341.703	1.38
341.834	1.38
341.965	18.38
342.096	-1.62
342.227	4.38
342.357	-1.62
342.488	28.38
342.619	22.38
342.75	6.38
342.881	-13.62
343.012	31.38
343.142	15.38
343.273	-9.62
343.404	10.38
343.535	49.38
343.666	3.38
343.796	16.38
343.927	12.38
344.058	31.38
344.189	17.38
344.319	5.38
344.45	25.38
344.581	-3.62
344.712	-1.62
344.842	-9.62
344.973	5.38
345.104	13.38
345.234	-0.62
345.365	-14.62
345.496	5.38
345.626	9.38
345.757	24.38
345.888	6.38
346.018	34.38
346.149	14.38
346.28	24.38
346.41	-0.62
346.541	3.38
346.672	-3.62
346.802	17.38
346.933	5.38
347.063	-3.62
347.194	-1.62
347.325	2.38
347.455	-0.62
347.586	5.38
347.716	9.38
347.847	8.38
347.977	0.38
348.108	5.38
348.238	14.38
348.369	1.38
348.499	19.38
348.63	9.38
348.76	-2.62
348.891	0.38
349.021	6.38
349.152	13.38
349.282	3.38
349.413	0.38
349.543	18.38
349.674	11.38
349.804	12.38
349.935	-4.62
350.065	7.38
350.196	8.38
350.326	7.38
350.456	11.38
350.587	46.38
350.717	20.38
350.848	14.38
350.978	-11.62
351.108	-18.62
351.239	6.38
351.369	0.38
351.499	-2.62
351.63	14.38
351.76	-4.62
351.89	12.38
352.021	11.38
352.151	-9.62
352.281	-10.62
352.412	23.38
352.542	9.38
352.672	3.38
352.803	13.38
352.933	18.38
353.063	18.38
353.193	5.38
353.324	16.38
353.454	19.38
353.584	18.38
353.714	-5.62
353.845	-2.62
353.975	-15.62
354.105	-7.62
354.235	-3.62
354.365	7.38
354.496	19.38
354.626	17.38
354.756	10.38
354.886	-1.62
355.016	6.38
355.146	-17.62
355.277	23.38
355.407	-12.62
355.537	16.38
355.667	19.38
355.797	-5.62
355.927	-3.62
356.057	-4.62
356.187	-8.62
356.318	2.38
356.448	-0.62
356.578	7.38
356.708	26.38
356.838	12.38
356.968	-0.62
357.098	17.38
357.228	7.38
357.358	-3.62
357.488	1.38
357.618	32.38
357.748	19.38
357.878	11.38
358.008	-8.62
358.138	1.38
358.268	1.38
358.398	21.38
358.528	-22.62
358.658	9.38
358.788	12.38
358.918	29.38
359.048	4.38
359.178	25.38
359.308	16.38
359.438	29.38
359.568	14.38
359.698	6.38
359.827	18.38
359.957	6.38
360.087	18.38
360.217	9.38
360.347	5.38
360.477	11.38
360.607	-15.62
360.737	12.38
360.866	-2.62
360.996	9.38
361.126	-0.62
361.256	20.38
361.386	26.38
361.516	25.38
361.645	-7.62
361.775	9.38
361.905	-33.62
362.035	21.38
362.165	18.38
362.294	5.38
362.424	4.38
362.554	20.38
362.684	-5.62
362.813	0.38
362.943	5.38
363.073	7.38
363.203	1.38
363.332	10.38
363.462	4.38
363.592	-8.62
363.721	-6.62
363.851	13.38
363.981	17.38
364.111	1.38
364.24	-27.62
364.37	3.38
364.5	13.38
364.629	6.38
364.759	-5.62
364.888	-6.62
365.018	15.38
365.148	13.38
365.277	3.38
365.407	22.38
365.537	1.38
365.666	3.38
365.796	-4.62
365.925	-7.62
366.055	1.38
366.184	20.38
366.314	21.38
366.444	24.38
366.573	19.38
366.703	14.38
366.832	15.38
366.962	-3.62
367.091	14.38
367.221	6.38
367.35	6.38
367.48	36.38
367.609	31.38
367.739	15.38
367.868	-6.62
367.998	7.38
368.127	18.38
368.257	19.38
368.386	19.38
368.516	19.38
368.645	-1.62
368.775	8.38
368.904	10.38
369.033	-11.62
369.163	8.38
369.292	19.38
369.422	5.38
369.551	9.38
369.68	8.38
369.81	14.38
369.939	18.38
370.069	44.38
370.198	21.38
370.327	-7.62
370.457	-0.62
370.586	18.38
370.715	9.38
370.845	1.38
370.974	6.38
371.103	21.38
371.233	18.38
371.362	-3.62
371.491	-1.62
371.621	12.38
371.75	-6.62
371.879	-7.62
372.008	11.38
372.138	-6.62
372.267	16.38
372.396	-5.62
372.525	8.38
372.655	10.38
372.784	0.38
372.913	6.38
373.042	14.38
373.172	23.38
373.301	-4.62
373.43	-10.62
373.559	4.38
373.688	23.38
373.818	22.38
373.947	10.38
374.076	-9.62
374.205	21.38
374.334	15.38
374.463	-5.62
374.593	11.38
374.722	12.38
374.851	10.38
374.98	-9.62
375.109	2.38
375.238	6.38
375.367	36.38
375.496	-5.62
375.625	1.38
375.755	25.38
375.884	37.38
376.013	5.38
376.142	-2.62
376.271	4.38
376.4	-4.62
376.529	8.38
376.658	1.38
376.787	-2.62
376.916	15.38
377.045	15.38
377.174	14.38
377.303	-8.62
377.432	7.38
377.561	8.38
377.69	11.38
377.819	32.38
377.948	3.38
378.077	-13.62
378.206	-9.62
378.335	4.38
378.464	-11.62
378.593	21.38
378.722	1.38
378.851	-2.62
378.98	24.38
379.108	-5.62
379.237	-25.62
379.366	3.38
379.495	34.38
379.624	29.38
379.753	19.38
379.882	4.38
380.011	4.38
380.14	-13.62
380.268	13.38
380.397	-16.62
380.526	6.38
380.655	-3.62
380.784	-0.62
380.913	-5.62
381.041	5.38
381.17	-3.62
381.299	-14.62
381.428	9.38
381.557	25.38
381.685	-2.62
381.814	-7.62
381.943	12.38
382.072	6.38
382.2	-2.62
382.329	15.38
382.458	16.38
382.587	20.38
382.715	18.38
382.844	22.38
382.973	24.38
383.102	15.38
383.23	0.38
383.359	-13.62
383.488	14.38
383.616	11.38
383.745	-5.62
383.874	-1.62
384.003	9.38
384.131	-6.62
384.26	-9.62
384.389	15.38
384.517	7.38
384.646	2.38
384.774	3.38
384.903	30.38
385.032	26.38
385.16	0.38
385.289	-4.62
385.418	-5.62
385.546	-10.62
385.675	12.38
385.803	12.38
385.932	-3.62
386.06	10.38
386.189	9.38
386.318	7.38
386.446	-2.62
386.575	17.38
386.703	18.38
386.832	22.38
386.96	-2.62
387.089	28.38
387.217	3.38
387.346	-12.62
387.474	2.38
387.603	17.38
387.731	25.38
387.86	6.38
387.988	14.38
388.117	26.38
388.245	21.38
388.374	-2.62
388.502	5.38
388.631	-4.62
388.759	4.38
388.888	-1.62
389.016	-0.62
389.144	17.38
389.273	8.38
389.401	5.38
389.53	-9.62
389.658	27.38
389.786	3.38
389.915	-7.62
390.043	1.38
390.172	10.38
390.3	23.38
390.428	13.38
390.557	-7.62
390.685	12.38
390.813	11.38
390.942	7.38
391.07	9.38
391.198	-11.62
391.327	-8.62
391.455	-0.62
391.583	19.38
391.712	24.38
391.84	8.38
391.968	11.38
392.096	6.38
392.225	5.38
392.353	15.38
392.481	-13.62
392.609	34.38
392.738	21.38
392.866	16.38
392.994	-5.62
393.122	27.38
393.251	-15.62
393.379	-0.62
393.507	-14.62
393.635	6.38
393.764	4.38
393.892	9.38
394.02	-9.62
394.148	-0.62
394.276	2.38
394.404	30.38
394.533	1.38
394.661	24.38
394.789	25.38
394.917	28.38
395.045	7.38
395.173	16.38
395.302	-2.62
395.43	14.38
395.558	25.38
395.686	16.38
395.814	15.38
395.942	-2.62
396.07	18.38
396.198	15.38
396.326	13.38
396.454	16.38
396.582	-1.62
396.711	9.38
396.839	7.38
396.967	25.38
397.095	11.38
397.223	22.38
397.351	30.38
397.479	14.38
397.607	11.38
397.735	21.38
397.863	22.38
397.991	22.38
398.119	-8.62
398.247	-8.62
398.375	-3.62
398.503	4.38
398.631	-9.62
398.759	2.38
398.887	11.38
399.015	-6.62
399.143	13.38
399.271	0.38
399.399	1.38
399.526	12.38
399.654	14.38
399.782	-14.62
399.91	18.38
400.038	10.38
400.166	0.38
400.294	6.38
400.422	3.38
400.55	13.38
400.678	20.38
400.805	15.38
400.933	14.38
401.061	26.38
401.189	3.38
401.317	25.38
401.445	36.38
401.573	8.38
401.7	6.38
401.828	5.38
401.956	10.38
402.084	18.38
402.212	12.38
402.34	2.38
402.467	3.38
402.595	3.38
402.723	-9.62
402.851	21.38
402.978	-0.62
403.106	11.38
403.234	3.38
403.362	41.38
403.489	25.38
403.617	-7.62
403.745	3.38
403.873	-5.62
404	28.38
404.128	6.38
404.256	8.38
404.384	16.38
404.511	19.38
404.639	5.38
404.767	2.38
404.894	8.38
405.022	17.38
405.15	21.38
405.277	-14.62
405.405	7.38
405.533	-1.62
405.66	22.38
405.788	20.38
405.916	-9.62
406.043	-1.62
406.171	10.38
406.299	14.38
406.426	24.38
406.554	15.38
406.681	31.38
406.809	17.38
406.937	24.38
407.064	15.38
407.192	13.38
407.319	10.38
407.447	10.38
407.574	19.38
407.702	13.38
407.83	4.38
407.957	-1.62
408.085	4.38
408.212	7.38
408.34	16.38
408.467	8.38
408.595	16.38
408.722	26.38
408.85	23.38
408.977	4.38
409.105	11.38
409.232	8.38
409.36	2.38
409.487	13.38
409.615	11.38
409.742	21.38
409.87	19.38
409.997	37.38
410.125	27.38
410.252	49.38
410.379	55.38
410.507	25.38
410.634	23.38
410.762	8.38
410.889	20.38
411.017	11.38
411.144	24.38
411.271	17.38
411.399	23.38
411.526	19.38
411.653	24.38
411.781	36.38
411.908	4.38
412.036	-12.62
412.163	29.38
412.29	14.38
412.418	19.38
412.545	14.38
412.672	9.38
412.8	27.38
412.927	15.38
413.054	26.38
413.182	21.38
413.309	-0.62
413.436	1.38
413.564	6.38
413.691	18.38
413.818	23.38
413.945	-0.62
414.073	7.38
414.2	18.38
414.327	24.38
414.454	4.38
414.582	-11.62
414.709	-9.62
414.836	17.38
414.963	6.38
415.091	19.38
415.218	3.38
415.345	15.38
415.472	16.38
415.6	-5.62
415.727	11.38
415.854	18.38
415.981	9.38
416.108	5.38
416.236	-5.62
416.363	26.38
416.49	0.38
416.617	13.38
416.744	6.38
416.871	5.38
416.998	-6.62
417.126	28.38
417.253	23.38
417.38	-2.62
417.507	-10.62
417.634	30.38
417.761	10.38
417.888	15.38
418.015	11.38
418.143	12.38
418.27	32.38
418.397	14.38
418.524	4.38
418.651	17.38
418.778	13.38
418.905	28.38
419.032	15.38
419.159	12.38
419.286	31.38
419.413	2.38
419.54	20.38
419.667	17.38
419.794	9.38
419.921	7.38
420.048	28.38
420.175	11.38
420.302	10.38
420.429	11.38
420.556	5.38
420.683	4.38
420.81	32.38
420.937	25.38
421.064	12.38
421.191	13.38
421.318	20.38
421.445	30.38
421.572	-2.62
421.699	15.38
421.826	14.38
421.953	16.38
422.08	-2.62
422.207	9.38
422.334	1.38
422.461	21.38
422.588	9.38
422.714	13.38
422.841	43.38
422.968	16.38
423.095	7.38
423.222	-6.62
423.349	6.38
423.476	17.38
423.603	-3.62
423.729	-18.62
423.856	5.38
423.983	26.38
424.11	-0.62
424.237	7.38
424.364	29.38
424.491	15.38
424.617	-12.62
424.744	-1.62
424.871	12.38
424.998	9.38
425.125	2.38
425.251	14.38
425.378	16.38
425.505	4.38
425.632	8.38
425.758	22.38
425.885	19.38
426.012	19.38
426.139	46.38
426.266	19.38
426.392	44.38
426.519	39.38
426.646	13.38
426.772	25.38
426.899	12.38
427.026	21.38
427.153	4.38
427.279	13.38
427.406	17.38
427.533	-5.62
427.659	13.38
427.786	3.38
427.913	27.38
428.039	13.38
428.166	-5.62
428.293	6.38
428.419	6.38
428.546	9.38
428.673	-5.62
428.799	-14.62
428.926	3.38
429.053	10.38
429.179	13.38
429.306	26.38
429.433	34.38
429.559	23.38
429.686	-5.62
429.812	4.38
429.939	15.38
430.066	8.38
430.192	12.38
430.319	21.38
430.445	20.38
430.572	8.38
430.699	-5.62
430.825	0.38
430.952	-6.62
431.078	4.38
431.205	25.38
431.331	7.38
431.458	8.38
431.584	21.38
431.711	-5.62
431.837	3.38
431.964	5.38
432.09	12.38
432.217	-5.62
432.343	-5.62
432.47	20.38
432.596	30.38
432.723	-8.62
432.849	-7.62
432.976	16.38
433.102	18.38
433.229	11.38
433.355	56.38
433.482	58.38
433.608	143.38
433.735	151.38
433.861	132.38
433.987	171.38
434.114	242.38
434.24	204.38
434.367	52.38
434.493	22.38
434.62	25.38
434.746	24.38
434.872	20.38
434.999	15.38
435.125	13.38
435.252	-9.62
435.378	8.38
435.504	15.38
435.631	23.38
435.757	10.38
435.883	11.38
436.01	15.38
436.136	-0.62
436.262	27.38
436.389	38.38
436.515	18.38
436.641	14.38
436.768	20.38
436.894	19.38
437.02	9.38
437.147	11.38
437.273	17.38
437.399	15.38
437.526	30.38
437.652	22.38
437.778	29.38
437.904	8.38
438.031	5.38
438.157	-10.62
438.283	23.38
438.409	-3.62
438.536	-16.62
438.662	26.38
438.788	23.38
438.914	14.38
439.041	3.38
439.167	35.38
439.293	13.38
439.419	26.38
439.546	29.38
439.672	19.38
439.798	6.38
439.924	6.38
440.05	15.38
440.177	4.38
440.303	23.38
440.429	7.38
440.555	2.38
440.681	5.38
440.807	27.38
440.934	6.38
441.06	16.38
441.186	15.38
441.312	6.38
441.438	19.38
441.564	26.38
441.69	16.38
441.816	36.38
441.943	9.38
442.069	13.38
442.195	23.38
442.321	40.38
442.447	7.38
442.573	6.38
442.699	-0.62
442.825	3.38
442.951	20.38
443.077	18.38
443.203	15.38
443.33	-3.62
443.456	-5.62
443.582	20.38
443.708	11.38
443.834	17.38
443.96	26.38
444.086	2.38
444.212	43.38
444.338	30.38
444.464	18.38
444.59	26.38
444.716	15.38
444.842	1.38
444.968	1.38
445.094	-0.62
445.22	1.38
445.346	9.38
445.472	12.38
445.598	1.38
445.724	0.38
445.85	-12.62
445.976	-3.62
446.102	4.38
446.228	18.38
446.354	13.38
446.48	26.38
446.605	25.38
446.731	6.38
446.857	5.38
446.983	13.38
447.109	12.38
447.235	10.38
447.361	1.38
447.487	4.38
447.613	11.38
447.739	3.38
447.865	-2.62
447.99	15.38
448.116	16.38
448.242	0.38
448.368	19.38
448.494	-4.62
448.62	25.38
448.746	17.38
448.872	15.38
448.997	-1.62
449.123	5.38
449.249	28.38
449.375	13.38
449.501	13.38
449.627	7.38
449.752	34.38
449.878	2.38
450.004	-4.62
450.13	11.38
450.256	8.38
450.381	29.38
450.507	22.38
450.633	8.38
450.759	24.38
450.884	7.38
451.01	38.38
451.136	15.38
451.262	25.38
451.388	2.38
451.513	-15.62
451.639	25.38
451.765	14.38
451.89	19.38
452.016	-3.62
452.142	17.38
452.268	22.38
452.393	6.38
452.519	-4.62
452.645	44.38
452.771	12.38
452.896	5.38
453.022	21.38
453.148	19.38
453.273	9.38
453.399	6.38
453.525	1.38
453.65	-3.62
453.776	-3.62
453.902	14.38
454.027	16.38
454.153	23.38
454.279	22.38
454.404	7.38
454.53	42.38
454.656	40.38
454.781	18.38
454.907	4.38
455.032	6.38
455.158	26.38
455.284	36.38
455.409	14.38
455.535	12.38
455.66	10.38
455.786	23.38
455.912	17.38
456.037	-0.62
456.163	18.38
456.288	29.38
456.414	2.38
456.539	-1.62
456.665	29.38
456.791	17.38
456.916	-14.62
457.042	14.38
457.167	-3.62
457.293	22.38
457.418	11.38
457.544	11.38
457.669	10.38
457.795	10.38
457.92	18.38
458.046	28.38
458.171	30.38
458.297	-0.62
458.422	2.38
458.548	-3.62
458.673	33.38
458.799	8.38
458.924	3.38
459.05	19.38
459.175	-4.62
459.301	-0.62
459.426	21.38
459.552	22.38
459.677	2.38
459.803	31.38
459.928	16.38
460.053	-4.62
460.179	16.38
460.304	32.38
460.43	-0.62
460.555	14.38
460.681	4.38
460.806	6.38
460.931	12.38
461.057	14.38
461.182	4.38
461.308	21.38
461.433	13.38
461.558	5.38
461.684	24.38
461.809	26.38
461.934	9.38
462.06	32.38
462.185	-4.62
462.311	5.38
462.436	27.38
462.561	19.38
462.687	-0.62
462.812	15.38
462.937	7.38
463.063	5.38
463.188	0.38
463.313	37.38
463.439	16.38
463.564	7.38
463.689	20.38
463.814	14.38
463.94	5.38
464.065	10.38
464.19	38.38
464.316	6.38
464.441	-8.62
464.566	0.38
464.692	0.38
464.817	21.38
464.942	7.38
465.067	11.38
465.193	-3.62
465.318	2.38
465.443	19.38
465.568	-5.62
465.694	12.38
465.819	39.38
465.944	25.38
466.069	9.38
466.194	12.38
466.32	16.38
466.445	1.38
466.57	-5.62
466.695	21.38
466.82	20.38
466.946	13.38
467.071	12.38
467.196	11.38
467.321	15.38
467.446	6.38
467.572	12.38
467.697	3.38
467.822	-9.62
467.947	16.38
468.072	5.38
468.197	9.38
468.323	0.38
468.448	10.38
468.573	1.38
468.698	3.38
468.823	10.38
468.948	15.38
469.073	7.38
469.198	28.38
469.324	17.38
469.449	-6.62
469.574	23.38
469.699	33.38
469.824	21.38
469.949	12.38
470.074	-0.62
470.199	31.38
470.324	19.38
470.449	28.38
470.574	7.38
470.7	20.38
470.825	16.38
470.95	18.38
471.075	11.38
471.2	28.38
471.325	7.38
471.45	20.38
471.575	5.38
471.7	11.38
471.825	7.38
471.95	-3.62
472.075	-2.62
472.2	18.38
472.325	19.38
472.45	8.38
472.575	12.38
472.7	8.38
472.825	8.38
472.95	29.38
473.075	-1.62
473.2	-5.62
473.325	4.38
473.45	20.38
473.575	-4.62
473.7	19.38
473.825	11.38
473.95	25.38
474.075	18.38
474.2	5.38
474.325	-8.62
474.45	22.38
474.574	25.38
474.699	16.38
474.824	21.38
474.949	8.38
475.074	9.38
475.199	30.38
475.324	7.38
475.449	15.38
475.574	33.38
475.699	30.38
475.824	-1.62
475.949	0.38
476.073	12.38
476.198	-5.62
476.323	16.38
476.448	7.38
476.573	11.38
476.698	15.38
476.823	11.38
476.947	12.38
477.072	12.38
477.197	11.38
477.322	-0.62
477.447	11.38
477.572	19.38
477.697	11.38
477.821	11.38
477.946	32.38
478.071	38.38
478.196	26.38
478.321	9.38
478.445	2.38
478.57	5.38
478.695	11.38
478.82	30.38
478.945	18.38
479.069	14.38
479.194	10.38
479.319	32.38
479.444	7.38
479.569	2.38
479.693	27.38
479.818	12.38
479.943	30.38
480.068	18.38
480.192	11.38
480.317	21.38
480.442	10.38
480.567	12.38
480.691	22.38
480.816	29.38
480.941	7.38
481.066	26.38
481.19	13.38
481.315	9.38
481.44	3.38
481.564	-10.62
481.689	46.38
481.814	18.38
481.938	25.38
482.063	19.38
482.188	21.38
482.313	40.38
482.437	10.38
482.562	31.38
482.687	38.38
482.811	25.38
482.936	20.38
483.061	23.38
483.185	16.38
483.31	19.38
483.435	7.38
483.559	20.38
483.684	23.38
483.808	44.38
483.933	21.38
484.058	23.38
484.182	34.38
484.307	23.38
484.432	19.38
484.556	26.38
484.681	13.38
484.805	21.38
484.93	24.38
485.055	46.38
485.179	84.38
485.304	116.38
485.428	365.38
485.553	1265.38
485.678	1757.38
485.802	1653.38
485.927	1819.38
486.051	2716.38
486.176	1654.38
486.3	463.38
486.425	169.38
486.549	84.38
486.674	66.38
486.799	45.38
486.923	28.38
487.048	45.38
487.172	31.38
487.297	28.38
487.421	37.38
487.546	10.38
487.67	50.38
487.795	14.38
487.919	13.38
488.044	28.38
488.168	20.38
488.293	14.38
488.417	9.38
488.542	28.38
488.666	28.38
488.791	32.38
488.915	11.38
489.04	29.38
489.164	24.38
489.289	33.38
489.413	20.38
489.538	23.38
489.662	10.38
489.786	-0.62
489.911	14.38
490.035	27.38
490.16	-0.62
490.284	-12.62
490.409	-16.62
490.533	17.38
490.658	37.38
490.782	16.38
490.906	19.38
491.031	24.38
491.155	23.38
491.28	28.38
491.404	9.38
491.528	29.38
491.653	2.38
491.777	30.38
491.902	15.38
492.026	15.38
492.15	34.38
492.275	39.38
492.399	21.38
492.524	13.38
492.648	23.38
492.772	20.38
492.897	25.38
493.021	1.38
493.145	28.38
493.27	25.38
493.394	23.38
493.518	5.38
493.643	-3.62
493.767	23.38
493.891	5.38
494.016	5.38
494.14	15.38
494.264	21.38
494.389	43.38
494.513	7.38
494.637	5.38
494.762	18.38
494.886	7.38
495.01	10.38
495.134	11.38
495.259	27.38
495.383	6.38
495.507	24.38
495.632	45.38
495.756	35.38
495.88	25.38
496.004	25.38
496.129	-1.62
496.253	12.38
496.377	18.38
496.501	11.38
496.626	-4.62
496.75	20.38
496.874	15.38
496.998	1.38
497.123	20.38
497.247	17.38
497.371	18.38
497.495	16.38
497.62	-3.62
497.744	9.38
497.868	25.38
497.992	13.38
498.116	16.38
498.241	12.38
498.365	5.38
498.489	6.38
498.613	13.38
498.737	2.38
498.862	13.38
498.986	10.38
499.11	22.38
499.234	12.38
499.358	1.38
499.482	9.38
499.607	29.38
499.731	31.38
499.855	18.38
499.979	5.38
500.103	1.38
500.227	27.38
500.351	24.38
500.476	17.38
500.6	19.38
500.724	19.38
500.848	16.38
500.972	26.38
501.096	7.38
501.22	35.38
501.344	1.38
501.469	6.38
501.593	23.38
501.717	35.38
501.841	13.38
501.965	4.38
502.089	0.38
502.213	8.38
502.337	7.38
502.461	17.38
502.585	13.38
502.709	24.38
502.834	-2.62
502.958	-3.62
503.082	14.38
503.206	23.38
503.33	23.38
503.454	29.38
503.578	20.38
503.702	29.38
503.826	16.38
503.95	25.38
504.074	20.38
504.198	15.38
504.322	-8.62
504.446	-4.62
504.57	9.38
504.694	27.38
504.818	9.38
504.942	47.38
505.066	12.38
505.19	3.38
505.314	15.38
505.438	29.38
505.562	10.38
505.686	19.38
505.81	13.38
505.934	27.38
506.058	5.38
506.182	28.38
506.306	17.38
506.43	2.38
506.554	16.38
506.678	-7.62
506.802	7.38
506.926	12.38
507.05	25.38
507.174	27.38
507.298	32.38
507.422	15.38
507.546	30.38
507.67	25.38
507.794	-13.62
507.918	6.38
508.042	30.38
508.165	-17.62
508.289	13.38
508.413	18.38
508.537	6.38
508.661	15.38
508.785	13.38
508.909	9.38
509.033	-5.62
509.157	10.38
509.281	29.38
509.405	22.38
509.528	23.38
509.652	20.38
509.776	9.38
509.9	30.38
510.024	13.38
510.148	25.38
510.272	23.38
510.396	18.38
510.519	9.38
510.643	15.38
510.767	26.38
510.891	34.38
511.015	2.38
511.139	28.38
511.263	24.38
511.386	3.38
511.51	11.38
511.634	4.38
511.758	11.38
511.882	-2.62
512.006	17.38
512.129	26.38
512.253	33.38
512.377	9.38
512.501	29.38
512.625	20.38
512.748	7.38
512.872	4.38
512.996	13.38
513.12	19.38
513.244	17.38
513.367	25.38
513.491	29.38
513.615	30.38
513.739	1.38
513.862	-3.62
513.986	9.38
514.11	29.38
514.234	7.38
514.358	15.38
514.481	20.38
514.605	7.38
514.729	23.38
514.853	32.38
514.976	-13.62
515.1	8.38
515.224	33.38
515.348	12.38
515.471	17.38
515.595	21.38
515.719	21.38
515.842	38.38
515.966	10.38
516.09	30.38
516.214	6.38
516.337	42.38
516.461	35.38
516.585	23.38
516.708	35.38
516.832	38.38
516.956	13.38
517.08	16.38
517.203	-10.62
517.327	27.38
517.451	43.38
517.574	33.38
517.698	14.38
517.822	22.38
517.945	21.38
518.069	39.38
518.193	49.38
518.316	33.38
518.44	38.38
518.564	24.38
518.687	19.38
518.811	16.38
518.935	45.38
519.058	28.38
519.182	29.38
519.306	42.38
519.429	29.38
519.553	58.38
519.676	37.38
519.8	40.38
519.924	10.38
520.047	4.38
520.171	2.38
520.294	8.38
520.418	12.38
520.542	1.38
520.665	31.38
520.789	8.38
520.913	7.38
521.036	-0.62
521.16	6.38
521.283	11.38
521.407	5.38
521.53	12.38
521.654	-11.62
521.778	13.38
521.901	14.38
522.025	13.38
522.148	7.38
522.272	16.38
522.395	2.38
522.519	20.38
522.643	26.38
522.766	23.38
522.89	12.38
523.013	42.38
523.137	4.38
523.26	11.38
523.384	21.38
523.507	13.38
523.631	-14.62
523.754	7.38
523.878	1.38
524.002	26.38
524.125	11.38
524.249	11.38
524.372	24.38
524.496	35.38
524.619	14.38
524.743	30.38
524.866	-1.62
524.99	5.38
525.113	-19.62
525.237	28.38
525.36	28.38
525.484	6.38
525.607	6.38
525.731	-6.62
525.854	20.38
525.978	28.38
526.101	17.38
526.224	9.38
526.348	10.38
526.471	32.38
526.595	18.38
526.718	15.38
526.842	4.38
526.965	25.38
527.089	7.38
527.212	0.38
527.336	6.38
527.459	38.38
527.582	7.38
527.706	30.38
527.829	9.38
527.953	22.38
528.076	10.38
528.2	7.38
528.323	34.38
528.446	44.38
528.57	17.38
528.693	5.38
528.817	23.38
528.94	28.38
529.064	43.38
529.187	16.38
529.31	17.38
529.434	-2.62
529.557	-3.62
529.68	-0.62
529.804	17.38
529.927	22.38
530.051	18.38
530.174	-0.62
530.297	31.38
530.421	23.38
530.544	18.38
530.668	11.38
530.791	2.38
530.914	23.38
531.038	14.38
531.161	0.38
531.284	24.38
531.408	23.38
531.531	-10.62
531.654	5.38
531.778	3.38
531.901	13.38
532.024	10.38
532.148	7.38
532.271	6.38
532.394	16.38
532.518	16.38
532.641	12.38
532.764	34.38
532.888	25.38
533.011	-1.62
533.134	4.38
533.258	8.38
533.381	14.38
533.504	12.38
533.628	17.38
533.751	27.38
533.874	19.38
533.997	10.38
534.121	-6.62
534.244	5.38
534.367	17.38
534.491	23.38
534.614	21.38
534.737	32.38
534.86	13.38
534.984	-9.62
535.107	-1.62
535.23	11.38
535.354	16.38
535.477	2.38
535.6	2.38
535.723	26.38
535.847	11.38
535.97	-2.62
536.093	20.38
536.216	10.38
536.34	13.38
536.463	-26.62
536.586	16.38
536.709	10.38
536.833	19.38
536.956	19.38
537.079	11.38
537.202	36.38
537.325	12.38
537.449	3.38
537.572	14.38
537.695	6.38
537.818	-7.62
537.941	10.38
538.065	-1.62
538.188	1.38
538.311	28.38
538.434	29.38
538.558	17.38
538.681	15.38
538.804	21.38
538.927	0.38
539.05	11.38
539.173	6.38
539.297	6.38
539.42	5.38
539.543	11.38
539.666	30.38
539.789	19.38
539.913	8.38
540.036	13.38
540.159	12.38
540.282	17.38
540.405	-9.62
540.528	6.38
540.651	6.38
540.775	-2.62
540.898	23.38
541.021	10.38
541.144	28.38
541.267	20.38
541.39	18.38
541.513	14.38
541.637	6.38
541.76	12.38
541.883	-0.62
542.006	14.38
542.129	17.38
542.252	13.38
542.375	5.38
542.498	-6.62
542.622	31.38
542.745	35.38
542.868	13.38
542.991	14.38
543.114	14.38
543.237	35.38
543.36	11.38
543.483	13.38
543.606	25.38
543.73	35.38
543.853	-5.62
543.976	-3.62
544.099	8.38
544.222	22.38
544.345	7.38
544.468	2.38
544.591	18.38
544.714	19.38
544.837	36.38
544.96	20.38
545.083	18.38
545.206	22.38
545.329	14.38
545.453	1.38
545.576	16.38
545.699	3.38
545.822	5.38
545.945	19.38
546.068	3.38
546.191	33.38
546.314	21.38
546.437	36.38
546.56	26.38
546.683	22.38
546.806	29.38
546.929	10.38
547.052	-10.62
547.175	3.38
547.298	8.38
547.421	-18.62
547.544	-4.62
547.667	31.38
547.79	13.38
547.913	-1.62
548.036	-9.62
548.159	10.38
548.282	2.38
548.405	-0.62
548.528	17.38
548.651	13.38
548.774	11.38
548.897	21.38
549.02	38.38
549.143	27.38
549.266	13.38
549.389	21.38
549.512	8.38
549.635	25.38
549.758	34.38
549.881	18.38
550.004	16.38
550.127	-0.62
550.25	17.38
550.373	-0.62
550.496	19.38
550.619	12.38
550.742	5.38
550.865	1.38
550.988	13.38
551.111	33.38
551.234	-6.62
551.356	4.38
551.479	-5.62
551.602	9.38
551.725	9.38
551.848	19.38
551.971	35.38
552.094	33.38
552.217	11.38
552.34	3.38
552.463	1.38
552.586	1.38
552.709	7.38
552.832	11.38
552.955	11.38
553.077	22.38
553.2	33.38
553.323	10.38
553.446	8.38
553.569	0.38
553.692	8.38
553.815	15.38
553.938	17.38
554.061	17.38
554.184	6.38
554.306	-6.62
554.429	-6.62
554.552	21.38
554.675	5.38
554.798	5.38
554.921	21.38
555.044	6.38
555.167	11.38
555.29	5.38
555.412	16.38
555.535	34.38
555.658	22.38
555.781	23.38
555.904	19.38
556.027	16.38
556.15	9.38
556.272	7.38
556.395	14.38
556.518	-5.62
556.641	22.38
556.764	18.38
556.887	2.38
557.01	-4.62
557.132	-12.62
557.255	4.38
557.378	27.38
557.501	20.38
557.624	23.38
557.747	29.38
557.869	36.38
557.992	35.38
558.115	15.38
558.238	21.38
558.361	15.38
558.483	36.38
558.606	21.38
558.729	-4.62
558.852	45.38
558.975	27.38
559.098	22.38
559.22	15.38
559.343	15.38
559.466	29.38
559.589	17.38
559.712	15.38
559.834	10.38
559.957	15.38
560.08	18.38
560.203	18.38
560.325	9.38
560.448	25.38
560.571	9.38
560.694	5.38
560.817	27.38
560.939	21.38
561.062	-6.62
561.185	12.38
561.308	32.38
561.43	-2.62
561.553	6.38
561.676	13.38
561.799	28.38
561.921	2.38
562.044	20.38
562.167	-13.62
562.29	26.38
562.413	17.38
562.535	21.38
562.658	13.38
562.781	-1.62
562.903	6.38
563.026	19.38
563.149	37.38
563.272	0.38
563.394	31.38
563.517	16.38
563.64	1.38
563.763	18.38
563.885	27.38
564.008	28.38
564.131	9.38
564.254	-12.62
564.376	29.38
564.499	1.38
564.622	2.38
564.744	30.38
564.867	23.38
564.99	21.38
565.113	20.38
565.235	18.38
565.358	10.38
565.481	-18.62
565.603	-8.62
565.726	8.38
565.849	11.38
565.971	19.38
566.094	-0.62
566.217	17.38
566.34	20.38
566.462	5.38
566.585	7.38
566.708	27.38
566.83	0.38
566.953	19.38
567.076	-0.62
567.198	14.38
567.321	-2.62
567.444	6.38
567.566	24.38
567.689	3.38
567.812	-8.62
567.934	25.38
568.057	27.38
568.18	6.38
568.302	0.38
568.425	6.38
568.548	19.38
568.67	17.38
568.793	3.38
568.916	-1.62
569.038	-4.62
569.161	20.38
569.283	18.38
569.406	-1.62
569.529	0.38
569.651	9.38
569.774	-0.62
569.897	-12.62
570.019	34.38
570.142	22.38
570.265	36.38
570.387	14.38
570.51	22.38
570.632	10.38
570.755	10.38
570.878	7.38
571	35.38
571.123	-5.62
571.246	10.38
571.368	-1.62
571.491	6.38
571.613	6.38
571.736	-10.62
571.859	15.38
571.981	-4.62
572.104	0.38
572.226	11.38
572.349	4.38
572.472	13.38
572.594	-6.62
572.717	15.38
572.839	11.38
572.962	14.38
573.085	20.38
573.207	-4.62
573.33	23.38
573.452	24.38
573.575	13.38
573.697	28.38
573.82	5.38
573.943	-2.62
574.065	14.38
574.188	4.38
574.31	26.38
574.433	26.38
574.555	23.38
574.678	6.38
574.801	13.38
574.923	13.38
575.046	7.38
575.168	6.38
575.291	8.38
575.413	10.38
575.536	-10.62
575.659	3.38
575.781	4.38
575.904	13.38
576.026	15.38
576.149	-6.62
576.271	5.38
576.394	5.38
576.516	8.38
576.639	24.38
576.761	8.38
576.884	-3.62
577.007	11.38
577.129	23.38
577.252	-13.62
577.374	31.38
577.497	11.38
577.619	29.38
577.742	5.38
577.864	35.38
577.987	25.38
578.109	20.38
578.232	27.38
578.354	42.38
578.477	19.38
578.599	17.38
578.722	9.38
578.844	-9.62
578.967	7.38
579.089	17.38
579.212	-8.62
579.334	11.38
579.457	12.38
579.579	11.38
579.702	11.38
579.824	0.38
579.947	2.38
580.069	9.38
580.192	-1.62
580.314	19.38
580.437	15.38
580.559	33.38
580.682	1.38
580.804	11.38
580.927	14.38
581.049	30.38
581.172	7.38
581.294	15.38
581.417	34.38
581.539	34.38
581.662	22.38
581.784	24.38
581.907	19.38
582.029	25.38
582.152	2.38
582.274	18.38
582.396	17.38
582.519	7.38
582.641	8.38
582.764	8.38
582.886	30.38
583.009	-0.62
583.131	-0.62
583.254	13.38
583.376	17.38
583.499	17.38
583.621	7.38
583.743	29.38
583.866	19.38
583.988	9.38
584.111	14.38
584.233	20.38
584.356	24.38
584.478	19.38
584.601	-14.62
584.723	7.38
584.845	18.38
584.968	11.38
585.09	-17.62
585.213	4.38
585.335	-0.62
585.458	11.38
585.58	4.38
585.702	33.38
585.825	14.38
585.947	14.38
586.07	-1.62
586.192	8.38
586.315	31.38
586.437	24.38
586.559	7.38
586.682	13.38
586.804	6.38
586.927	2.38
587.049	5.38
587.171	16.38
587.294	26.38
587.416	35.38
587.539	9.38
587.661	10.38
587.783	6.38
587.906	15.38
588.028	31.38
588.151	18.38
588.273	23.38
588.395	9.38
588.518	5.38
588.64	23.38
588.763	5.38
588.885	9.38
589.007	24.38
589.13	4.38
589.252	-4.62
589.375	15.38
589.497	5.38
589.619	30.38
589.742	11.38
589.864	30.38
589.986	15.38
590.109	-17.62
590.231	3.38
590.354	26.38
590.476	-4.62
590.598	-0.62
590.721	-0.62
590.843	8.38
590.965	-0.62
591.088	2.38
591.21	14.38
591.332	-1.62
591.455	-8.62
591.577	23.38
591.7	7.38
591.822	9.38
591.944	12.38
592.067	17.38
592.189	16.38
592.311	21.38
592.434	8.38
592.556	22.38
592.678	10.38
592.801	6.38
592.923	17.38
593.045	2.38
593.168	25.38
593.29	17.38
593.412	20.38
593.535	10.38
593.657	-6.62
593.779	13.38
593.902	37.38
594.024	8.38
594.146	24.38
594.269	15.38
594.391	11.38
594.513	27.38
594.636	6.38
594.758	2.38
594.88	22.38
595.003	17.38
595.125	-4.62
595.247	16.38
595.37	11.38
595.492	15.38
595.614	20.38
595.737	1.38
595.859	10.38
595.981	26.38
596.104	-1.62
596.226	9.38
596.348	4.38
596.471	7.38
596.593	23.38
596.715	14.38
596.838	-6.62
596.96	2.38
597.082	8.38
597.204	7.38
597.327	23.38
597.449	18.38
597.571	10.38
597.694	23.38
597.816	21.38
597.938	22.38
598.061	6.38
598.183	4.38
598.305	18.38
598.427	14.38
598.55	16.38
598.672	28.38
598.794	11.38
598.917	9.38
599.039	16.38
599.161	9.38
599.283	10.38
599.406	25.38
599.528	29.38
599.65	46.38
599.773	34.38
599.895	42.38
600.017	32.38
600.139	22.38
600.262	-4.62
600.384	17.38
600.506	23.38
600.628	26.38
600.751	23.38
600.873	9.38
600.995	3.38
601.118	21.38
601.24	6.38
601.362	24.38
601.484	29.38
601.607	26.38
601.729	14.38
601.851	12.38
601.973	14.38
602.096	21.38
602.218	20.38
602.34	9.38
602.462	32.38
602.585	24.38
602.707	0.38
602.829	9.38
602.951	4.38
603.074	5.38
603.196	6.38
603.318	-1.62
603.44	21.38
603.563	28.38
603.685	10.38
603.807	8.38
603.929	11.38
604.052	17.38
604.174	23.38
604.296	14.38
604.418	17.38
604.541	20.38
604.663	2.38
604.785	8.38
604.907	7.38
605.03	12.38
605.152	40.38
605.274	15.38
605.396	10.38
605.519	13.38
605.641	17.38
605.763	24.38
605.885	14.38
606.008	-5.62
606.13	11.38
606.252	29.38
606.374	5.38
606.496	5.38
606.619	9.38
606.741	11.38
606.863	24.38
606.985	33.38
607.108	2.38
607.23	30.38
607.352	10.38
607.474	6.38
607.596	22.38
607.719	3.38
607.841	29.38
607.963	17.38
608.085	11.38
608.207	37.38
608.33	16.38
608.452	12.38
608.574	2.38
608.696	28.38
608.819	4.38
608.941	17.38
609.063	7.38
609.185	-6.62
609.307	17.38
609.43	29.38
609.552	17.38
609.674	4.38
609.796	15.38
609.918	24.38
610.041	21.38
610.163	25.38
610.285	6.38
610.407	14.38
610.529	-6.62
610.652	11.38
610.774	11.38
610.896	14.38
611.018	14.38
611.14	4.38
611.263	-7.62
611.385	5.38
611.507	11.38
611.629	4.38
611.751	17.38
611.873	27.38
611.996	7.38
612.118	14.38
612.24	24.38
612.362	30.38
612.484	29.38
612.607	14.38
612.729	20.38
612.851	28.38
612.973	17.38
613.095	11.38
613.218	1.38
613.34	12.38
613.462	22.38
613.584	6.38
613.706	8.38
613.828	32.38
613.951	17.38
614.073	12.38
614.195	6.38
614.317	24.38
614.439	31.38
614.561	21.38
614.684	23.38
614.806	18.38
614.928	23.38
615.05	19.38
615.172	19.38
615.294	32.38
615.417	1.38
615.539	16.38
615.661	7.38
615.783	37.38
615.905	22.38
616.027	66.38
616.15	91.38
616.272	81.38
616.394	54.38
616.516	47.38
616.638	29.38
616.76	12.38
616.883	21.38
617.005	9.38
617.127	19.38
617.249	12.38
617.371	15.38
617.493	3.38
617.615	9.38
617.738	18.38
617.86	19.38
617.982	17.38
618.104	11.38
618.226	9.38
618.348	2.38
618.471	8.38
618.593	17.38
618.715	5.38
618.837	18.38
618.959	28.38
619.081	33.38
619.203	7.38
619.326	19.38
619.448	18.38
619.57	14.38
619.692	-3.62
619.814	19.38
619.936	3.38
620.058	19.38
620.181	23.38
620.303	-11.62
620.425	22.38
620.547	2.38
620.669	15.38
620.791	17.38
620.913	9.38
621.036	-8.62
621.158	14.38
621.28	19.38
621.402	-0.62
621.524	-12.62
621.646	21.38
621.768	16.38
621.891	7.38
622.013	-0.62
622.135	-8.62
622.257	-7.62
622.379	-2.62
622.501	9.38
622.623	26.38
622.745	4.38
622.868	15.38
622.99	-0.62
623.112	22.38
623.234	2.38
623.356	15.38
623.478	-12.62
623.6	21.38
623.722	1.38
623.845	26.38
623.967	-1.62
624.089	21.38
624.211	21.38
624.333	15.38
624.455	24.38
624.577	24.38
624.699	12.38
624.822	-10.62
624.944	13.38
625.066	11.38
625.188	1.38
625.31	16.38
625.432	33.38
625.554	10.38
625.676	36.38
625.799	-6.62
625.921	-4.62
626.043	-1.62
626.165	12.38
626.287	-1.62
626.409	7.38
626.531	0.38
626.653	10.38
626.775	8.38
626.898	-2.62
627.02	15.38
627.142	9.38
627.264	22.38
627.386	-3.62
627.508	12.38
627.63	-1.62
627.752	12.38
627.874	-4.62
627.997	12.38
628.119	23.38
628.241	4.38
628.363	27.38
628.485	26.38
628.607	15.38
628.729	5.38
628.851	-2.62
628.973	20.38
629.096	-3.62
629.218	2.38
629.34	9.38
629.462	-2.62
629.584	6.38
629.706	17.38
629.828	36.38
629.95	15.38
630.072	21.38
630.195	9.38
630.317	14.38
630.439	12.38
630.561	0.38
630.683	0.38
630.805	11.38
630.927	18.38
631.049	3.38
631.171	11.38
631.293	18.38
631.416	18.38
631.538	5.38
631.66	1.38
631.782	25.38
631.904	16.38
632.026	7.38
632.148	18.38
632.27	5.38
632.392	8.38
632.514	28.38
632.637	18.38
632.759	-2.62
632.881	-9.62
633.003	-11.62
633.125	3.38
633.247	14.38
633.369	11.38
633.491	16.38
633.613	7.38
633.735	2.38
633.858	13.38
633.98	11.38
634.102	6.38
634.224	4.38
634.346	4.38
634.468	1.38
634.59	8.38
634.712	8.38
634.834	12.38
634.956	-3.62
635.078	3.38
635.201	13.38
635.323	13.38
635.445	16.38
635.567	6.38
635.689	13.38
635.811	14.38
635.933	8.38
636.055	16.38
636.177	7.38
636.299	27.38
636.421	2.38
636.544	-0.62
636.666	20.38
636.788	16.38
636.91	17.38
637.032	23.38
637.154	25.38
637.276	38.38
637.398	31.38
637.52	28.38
637.642	7.38
637.764	8.38
637.887	5.38
638.009	-2.62
638.131	-1.62
638.253	11.38
638.375	15.38
638.497	15.38
638.619	3.38
638.741	1.38
638.863	-1.62
638.985	5.38
639.107	9.38
639.23	13.38
639.352	16.38
639.474	10.38
639.596	13.38
639.718	9.38
639.84	17.38
639.962	15.38
640.084	25.38
640.206	26.38
640.328	3.38
640.45	19.38
640.573	15.38
640.695	-13.62
640.817	-2.62
640.939	14.38
641.061	6.38
641.183	11.38
641.305	-6.62
641.427	2.38
641.549	-1.62
641.671	21.38
641.793	18.38
641.915	31.38
642.038	7.38
642.16	8.38
642.282	3.38
642.404	-6.62
642.526	2.38
642.648	6.38
642.77	9.38
642.892	21.38
643.014	14.38
643.136	22.38
643.258	14.38
643.381	24.38
643.503	35.38
643.625	15.38
643.747	15.38
643.869	2.38
643.991	13.38
644.113	4.38
644.235	7.38
644.357	17.38
644.479	22.38
644.601	11.38
644.723	-2.62
644.846	8.38
644.968	16.38
645.09	28.38
645.212	14.38
645.334	22.38
645.456	5.38
645.578	11.38
645.7	18.38
645.822	17.38
645.944	12.38
646.066	2.38
646.188	2.38
646.311	15.38
646.433	-2.62
646.555	44.38
646.677	40.38
646.799	40.38
646.921	33.38
647.043	17.38
647.165	1.38
647.287	15.38
647.409	12.38
647.531	26.38
647.654	-3.62
647.776	20.38
647.898	18.38
648.02	-1.62
648.142	-1.62
648.264	1.38
648.386	9.38
648.508	4.38
648.63	-20.62
648.752	15.38
648.874	14.38
648.997	9.38
649.119	28.38
649.241	-2.62
649.363	18.38
649.485	14.38
649.607	3.38
649.729	-4.62
649.851	15.38
649.973	12.38
650.095	11.38
650.217	1.38
650.34	7.38
650.462	11.38
650.584	12.38
650.706	33.38
650.828	4.38
650.95	-4.62
651.072	25.38
651.194	7.38
651.316	7.38
651.438	20.38
651.56	-14.62
651.683	-5.62
651.805	11.38
651.927	12.38
652.049	3.38
652.171	34.38
652.293	8.38
652.415	-2.62
652.537	-12.62
652.659	10.38
652.781	1.38
652.903	17.38
653.026	27.38
653.148	4.38
653.27	6.38
653.392	21.38
653.514	12.38
653.636	7.38
653.758	12.38
653.88	12.38
654.002	5.38
654.124	-8.62
654.247	3.38
654.369	23.38
654.491	7.38
654.613	14.38
654.735	8.38
654.857	19.38
654.979	24.38
655.101	26.38
655.223	49.38
655.345	30.38
655.468	35.38
655.59	24.38
655.712	43.38
655.834	15.38
655.956	25.38
656.078	19.38
656.2	49.38
656.322	43.38
656.444	27.38
656.566	49.38
656.689	42.38
656.811	62.38
656.933	95.38
657.055	85.38
657.177	170.38
657.299	272.38
657.421	529.38
657.543	1888.38
657.665	12650.38
657.787	15191.38
657.91	15318.38
658.032	15664.38
658.154	4675.38
658.276	3923.38
658.398	1241.38
658.52	1063.38
658.642	507.38
658.764	594.38
658.886	282.38
659.009	423.38
659.131	207.38
659.253	313.38
659.375	171.38
659.497	255.38
659.619	142.38
659.741	198.38
659.863	99.38
659.985	157.38
660.108	117.38
660.23	152.38
660.352	85.38
660.474	152.38
660.596	80.38
660.718	129.38
660.84	66.38
660.962	107.38
661.084	53.38
661.207	88.38
661.329	70.38
661.451	102.38
661.573	31.38
661.695	92.38
661.817	56.38
661.939	108.38
662.061	62.38
662.184	71.38
662.306	26.38
662.428	66.38
662.55	61.38
662.672	63.38
662.794	41.38
662.916	56.38
663.038	34.38
663.161	81.38
663.283	62.38
663.405	69.38
663.527	26.38
663.649	62.38
663.771	29.38
663.893	62.38
664.015	49.38
664.138	61.38
664.26	35.38
664.382	57.38
664.504	22.38
664.626	45.38
664.748	38.38
664.87	23.38
664.992	27.38
665.115	45.38
665.237	41.38
665.359	46.38
665.481	26.38
665.603	52.38
665.725	12.38
665.847	24.38
665.97	22.38
666.092	50.38
666.214	39.38
666.336	45.38
666.458	39.38
666.58	40.38
666.702	5.38
666.825	35.38
666.947	10.38
667.069	37.38
667.191	10.38
667.313	29.38
667.435	22.38
667.557	18.38
667.68	3.38
667.802	27.38
667.924	25.38
668.046	47.38
668.168	37.38
668.29	32.38
668.412	16.38
668.535	33.38
668.657	13.38
668.779	11.38
668.901	27.38
669.023	46.38
669.145	34.38
669.267	35.38
669.39	18.38
669.512	29.38
669.634	34.38
669.756	15.38
669.878	6.38
670	43.38
670.123	12.38
670.245	43.38
670.367	29.38
670.489	44.38
670.611	21.38
670.733	15.38
670.856	5.38
670.978	36.38
671.1	22.38
671.222	24.38
671.344	4.38
671.466	28.38
671.589	10.38
671.711	19.38
671.833	9.38
671.955	25.38
672.077	10.38
672.199	30.38
672.322	38.38
672.444	25.38
672.566	21.38
672.688	13.38
672.81	8.38
672.932	21.38
673.055	7.38
673.177	2.38
673.299	18.38
673.421	23.38
673.543	32.38
673.665	39.38
673.788	19.38
673.91	27.38
674.032	21.38
674.154	27.38
674.276	27.38
674.399	11.38
674.521	18.38
674.643	26.38
674.765	6.38
674.887	24.38
675.009	17.38
675.132	23.38
675.254	13.38
675.376	15.38
675.498	6.38
675.62	25.38
675.743	15.38
675.865	28.38
675.987	18.38
676.109	17.38
676.231	20.38
676.354	45.38
676.476	1.38
676.598	27.38
676.72	4.38
676.842	23.38
676.965	5.38
677.087	25.38
677.209	19.38
677.331	41.38
677.453	25.38
677.576	26.38
677.698	27.38
677.82	31.38
677.942	-8.62
678.064	9.38
678.187	15.38
678.309	14.38
678.431	-1.62
678.553	9.38
678.675	37.38
678.798	31.38
678.92	7.38
679.042	17.38
679.164	-6.62
679.286	9.38
679.409	10.38
679.531	18.38
679.653	23.38
679.775	23.38
679.898	2.38
680.02	10.38
680.142	10.38
680.264	29.38
680.386	14.38
680.509	19.38
680.631	15.38
680.753	28.38
680.875	11.38
680.998	18.38
681.12	4.38
681.242	24.38
681.364	-11.62
681.486	-2.62
681.609	-8.62
681.731	12.38
681.853	-1.62
681.975	18.38
682.098	22.38
682.22	42.38
682.342	5.38
682.464	28.38
682.587	7.38
682.709	-1.62
682.831	2.38
682.953	3.38
683.076	-4.62
683.198	19.38
683.32	21.38
683.442	25.38
683.565	25.38
683.687	4.38
683.809	2.38
683.931	3.38
684.054	11.38
684.176	11.38
684.298	5.38
684.42	30.38
684.543	8.38
684.665	14.38
684.787	3.38
684.909	0.38
685.032	17.38
685.154	-13.62
685.276	4.38
685.398	-0.62
685.521	-3.62
685.643	23.38
685.765	9.38
685.887	26.38
686.01	13.38
686.132	15.38
686.254	9.38
686.377	11.38
686.499	11.38
686.621	29.38
686.743	26.38
686.866	21.38
686.988	29.38
687.11	27.38
687.232	23.38
687.355	-3.62
687.477	10.38
687.599	13.38
687.722	-2.62
687.844	1.38
687.966	11.38
688.088	9.38
688.211	14.38
688.333	13.38
688.455	9.38
688.578	26.38
688.7	14.38
688.822	24.38
688.944	-10.62
689.067	40.38
689.189	16.38
689.311	5.38
689.434	10.38
689.556	-0.62
689.678	8.38
689.801	-2.62
689.923	17.38
690.045	29.38
690.167	29.38
690.29	23.38
690.412	3.38
690.534	16.38
690.657	3.38
690.779	1.38
690.901	18.38
691.024	14.38
691.146	6.38
691.268	13.38
691.391	5.38
691.513	30.38
691.635	18.38
691.758	34.38
691.88	35.38
692.002	12.38
692.125	1.38
692.247	14.38
692.369	-0.62
692.492	-9.62
692.614	-5.62
692.736	-2.62
692.859	24.38
692.981	6.38
693.103	11.38
693.226	28.38
693.348	37.38
693.47	3.38
693.593	11.38
693.715	12.38
693.837	-4.62
693.96	-4.62
694.082	-1.62
694.204	13.38
694.327	5.38
694.449	13.38
694.571	7.38
694.694	18.38
694.816	10.38
694.938	-2.62
695.061	15.38
695.183	7.38
695.305	7.38
695.428	30.38
695.55	5.38
695.672	-9.62
695.795	9.38
695.917	26.38
696.04	11.38
696.162	-0.62
696.284	15.38
696.407	14.38
696.529	12.38
696.651	23.38
696.774	18.38
696.896	27.38
697.019	22.38
697.141	6.38
697.263	-13.62
697.386	-6.62
697.508	3.38
697.63	24.38
697.753	15.38
697.875	5.38
697.998	13.38
698.12	25.38
698.242	3.38
698.365	13.38
698.487	15.38
698.61	19.38
698.732	30.38
698.854	20.38
698.977	16.38
699.099	18.38
699.221	-6.62
699.344	18.38
699.466	10.38
699.589	20.38
699.711	4.38
699.834	16.38
699.956	19.38
700.078	19.38
700.201	6.38
700.323	25.38
700.446	19.38
700.568	6.38
700.69	16.38
700.813	29.38
700.935	15.38
701.058	2.38
701.18	-1.62
701.302	6.38
701.425	-9.62
701.547	12.38
701.67	7.38
701.792	9.38
701.915	13.38
702.037	14.38
702.159	3.38
702.282	7.38
702.404	9.38
702.527	32.38
702.649	27.38
702.772	18.38
702.894	9.38
703.017	10.38
703.139	19.38
703.261	37.38
703.384	16.38
703.506	0.38
703.629	1.38
703.751	10.38
703.874	12.38
703.996	3.38
704.119	-15.62
704.241	15.38
704.364	-3.62
704.486	7.38
704.608	10.38
704.731	12.38
704.853	26.38
704.976	6.38
705.098	-1.62
705.221	22.38
705.343	7.38
705.466	28.38
705.588	26.38
705.711	11.38
705.833	12.38
705.956	-2.62
706.078	15.38
706.201	6.38
706.323	-0.62
706.446	14.38
