Data from LowRes_H2_15_26_11_07_2024_HR4C61881__82__15-28-21-836.txt Node

Date: Thu Nov 07 15:28:21 EST 2024
User: crc00042
Spectrometer: HR4C6188
Trigger mode: 4
Integration Time (sec): 1.000000E-1
Scans to average: 1
Electric dark correction enabled: true
Nonlinearity correction enabled: false
Boxcar width: 0
XAxis mode: Wavelengths
Number of Pixels in Spectrum: 3648
>>>>>Begin Spectral Data<<<<<
245.66	-118.92
245.797	-118.92
245.934	-118.92
246.071	-77.92
246.208	21.08
246.344	6.08
246.481	-8.92
246.618	-16.92
246.755	15.08
246.892	-9.92
247.029	-16.92
247.165	-24.92
247.302	-0.92
247.439	5.08
247.576	17.08
247.713	20.08
247.849	20.08
247.986	-4.92
248.123	2.08
248.26	-12.92
248.396	3.08
248.533	-4.92
248.67	-13.92
248.806	-7.92
248.943	-10.92
249.08	-8.92
249.216	23.08
249.353	-12.92
249.49	-20.92
249.626	4.08
249.763	-7.92
249.9	-29.92
250.036	-7.92
250.173	-9.92
250.309	6.08
250.446	-0.92
250.582	-1.92
250.719	-26.92
250.856	-7.92
250.992	1.08
251.129	-0.92
251.265	-25.92
251.402	-1.92
251.538	-0.92
251.675	-12.92
251.811	5.08
251.948	17.08
252.084	16.08
252.221	6.08
252.357	-17.92
252.493	21.08
252.63	18.08
252.766	-4.92
252.903	3.08
253.039	11.08
253.175	-7.92
253.312	0.08
253.448	2.08
253.585	-15.92
253.721	-14.92
253.857	-11.92
253.994	13.08
254.13	2.08
254.266	-3.92
254.403	-7.92
254.539	17.08
254.675	7.08
254.811	10.08
254.948	13.08
255.084	21.08
255.22	3.08
255.356	10.08
255.493	0.08
255.629	-2.92
255.765	-7.92
255.901	2.08
256.037	-3.92
256.174	9.08
256.31	-17.92
256.446	-27.92
256.582	-11.92
256.718	13.08
256.854	-2.92
256.991	6.08
257.127	23.08
257.263	5.08
257.399	6.08
257.535	4.08
257.671	-7.92
257.807	-3.92
257.943	-6.92
258.079	-8.92
258.215	8.08
258.351	46.08
258.487	13.08
258.623	4.08
258.759	-16.92
258.895	7.08
259.031	-16.92
259.167	-6.92
259.303	28.08
259.439	-1.92
259.575	0.08
259.711	4.08
259.847	6.08
259.983	11.08
260.119	-4.92
260.255	2.08
260.391	20.08
260.527	19.08
260.663	11.08
260.799	16.08
260.934	16.08
261.07	0.08
261.206	-11.92
261.342	0.08
261.478	-3.92
261.614	21.08
261.749	15.08
261.885	-7.92
262.021	-4.92
262.157	29.08
262.293	4.08
262.428	-9.92
262.564	-1.92
262.7	14.08
262.836	-7.92
262.971	4.08
263.107	16.08
263.243	8.08
263.378	16.08
263.514	-17.92
263.65	-6.92
263.785	-19.92
263.921	-12.92
264.057	-8.92
264.192	16.08
264.328	17.08
264.464	-0.92
264.599	7.08
264.735	18.08
264.871	-11.92
265.006	-5.92
265.142	-10.92
265.277	0.08
265.413	0.08
265.548	5.08
265.684	14.08
265.819	7.08
265.955	-19.92
266.091	-12.92
266.226	-27.92
266.362	9.08
266.497	10.08
266.633	3.08
266.768	-12.92
266.903	8.08
267.039	5.08
267.174	24.08
267.31	-1.92
267.445	-18.92
267.581	-9.92
267.716	9.08
267.851	9.08
267.987	7.08
268.122	-1.92
268.258	-11.92
268.393	-29.92
268.528	14.08
268.664	-4.92
268.799	-8.92
268.934	5.08
269.07	-6.92
269.205	-5.92
269.34	11.08
269.476	9.08
269.611	-8.92
269.746	-1.92
269.881	-5.92
270.017	9.08
270.152	10.08
270.287	10.08
270.422	22.08
270.558	-3.92
270.693	3.08
270.828	-0.92
270.963	4.08
271.098	-20.92
271.234	1.08
271.369	16.08
271.504	-1.92
271.639	17.08
271.774	-1.92
271.909	-5.92
272.045	-18.92
272.18	-4.92
272.315	3.08
272.45	24.08
272.585	-2.92
272.72	14.08
272.855	-16.92
272.99	22.08
273.125	-6.92
273.26	8.08
273.395	6.08
273.53	15.08
273.665	21.08
273.8	7.08
273.935	6.08
274.07	0.08
274.205	15.08
274.34	-7.92
274.475	-5.92
274.61	39.08
274.745	-4.92
274.88	14.08
275.015	-22.92
275.15	0.08
275.285	16.08
275.42	-3.92
275.555	15.08
275.69	14.08
275.825	-12.92
275.959	9.08
276.094	-3.92
276.229	-1.92
276.364	-0.92
276.499	6.08
276.634	-0.92
276.768	15.08
276.903	10.08
277.038	17.08
277.173	14.08
277.308	6.08
277.442	-1.92
277.577	-16.92
277.712	-8.92
277.847	-12.92
277.981	7.08
278.116	-24.92
278.251	12.08
278.386	-1.92
278.52	-7.92
278.655	-1.92
278.79	17.08
278.924	13.08
279.059	10.08
279.194	-27.92
279.328	19.08
279.463	2.08
279.598	11.08
279.732	7.08
279.867	16.08
280.001	4.08
280.136	-0.92
280.271	24.08
280.405	7.08
280.54	-6.92
280.674	-19.92
280.809	28.08
280.943	1.08
281.078	-5.92
281.213	26.08
281.347	19.08
281.482	27.08
281.616	-1.92
281.751	3.08
281.885	-14.92
282.02	4.08
282.154	7.08
282.288	-6.92
282.423	-12.92
282.557	-20.92
282.692	-4.92
282.826	4.08
282.961	7.08
283.095	-8.92
283.229	9.08
283.364	-13.92
283.498	-9.92
283.633	-7.92
283.767	2.08
283.901	-1.92
284.036	18.08
284.17	-9.92
284.304	-14.92
284.439	7.08
284.573	-3.92
284.707	21.08
284.842	-8.92
284.976	-6.92
285.11	-7.92
285.244	3.08
285.379	32.08
285.513	-26.92
285.647	12.08
285.781	17.08
285.916	24.08
286.05	13.08
286.184	20.08
286.318	8.08
286.453	-5.92
286.587	-22.92
286.721	-1.92
286.855	-9.92
286.989	1.08
287.123	-8.92
287.258	-15.92
287.392	-25.92
287.526	-4.92
287.66	9.08
287.794	5.08
287.928	-3.92
288.062	18.08
288.196	9.08
288.33	17.08
288.464	18.08
288.598	15.08
288.733	8.08
288.867	7.08
289.001	7.08
289.135	3.08
289.269	0.08
289.403	11.08
289.537	0.08
289.671	-4.92
289.805	-16.92
289.939	2.08
290.073	2.08
290.207	7.08
290.34	13.08
290.474	10.08
290.608	20.08
290.742	-11.92
290.876	-3.92
291.01	-9.92
291.144	27.08
291.278	20.08
291.412	1.08
291.546	3.08
291.679	7.08
291.813	8.08
291.947	2.08
292.081	-22.92
292.215	5.08
292.349	20.08
292.482	3.08
292.616	-19.92
292.75	-2.92
292.884	-11.92
293.018	12.08
293.151	-0.92
293.285	-8.92
293.419	-0.92
293.553	-9.92
293.686	-17.92
293.82	-2.92
293.954	23.08
294.088	18.08
294.221	-0.92
294.355	-1.92
294.489	15.08
294.622	-2.92
294.756	-1.92
294.89	-10.92
295.023	-21.92
295.157	16.08
295.291	8.08
295.424	15.08
295.558	4.08
295.691	-1.92
295.825	-12.92
295.959	8.08
296.092	-10.92
296.226	-4.92
296.359	1.08
296.493	10.08
296.627	16.08
296.76	18.08
296.894	-4.92
297.027	4.08
297.161	-1.92
297.294	-11.92
297.428	6.08
297.561	20.08
297.695	-6.92
297.828	-8.92
297.962	-0.92
298.095	-13.92
298.229	13.08
298.362	-10.92
298.495	-14.92
298.629	-7.92
298.762	-15.92
298.896	-0.92
299.029	-25.92
299.162	-11.92
299.296	13.08
299.429	-12.92
299.563	-7.92
299.696	10.08
299.829	-2.92
299.963	2.08
300.096	18.08
300.229	8.08
300.363	11.08
300.496	12.08
300.629	-16.92
300.763	-0.92
300.896	7.08
301.029	7.08
301.162	32.08
301.296	8.08
301.429	-2.92
301.562	-27.92
301.695	15.08
301.829	22.08
301.962	23.08
302.095	12.08
302.228	-1.92
302.362	24.08
302.495	1.08
302.628	2.08
302.761	5.08
302.894	-7.92
303.027	14.08
303.161	-15.92
303.294	-1.92
303.427	9.08
303.56	31.08
303.693	8.08
303.826	-6.92
303.959	-10.92
304.092	-2.92
304.225	-5.92
304.359	3.08
304.492	1.08
304.625	-16.92
304.758	5.08
304.891	-11.92
305.024	-0.92
305.157	12.08
305.29	-20.92
305.423	-13.92
305.556	19.08
305.689	24.08
305.822	-13.92
305.955	6.08
306.088	-0.92
306.221	7.08
306.354	-9.92
306.487	-7.92
306.62	-34.92
306.752	-14.92
306.885	8.08
307.018	-6.92
307.151	21.08
307.284	18.08
307.417	-13.92
307.55	-7.92
307.683	-11.92
307.816	10.08
307.948	-6.92
308.081	29.08
308.214	18.08
308.347	6.08
308.48	-7.92
308.613	-3.92
308.745	5.08
308.878	-8.92
309.011	-4.92
309.144	5.08
309.277	-0.92
309.409	16.08
309.542	-1.92
309.675	22.08
309.808	3.08
309.94	19.08
310.073	-0.92
310.206	-11.92
310.339	-8.92
310.471	-36.92
310.604	8.08
310.737	-10.92
310.869	10.08
311.002	3.08
311.135	7.08
311.267	-20.92
311.4	-8.92
311.533	8.08
311.665	-9.92
311.798	1.08
311.93	5.08
312.063	14.08
312.196	-6.92
312.328	-1.92
312.461	-0.92
312.593	3.08
312.726	15.08
312.859	0.08
312.991	22.08
313.124	-20.92
313.256	11.08
313.389	23.08
313.521	-2.92
313.654	-7.92
313.786	-24.92
313.919	-8.92
314.051	-7.92
314.184	9.08
314.316	24.08
314.449	-29.92
314.581	-10.92
314.714	2.08
314.846	-7.92
314.978	-19.92
315.111	1.08
315.243	-1.92
315.376	-0.92
315.508	12.08
315.641	10.08
315.773	23.08
315.905	2.08
316.038	-13.92
316.17	9.08
316.302	23.08
316.435	5.08
316.567	0.08
316.699	3.08
316.832	16.08
316.964	-3.92
317.096	4.08
317.229	-15.92
317.361	-17.92
317.493	10.08
317.625	-11.92
317.758	9.08
317.89	26.08
318.022	22.08
318.155	1.08
318.287	5.08
318.419	-14.92
318.551	-19.92
318.683	-6.92
318.816	-11.92
318.948	2.08
319.08	8.08
319.212	-12.92
319.344	-6.92
319.477	-6.92
319.609	5.08
319.741	12.08
319.873	-15.92
320.005	-9.92
320.137	12.08
320.269	2.08
320.401	5.08
320.534	-12.92
320.666	-8.92
320.798	-13.92
320.93	4.08
321.062	-17.92
321.194	5.08
321.326	5.08
321.458	4.08
321.59	-2.92
321.722	4.08
321.854	-6.92
321.986	-0.92
322.118	1.08
322.25	-9.92
322.382	-4.92
322.514	-14.92
322.646	-11.92
322.778	13.08
322.91	1.08
323.042	6.08
323.174	2.08
323.306	-12.92
323.438	-22.92
323.57	10.08
323.702	0.08
323.834	3.08
323.966	-16.92
324.097	-3.92
324.229	8.08
324.361	5.08
324.493	0.08
324.625	-17.92
324.757	5.08
324.889	-6.92
325.021	-0.92
325.152	9.08
325.284	5.08
325.416	10.08
325.548	15.08
325.68	-7.92
325.811	14.08
325.943	8.08
326.075	-21.92
326.207	5.08
326.339	12.08
326.47	2.08
326.602	-12.92
326.734	11.08
326.866	0.08
326.997	-16.92
327.129	-6.92
327.261	-16.92
327.392	-8.92
327.524	-3.92
327.656	3.08
327.787	5.08
327.919	7.08
328.051	-9.92
328.182	10.08
328.314	30.08
328.446	14.08
328.577	15.08
328.709	6.08
328.841	-9.92
328.972	5.08
329.104	0.08
329.235	0.08
329.367	3.08
329.499	2.08
329.63	-1.92
329.762	-8.92
329.893	4.08
330.025	7.08
330.156	-12.92
330.288	3.08
330.419	14.08
330.551	24.08
330.683	-3.92
330.814	7.08
330.946	12.08
331.077	-17.92
331.208	-33.92
331.34	-11.92
331.471	0.08
331.603	8.08
331.734	-10.92
331.866	5.08
331.997	0.08
332.129	-0.92
332.26	1.08
332.392	24.08
332.523	-6.92
332.654	-18.92
332.786	1.08
332.917	1.08
333.048	5.08
333.18	24.08
333.311	4.08
333.443	10.08
333.574	-4.92
333.705	23.08
333.837	-4.92
333.968	15.08
334.099	9.08
334.231	12.08
334.362	11.08
334.493	5.08
334.624	7.08
334.756	1.08
334.887	13.08
335.018	-3.92
335.15	12.08
335.281	-6.92
335.412	19.08
335.543	-2.92
335.675	-4.92
335.806	14.08
335.937	13.08
336.068	20.08
336.199	9.08
336.331	-4.92
336.462	-17.92
336.593	13.08
336.724	-20.92
336.855	3.08
336.986	0.08
337.118	13.08
337.249	2.08
337.38	5.08
337.511	-3.92
337.642	16.08
337.773	12.08
337.904	25.08
338.035	17.08
338.166	7.08
338.298	10.08
338.429	-5.92
338.56	2.08
338.691	7.08
338.822	-5.92
338.953	16.08
339.084	25.08
339.215	16.08
339.346	-0.92
339.477	-4.92
339.608	-5.92
339.739	-6.92
339.87	-1.92
340.001	-13.92
340.132	1.08
340.263	-3.92
340.394	-4.92
340.525	9.08
340.656	-22.92
340.787	-10.92
340.918	2.08
341.049	19.08
341.179	11.08
341.31	-0.92
341.441	1.08
341.572	-3.92
341.703	9.08
341.834	-0.92
341.965	15.08
342.096	-10.92
342.227	-15.92
342.357	-12.92
342.488	-4.92
342.619	6.08
342.75	-2.92
342.881	15.08
343.012	11.08
343.142	6.08
343.273	-2.92
343.404	-3.92
343.535	33.08
343.666	32.08
343.796	24.08
343.927	17.08
344.058	26.08
344.189	30.08
344.319	21.08
344.45	0.08
344.581	6.08
344.712	-4.92
344.842	-11.92
344.973	-17.92
345.104	11.08
345.234	-13.92
345.365	0.08
345.496	4.08
345.626	8.08
345.757	10.08
345.888	-5.92
346.018	-11.92
346.149	-0.92
346.28	28.08
346.41	-4.92
346.541	2.08
346.672	3.08
346.802	-1.92
346.933	4.08
347.063	8.08
347.194	-8.92
347.325	6.08
347.455	18.08
347.586	1.08
347.716	-21.92
347.847	-6.92
347.977	5.08
348.108	10.08
348.238	10.08
348.369	4.08
348.499	18.08
348.63	-20.92
348.76	10.08
348.891	15.08
349.021	20.08
349.152	7.08
349.282	26.08
349.413	-4.92
349.543	21.08
349.674	1.08
349.804	4.08
349.935	-8.92
350.065	3.08
350.196	-0.92
350.326	-4.92
350.456	-14.92
350.587	24.08
350.717	9.08
350.848	9.08
350.978	21.08
351.108	-8.92
351.239	7.08
351.369	3.08
351.499	-0.92
351.63	1.08
351.76	-15.92
351.89	6.08
352.021	-11.92
352.151	-5.92
352.281	15.08
352.412	19.08
352.542	9.08
352.672	-8.92
352.803	-5.92
352.933	20.08
353.063	22.08
353.193	7.08
353.324	4.08
353.454	3.08
353.584	25.08
353.714	12.08
353.845	3.08
353.975	-25.92
354.105	-15.92
354.235	19.08
354.365	12.08
354.496	-2.92
354.626	7.08
354.756	10.08
354.886	-10.92
355.016	-4.92
355.146	5.08
355.277	22.08
355.407	8.08
355.537	19.08
355.667	7.08
355.797	10.08
355.927	13.08
356.057	-9.92
356.187	18.08
356.318	1.08
356.448	-0.92
356.578	14.08
356.708	18.08
356.838	25.08
356.968	11.08
357.098	18.08
357.228	1.08
357.358	-7.92
357.488	2.08
357.618	26.08
357.748	16.08
357.878	1.08
358.008	17.08
358.138	-12.92
358.268	8.08
358.398	18.08
358.528	-24.92
358.658	-3.92
358.788	-5.92
358.918	3.08
359.048	-9.92
359.178	16.08
359.308	-5.92
359.438	4.08
359.568	14.08
359.698	21.08
359.827	5.08
359.957	8.08
360.087	3.08
360.217	5.08
360.347	5.08
360.477	8.08
360.607	-9.92
360.737	11.08
360.866	-5.92
360.996	-23.92
361.126	1.08
361.256	15.08
361.386	18.08
361.516	15.08
361.645	-13.92
361.775	22.08
361.905	-9.92
362.035	-10.92
362.165	-25.92
362.294	-0.92
362.424	18.08
362.554	16.08
362.684	-7.92
362.813	3.08
362.943	21.08
363.073	-3.92
363.203	9.08
363.332	3.08
363.462	-6.92
363.592	5.08
363.721	-10.92
363.851	2.08
363.981	9.08
364.111	-0.92
364.24	-15.92
364.37	12.08
364.5	15.08
364.629	26.08
364.759	-8.92
364.888	-21.92
365.018	-2.92
365.148	-0.92
365.277	11.08
365.407	13.08
365.537	-2.92
365.666	0.08
365.796	7.08
365.925	13.08
366.055	24.08
366.184	-15.92
366.314	-14.92
366.444	18.08
366.573	-0.92
366.703	5.08
366.832	13.08
366.962	15.08
367.091	22.08
367.221	13.08
367.35	6.08
367.48	48.08
367.609	11.08
367.739	12.08
367.868	-11.92
367.998	13.08
368.127	18.08
368.257	8.08
368.386	19.08
368.516	14.08
368.645	18.08
368.775	0.08
368.904	16.08
369.033	13.08
369.163	5.08
369.292	34.08
369.422	26.08
369.551	11.08
369.68	24.08
369.81	21.08
369.939	1.08
370.069	18.08
370.198	0.08
370.327	-12.92
370.457	-4.92
370.586	11.08
370.715	-8.92
370.845	1.08
370.974	3.08
371.103	22.08
371.233	13.08
371.362	3.08
371.491	-13.92
371.621	18.08
371.75	18.08
371.879	14.08
372.008	15.08
372.138	-1.92
372.267	11.08
372.396	-4.92
372.525	12.08
372.655	18.08
372.784	9.08
372.913	14.08
373.042	15.08
373.172	28.08
373.301	3.08
373.43	-0.92
373.559	-9.92
373.688	10.08
373.818	7.08
373.947	22.08
374.076	14.08
374.205	26.08
374.334	16.08
374.463	9.08
374.593	15.08
374.722	19.08
374.851	7.08
374.98	2.08
375.109	-1.92
375.238	1.08
375.367	16.08
375.496	-19.92
375.625	-12.92
375.755	7.08
375.884	27.08
376.013	9.08
376.142	-17.92
376.271	-15.92
376.4	-6.92
376.529	-0.92
376.658	10.08
376.787	31.08
376.916	11.08
377.045	-6.92
377.174	-10.92
377.303	-7.92
377.432	16.08
377.561	7.08
377.69	-3.92
377.819	30.08
377.948	11.08
378.077	-0.92
378.206	7.08
378.335	-12.92
378.464	-6.92
378.593	21.08
378.722	1.08
378.851	-3.92
378.98	14.08
379.108	3.08
379.237	-8.92
379.366	6.08
379.495	24.08
379.624	11.08
379.753	16.08
379.882	-2.92
380.011	10.08
380.14	-3.92
380.268	17.08
380.397	-13.92
380.526	32.08
380.655	-20.92
380.784	-26.92
380.913	-16.92
381.041	-4.92
381.17	-7.92
381.299	-12.92
381.428	1.08
381.557	24.08
381.685	-4.92
381.814	-10.92
381.943	1.08
382.072	-1.92
382.2	6.08
382.329	-4.92
382.458	8.08
382.587	-2.92
382.715	36.08
382.844	-1.92
382.973	16.08
383.102	4.08
383.23	-0.92
383.359	2.08
383.488	17.08
383.616	1.08
383.745	-13.92
383.874	11.08
384.003	10.08
384.131	-6.92
384.26	-0.92
384.389	15.08
384.517	8.08
384.646	-1.92
384.774	0.08
384.903	10.08
385.032	16.08
385.16	5.08
385.289	-5.92
385.418	10.08
385.546	6.08
385.675	0.08
385.803	5.08
385.932	-7.92
386.06	-1.92
386.189	-12.92
386.318	-5.92
386.446	1.08
386.575	7.08
386.703	9.08
386.832	2.08
386.96	5.08
387.089	12.08
387.217	2.08
387.346	-13.92
387.474	5.08
387.603	13.08
387.731	11.08
387.86	24.08
387.988	4.08
388.117	26.08
388.245	21.08
388.374	-12.92
388.502	32.08
388.631	-4.92
388.759	3.08
388.888	7.08
389.016	-19.92
389.144	-1.92
389.273	-13.92
389.401	-15.92
389.53	-12.92
389.658	7.08
389.786	-3.92
389.915	-22.92
390.043	-22.92
390.172	11.08
390.3	11.08
390.428	5.08
390.557	14.08
390.685	19.08
390.813	4.08
390.942	24.08
391.07	0.08
391.198	6.08
391.327	-20.92
391.455	-5.92
391.583	29.08
391.712	-7.92
391.84	4.08
391.968	20.08
392.096	-0.92
392.225	3.08
392.353	20.08
392.481	14.08
392.609	3.08
392.738	3.08
392.866	20.08
392.994	-10.92
393.122	2.08
393.251	-21.92
393.379	-4.92
393.507	-8.92
393.635	-7.92
393.764	9.08
393.892	7.08
394.02	-5.92
394.148	15.08
394.276	10.08
394.404	29.08
394.533	1.08
394.661	9.08
394.789	8.08
394.917	23.08
395.045	-0.92
395.173	-8.92
395.302	1.08
395.43	8.08
395.558	22.08
395.686	27.08
395.814	18.08
395.942	-15.92
396.07	8.08
396.198	13.08
396.326	24.08
396.454	18.08
396.582	28.08
396.711	6.08
396.839	4.08
396.967	8.08
397.095	12.08
397.223	13.08
397.351	14.08
397.479	33.08
397.607	1.08
397.735	13.08
397.863	20.08
397.991	-9.92
398.119	-4.92
398.247	4.08
398.375	-1.92
398.503	4.08
398.631	16.08
398.759	18.08
398.887	-10.92
399.015	1.08
399.143	1.08
399.271	12.08
399.399	7.08
399.526	2.08
399.654	4.08
399.782	-9.92
399.91	20.08
400.038	31.08
400.166	-11.92
400.294	1.08
400.422	4.08
400.55	21.08
400.678	8.08
400.805	9.08
400.933	2.08
401.061	13.08
401.189	-7.92
401.317	19.08
401.445	21.08
401.573	8.08
401.7	4.08
401.828	0.08
401.956	-10.92
402.084	18.08
402.212	17.08
402.34	13.08
402.467	17.08
402.595	12.08
402.723	9.08
402.851	28.08
402.978	10.08
403.106	19.08
403.234	7.08
403.362	19.08
403.489	9.08
403.617	16.08
403.745	16.08
403.873	-11.92
404	2.08
404.128	13.08
404.256	7.08
404.384	19.08
404.511	13.08
404.639	-15.92
404.767	-0.92
404.894	-10.92
405.022	2.08
405.15	15.08
405.277	-3.92
405.405	-10.92
405.533	4.08
405.66	0.08
405.788	-0.92
405.916	-12.92
406.043	-26.92
406.171	-16.92
406.299	24.08
406.426	12.08
406.554	13.08
406.681	36.08
406.809	16.08
406.937	17.08
407.064	-8.92
407.192	17.08
407.319	6.08
407.447	7.08
407.574	19.08
407.702	1.08
407.83	-9.92
407.957	-12.92
408.085	-4.92
408.212	8.08
408.34	15.08
408.467	11.08
408.595	4.08
408.722	14.08
408.85	22.08
408.977	-6.92
409.105	2.08
409.232	9.08
409.36	19.08
409.487	11.08
409.615	5.08
409.742	15.08
409.87	18.08
409.997	36.08
410.125	30.08
410.252	50.08
410.379	40.08
410.507	27.08
410.634	10.08
410.762	20.08
410.889	5.08
411.017	-1.92
411.144	32.08
411.271	-3.92
411.399	2.08
411.526	-0.92
411.653	14.08
411.781	31.08
411.908	7.08
412.036	-3.92
412.163	22.08
412.29	15.08
412.418	3.08
412.545	22.08
412.672	17.08
412.8	27.08
412.927	16.08
413.054	9.08
413.182	3.08
413.309	5.08
413.436	-5.92
413.564	-0.92
413.691	-6.92
413.818	3.08
413.945	-4.92
414.073	-10.92
414.2	4.08
414.327	6.08
414.454	16.08
414.582	13.08
414.709	7.08
414.836	3.08
414.963	-0.92
415.091	2.08
415.218	-1.92
415.345	6.08
415.472	7.08
415.6	-16.92
415.727	5.08
415.854	18.08
415.981	0.08
416.108	5.08
416.236	3.08
416.363	1.08
416.49	12.08
416.617	4.08
416.744	17.08
416.871	38.08
416.998	-4.92
417.126	15.08
417.253	6.08
417.38	-8.92
417.507	-7.92
417.634	11.08
417.761	26.08
417.888	15.08
418.015	16.08
418.143	21.08
418.27	15.08
418.397	9.08
418.524	19.08
418.651	5.08
418.778	6.08
418.905	18.08
419.032	-0.92
419.159	-0.92
419.286	24.08
419.413	-2.92
419.54	11.08
419.667	5.08
419.794	8.08
419.921	13.08
420.048	20.08
420.175	20.08
420.302	18.08
420.429	22.08
420.556	6.08
420.683	1.08
420.81	3.08
420.937	8.08
421.064	11.08
421.191	1.08
421.318	17.08
421.445	25.08
421.572	-2.92
421.699	15.08
421.826	14.08
421.953	0.08
422.08	-0.92
422.207	-12.92
422.334	-17.92
422.461	15.08
422.588	9.08
422.714	9.08
422.841	29.08
422.968	17.08
423.095	15.08
423.222	-10.92
423.349	20.08
423.476	19.08
423.603	6.08
423.729	8.08
423.856	-1.92
423.983	2.08
424.11	-8.92
424.237	13.08
424.364	-13.92
424.491	2.08
424.617	-5.92
424.744	-3.92
424.871	24.08
424.998	2.08
425.125	-21.92
425.251	-6.92
425.378	-4.92
425.505	-1.92
425.632	10.08
425.758	-5.92
425.885	12.08
426.012	16.08
426.139	23.08
426.266	3.08
426.392	9.08
426.519	0.08
426.646	4.08
426.772	24.08
426.899	11.08
427.026	25.08
427.153	13.08
427.279	4.08
427.406	5.08
427.533	7.08
427.659	12.08
427.786	3.08
427.913	27.08
428.039	10.08
428.166	-8.92
428.293	-6.92
428.419	25.08
428.546	9.08
428.673	-1.92
428.799	-3.92
428.926	-1.92
429.053	6.08
429.179	3.08
429.306	22.08
429.433	30.08
429.559	34.08
429.686	-2.92
429.812	-2.92
429.939	-3.92
430.066	-5.92
430.192	8.08
430.319	11.08
430.445	-9.92
430.572	4.08
430.699	3.08
430.825	-4.92
430.952	6.08
431.078	7.08
431.205	9.08
431.331	9.08
431.458	7.08
431.584	6.08
431.711	4.08
431.837	1.08
431.964	-0.92
432.09	-1.92
432.217	1.08
432.343	-1.92
432.47	32.08
432.596	4.08
432.723	4.08
432.849	12.08
432.976	25.08
433.102	13.08
433.229	8.08
433.355	38.08
433.482	80.08
433.608	154.08
433.735	147.08
433.861	124.08
433.987	142.08
434.114	215.08
434.24	188.08
434.367	53.08
434.493	-1.92
434.62	25.08
434.746	22.08
434.872	11.08
434.999	38.08
435.125	10.08
435.252	-7.92
435.378	20.08
435.504	7.08
435.631	20.08
435.757	-0.92
435.883	1.08
436.01	11.08
436.136	-14.92
436.262	9.08
436.389	7.08
436.515	5.08
436.641	6.08
436.768	-3.92
436.894	2.08
437.02	29.08
437.147	20.08
437.273	8.08
437.399	1.08
437.526	-1.92
437.652	-13.92
437.778	0.08
437.904	-10.92
438.031	5.08
438.157	13.08
438.283	7.08
438.409	0.08
438.536	4.08
438.662	9.08
438.788	14.08
438.914	12.08
439.041	23.08
439.167	30.08
439.293	12.08
439.419	12.08
439.546	22.08
439.672	-3.92
439.798	19.08
439.924	25.08
440.05	28.08
440.177	24.08
440.303	14.08
440.429	2.08
440.555	19.08
440.681	9.08
440.807	24.08
440.934	14.08
441.06	18.08
441.186	7.08
441.312	5.08
441.438	20.08
441.564	24.08
441.69	18.08
441.816	11.08
441.943	-1.92
442.069	6.08
442.195	6.08
442.321	27.08
442.447	1.08
442.573	8.08
442.699	2.08
442.825	-14.92
442.951	22.08
443.077	14.08
443.203	8.08
443.33	11.08
443.456	7.08
443.582	15.08
443.708	1.08
443.834	10.08
443.96	13.08
444.086	11.08
444.212	24.08
444.338	20.08
444.464	20.08
444.59	40.08
444.716	11.08
444.842	9.08
444.968	-1.92
445.094	16.08
445.22	-7.92
445.346	-4.92
445.472	4.08
445.598	8.08
445.724	-2.92
445.85	1.08
445.976	11.08
446.102	19.08
446.228	9.08
446.354	15.08
446.48	11.08
446.605	7.08
446.731	18.08
446.857	9.08
446.983	9.08
447.109	-4.92
447.235	12.08
447.361	12.08
447.487	10.08
447.613	19.08
447.739	-2.92
447.865	-12.92
447.99	7.08
448.116	8.08
448.242	18.08
448.368	-7.92
448.494	0.08
448.62	24.08
448.746	0.08
448.872	5.08
448.997	-14.92
449.123	-0.92
449.249	28.08
449.375	33.08
449.501	-0.92
449.627	-0.92
449.752	31.08
449.878	0.08
450.004	-5.92
450.13	12.08
450.256	8.08
450.381	4.08
450.507	14.08
450.633	-15.92
450.759	12.08
450.884	-9.92
451.01	7.08
451.136	-7.92
451.262	7.08
451.388	-0.92
451.513	1.08
451.639	13.08
451.765	10.08
451.89	13.08
452.016	-4.92
452.142	-5.92
452.268	23.08
452.393	8.08
452.519	-12.92
452.645	8.08
452.771	10.08
452.896	19.08
453.022	16.08
453.148	23.08
453.273	44.08
453.399	21.08
453.525	-1.92
453.65	-4.92
453.776	16.08
453.902	8.08
454.027	4.08
454.153	12.08
454.279	5.08
454.404	-1.92
454.53	12.08
454.656	36.08
454.781	13.08
454.907	-8.92
455.032	12.08
455.158	29.08
455.284	8.08
455.409	-0.92
455.535	25.08
455.66	35.08
455.786	6.08
455.912	-1.92
456.037	8.08
456.163	17.08
456.288	8.08
456.414	-12.92
456.539	-11.92
456.665	15.08
456.791	29.08
456.916	-1.92
457.042	9.08
457.167	-14.92
457.293	12.08
457.418	6.08
457.544	5.08
457.669	15.08
457.795	2.08
457.92	4.08
458.046	1.08
458.171	13.08
458.297	7.08
458.422	-4.92
458.548	10.08
458.673	17.08
458.799	0.08
458.924	-16.92
459.05	3.08
459.175	11.08
459.301	4.08
459.426	10.08
459.552	20.08
459.677	20.08
459.803	13.08
459.928	5.08
460.053	-1.92
460.179	7.08
460.304	16.08
460.43	-6.92
460.555	17.08
460.681	6.08
460.806	15.08
460.931	14.08
461.057	-0.92
461.182	20.08
461.308	19.08
461.433	23.08
461.558	-4.92
461.684	28.08
461.809	21.08
461.934	16.08
462.06	6.08
462.185	-6.92
462.311	6.08
462.436	10.08
462.561	2.08
462.687	15.08
462.812	20.08
462.937	4.08
463.063	-1.92
463.188	-15.92
463.313	9.08
463.439	7.08
463.564	11.08
463.689	6.08
463.814	12.08
463.94	-4.92
464.065	-0.92
464.19	8.08
464.316	-9.92
464.441	-8.92
464.566	3.08
464.692	-0.92
464.817	2.08
464.942	10.08
465.067	-0.92
465.193	-10.92
465.318	-13.92
465.443	-10.92
465.568	-11.92
465.694	5.08
465.819	16.08
465.944	3.08
466.069	9.08
466.194	29.08
466.32	23.08
466.445	26.08
466.57	17.08
466.695	0.08
466.82	1.08
466.946	10.08
467.071	-0.92
467.196	-11.92
467.321	0.08
467.446	3.08
467.572	-21.92
467.697	-22.92
467.822	15.08
467.947	11.08
468.072	-4.92
468.197	-13.92
468.323	0.08
468.448	-3.92
468.573	-0.92
468.698	8.08
468.823	-0.92
468.948	-0.92
469.073	20.08
469.198	9.08
469.324	25.08
469.449	7.08
469.574	24.08
469.699	5.08
469.824	16.08
469.949	10.08
470.074	21.08
470.199	41.08
470.324	28.08
470.449	28.08
470.574	7.08
470.7	16.08
470.825	20.08
470.95	20.08
471.075	-5.92
471.2	23.08
471.325	15.08
471.45	-5.92
471.575	-9.92
471.7	11.08
471.825	-3.92
471.95	0.08
472.075	-5.92
472.2	22.08
472.325	1.08
472.45	8.08
472.575	-12.92
472.7	8.08
472.825	25.08
472.95	30.08
473.075	16.08
473.2	3.08
473.325	-0.92
473.45	19.08
473.575	6.08
473.7	9.08
473.825	27.08
473.95	35.08
474.075	7.08
474.2	1.08
474.325	-1.92
474.45	15.08
474.574	12.08
474.699	24.08
474.824	11.08
474.949	-12.92
475.074	-8.92
475.199	12.08
475.324	17.08
475.449	24.08
475.574	6.08
475.699	17.08
475.824	13.08
475.949	23.08
476.073	2.08
476.198	20.08
476.323	12.08
476.448	-5.92
476.573	-14.92
476.698	8.08
476.823	27.08
476.947	8.08
477.072	1.08
477.197	2.08
477.322	-7.92
477.447	2.08
477.572	21.08
477.697	2.08
477.821	-1.92
477.946	16.08
478.071	16.08
478.196	18.08
478.321	17.08
478.445	10.08
478.57	-9.92
478.695	3.08
478.82	13.08
478.945	28.08
479.069	-8.92
479.194	5.08
479.319	14.08
479.444	18.08
479.569	4.08
479.693	9.08
479.818	6.08
479.943	13.08
480.068	19.08
480.192	26.08
480.317	16.08
480.442	8.08
480.567	11.08
480.691	17.08
480.816	2.08
480.941	8.08
481.066	26.08
481.19	25.08
481.315	23.08
481.44	5.08
481.564	8.08
481.689	17.08
481.814	7.08
481.938	25.08
482.063	15.08
482.188	35.08
482.313	37.08
482.437	16.08
482.562	21.08
482.687	37.08
482.811	40.08
482.936	24.08
483.061	27.08
483.185	17.08
483.31	19.08
483.435	24.08
483.559	15.08
483.684	10.08
483.808	22.08
483.933	5.08
484.058	16.08
484.182	12.08
484.307	20.08
484.432	40.08
484.556	37.08
484.681	23.08
484.805	2.08
484.93	32.08
485.055	34.08
485.179	56.08
485.304	108.08
485.428	362.08
485.553	1302.08
485.678	1839.08
485.802	1714.08
485.927	1820.08
486.051	2803.08
486.176	1693.08
486.3	484.08
486.425	139.08
486.549	83.08
486.674	58.08
486.799	34.08
486.923	18.08
487.048	24.08
487.172	14.08
487.297	13.08
487.421	21.08
487.546	12.08
487.67	20.08
487.795	18.08
487.919	7.08
488.044	32.08
488.168	23.08
488.293	17.08
488.417	9.08
488.542	10.08
488.666	20.08
488.791	25.08
488.915	14.08
489.04	13.08
489.164	20.08
489.289	38.08
489.413	-1.92
489.538	5.08
489.662	27.08
489.786	2.08
489.911	16.08
490.035	0.08
490.16	1.08
490.284	3.08
490.409	2.08
490.533	-0.92
490.658	39.08
490.782	16.08
490.906	8.08
491.031	18.08
491.155	3.08
491.28	26.08
491.404	18.08
491.528	23.08
491.653	14.08
491.777	9.08
491.902	-2.92
492.026	18.08
492.15	28.08
492.275	30.08
492.399	16.08
492.524	4.08
492.648	16.08
492.772	30.08
492.897	22.08
493.021	15.08
493.145	22.08
493.27	20.08
493.394	4.08
493.518	7.08
493.643	6.08
493.767	21.08
493.891	10.08
494.016	10.08
494.14	-1.92
494.264	25.08
494.389	14.08
494.513	0.08
494.637	-16.92
494.762	35.08
494.886	21.08
495.01	39.08
495.134	16.08
495.259	38.08
495.383	13.08
495.507	14.08
495.632	33.08
495.756	34.08
495.88	27.08
496.004	18.08
496.129	1.08
496.253	6.08
496.377	26.08
496.501	28.08
496.626	3.08
496.75	22.08
496.874	17.08
496.998	0.08
497.123	15.08
497.247	-3.92
497.371	-8.92
497.495	8.08
497.62	10.08
497.744	16.08
497.868	15.08
497.992	6.08
498.116	19.08
498.241	22.08
498.365	-1.92
498.489	0.08
498.613	28.08
498.737	16.08
498.862	14.08
498.986	6.08
499.11	14.08
499.234	19.08
499.358	-11.92
499.482	14.08
499.607	15.08
499.731	26.08
499.855	19.08
499.979	1.08
500.103	28.08
500.227	19.08
500.351	-6.92
500.476	4.08
500.6	15.08
500.724	20.08
500.848	-10.92
500.972	23.08
501.096	19.08
501.22	22.08
501.344	3.08
501.469	11.08
501.593	27.08
501.717	16.08
501.841	23.08
501.965	2.08
502.089	10.08
502.213	20.08
502.337	-0.92
502.461	-7.92
502.585	10.08
502.709	4.08
502.834	9.08
502.958	12.08
503.082	4.08
503.206	23.08
503.33	6.08
503.454	16.08
503.578	18.08
503.702	26.08
503.826	23.08
503.95	2.08
504.074	15.08
504.198	22.08
504.322	-2.92
504.446	-12.92
504.57	31.08
504.694	4.08
504.818	2.08
504.942	28.08
505.066	12.08
505.19	18.08
505.314	12.08
505.438	10.08
505.562	4.08
505.686	20.08
505.81	5.08
505.934	17.08
506.058	21.08
506.182	2.08
506.306	25.08
506.43	15.08
506.554	14.08
506.678	7.08
506.802	15.08
506.926	25.08
507.05	14.08
507.174	8.08
507.298	21.08
507.422	4.08
507.546	20.08
507.67	29.08
507.794	-13.92
507.918	10.08
508.042	7.08
508.165	22.08
508.289	4.08
508.413	3.08
508.537	11.08
508.661	13.08
508.785	7.08
508.909	15.08
509.033	7.08
509.157	8.08
509.281	12.08
509.405	-4.92
509.528	34.08
509.652	42.08
509.776	20.08
509.9	32.08
510.024	14.08
510.148	12.08
510.272	3.08
510.396	24.08
510.519	7.08
510.643	24.08
510.767	17.08
510.891	9.08
511.015	-1.92
511.139	0.08
511.263	15.08
511.386	0.08
511.51	0.08
511.634	2.08
511.758	2.08
511.882	-7.92
512.006	14.08
512.129	17.08
512.253	43.08
512.377	25.08
512.501	36.08
512.625	10.08
512.748	-5.92
512.872	9.08
512.996	2.08
513.12	3.08
513.244	4.08
513.367	10.08
513.491	14.08
513.615	24.08
513.739	8.08
513.862	8.08
513.986	-17.92
514.11	21.08
514.234	-6.92
514.358	32.08
514.481	26.08
514.605	12.08
514.729	15.08
514.853	20.08
514.976	-3.92
515.1	14.08
515.224	16.08
515.348	1.08
515.471	9.08
515.595	11.08
515.719	0.08
515.842	23.08
515.966	15.08
516.09	32.08
516.214	23.08
516.337	35.08
516.461	27.08
516.585	16.08
516.708	27.08
516.832	37.08
516.956	16.08
517.08	23.08
517.203	3.08
517.327	17.08
517.451	35.08
517.574	30.08
517.698	13.08
517.822	17.08
517.945	30.08
518.069	36.08
518.193	55.08
518.316	32.08
518.44	16.08
518.564	9.08
518.687	9.08
518.811	27.08
518.935	50.08
519.058	25.08
519.182	31.08
519.306	13.08
519.429	28.08
519.553	52.08
519.676	46.08
519.8	24.08
519.924	7.08
520.047	1.08
520.171	12.08
520.294	23.08
520.418	19.08
520.542	-2.92
520.665	3.08
520.789	20.08
520.913	-13.92
521.036	-6.92
521.16	6.08
521.283	13.08
521.407	6.08
521.53	14.08
521.654	-3.92
521.778	14.08
521.901	16.08
522.025	27.08
522.148	-0.92
522.272	8.08
522.395	-1.92
522.519	11.08
522.643	8.08
522.766	-13.92
522.89	18.08
523.013	18.08
523.137	-3.92
523.26	0.08
523.384	17.08
523.507	22.08
523.631	3.08
523.754	11.08
523.878	10.08
524.002	21.08
524.125	17.08
524.249	-3.92
524.372	32.08
524.496	12.08
524.619	25.08
524.743	10.08
524.866	2.08
524.99	10.08
525.113	-1.92
525.237	22.08
525.36	10.08
525.484	14.08
525.607	10.08
525.731	-8.92
525.854	21.08
525.978	20.08
526.101	10.08
526.224	10.08
526.348	2.08
526.471	3.08
526.595	4.08
526.718	8.08
526.842	-1.92
526.965	26.08
527.089	-6.92
527.212	10.08
527.336	10.08
527.459	27.08
527.582	2.08
527.706	33.08
527.829	19.08
527.953	11.08
528.076	-12.92
528.2	-8.92
528.323	30.08
528.446	37.08
528.57	18.08
528.693	27.08
528.817	17.08
528.94	22.08
529.064	36.08
529.187	0.08
529.31	23.08
529.434	14.08
529.557	18.08
529.68	-0.92
529.804	17.08
529.927	33.08
530.051	22.08
530.174	-9.92
530.297	0.08
530.421	13.08
530.544	10.08
530.668	0.08
530.791	-1.92
530.914	6.08
531.038	-1.92
531.161	14.08
531.284	20.08
531.408	29.08
531.531	7.08
531.654	4.08
531.778	12.08
531.901	11.08
532.024	12.08
532.148	7.08
532.271	13.08
532.394	12.08
532.518	33.08
532.641	14.08
532.764	21.08
532.888	28.08
533.011	-3.92
533.134	-4.92
533.258	16.08
533.381	-1.92
533.504	15.08
533.628	-1.92
533.751	24.08
533.874	19.08
533.997	11.08
534.121	3.08
534.244	17.08
534.367	15.08
534.491	17.08
534.614	3.08
534.737	17.08
534.86	2.08
534.984	12.08
535.107	13.08
535.23	-0.92
535.354	1.08
535.477	-8.92
535.6	9.08
535.723	19.08
535.847	7.08
535.97	-0.92
536.093	13.08
536.216	3.08
536.34	27.08
536.463	15.08
536.586	17.08
536.709	21.08
536.833	36.08
536.956	6.08
537.079	7.08
537.202	26.08
537.325	12.08
537.449	-8.92
537.572	18.08
537.695	3.08
537.818	7.08
537.941	13.08
538.065	1.08
538.188	1.08
538.311	18.08
538.434	15.08
538.558	12.08
538.681	-4.92
538.804	24.08
538.927	22.08
539.05	0.08
539.173	-1.92
539.297	2.08
539.42	4.08
539.543	8.08
539.666	19.08
539.789	15.08
539.913	-4.92
540.036	2.08
540.159	15.08
540.282	-12.92
540.405	-7.92
540.528	10.08
540.651	23.08
540.775	-11.92
540.898	6.08
541.021	8.08
541.144	22.08
541.267	12.08
541.39	10.08
541.513	10.08
541.637	4.08
541.76	12.08
541.883	1.08
542.006	14.08
542.129	32.08
542.252	2.08
542.375	6.08
542.498	2.08
542.622	9.08
542.745	-6.92
542.868	8.08
542.991	16.08
543.114	28.08
543.237	31.08
543.36	35.08
543.483	15.08
543.606	21.08
543.73	21.08
543.853	8.08
543.976	8.08
544.099	17.08
544.222	17.08
544.345	0.08
544.468	9.08
544.591	12.08
544.714	5.08
544.837	32.08
544.96	17.08
545.083	20.08
545.206	15.08
545.329	24.08
545.453	-5.92
545.576	-5.92
545.699	0.08
545.822	3.08
545.945	10.08
546.068	20.08
546.191	18.08
546.314	5.08
546.437	21.08
546.56	20.08
546.683	3.08
546.806	13.08
546.929	5.08
547.052	-5.92
547.175	-7.92
547.298	24.08
547.421	0.08
547.544	-3.92
547.667	20.08
547.79	1.08
547.913	-4.92
548.036	-13.92
548.159	6.08
548.282	-4.92
548.405	-8.92
548.528	3.08
548.651	-1.92
548.774	5.08
548.897	5.08
549.02	25.08
549.143	37.08
549.266	13.08
549.389	21.08
549.512	9.08
549.635	14.08
549.758	23.08
549.881	9.08
550.004	2.08
550.127	-4.92
550.25	-5.92
550.373	-8.92
550.496	30.08
550.619	-8.92
550.742	13.08
550.865	1.08
550.988	18.08
551.111	23.08
551.234	-5.92
551.356	-6.92
551.479	2.08
551.602	8.08
551.725	6.08
551.848	30.08
551.971	28.08
552.094	12.08
552.217	2.08
552.34	2.08
552.463	-5.92
552.586	11.08
552.709	12.08
552.832	0.08
552.955	7.08
553.077	18.08
553.2	12.08
553.323	-34.92
553.446	-7.92
553.569	2.08
553.692	6.08
553.815	13.08
553.938	20.08
554.061	12.08
554.184	0.08
554.306	15.08
554.429	19.08
554.552	15.08
554.675	2.08
554.798	-5.92
554.921	5.08
555.044	9.08
555.167	16.08
555.29	-1.92
555.412	-3.92
555.535	-15.92
555.658	5.08
555.781	8.08
555.904	0.08
556.027	18.08
556.15	16.08
556.272	-8.92
556.395	11.08
556.518	1.08
556.641	-1.92
556.764	24.08
556.887	14.08
557.01	9.08
557.132	-13.92
557.255	12.08
557.378	40.08
557.501	5.08
557.624	23.08
557.747	5.08
557.869	8.08
557.992	20.08
558.115	13.08
558.238	-3.92
558.361	26.08
558.483	23.08
558.606	26.08
558.729	7.08
558.852	30.08
558.975	31.08
559.098	12.08
559.22	4.08
559.343	13.08
559.466	7.08
559.589	7.08
559.712	29.08
559.834	18.08
559.957	8.08
560.08	15.08
560.203	20.08
560.325	22.08
560.448	18.08
560.571	2.08
560.694	3.08
560.817	23.08
560.939	-0.92
561.062	4.08
561.185	8.08
561.308	10.08
561.43	1.08
561.553	-13.92
561.676	8.08
561.799	23.08
561.921	-4.92
562.044	-8.92
562.167	-2.92
562.29	27.08
562.413	18.08
562.535	9.08
562.658	-10.92
562.781	-2.92
562.903	11.08
563.026	14.08
563.149	28.08
563.272	14.08
563.394	0.08
563.517	-1.92
563.64	6.08
563.763	2.08
563.885	13.08
564.008	33.08
564.131	14.08
564.254	0.08
564.376	12.08
564.499	-3.92
564.622	4.08
564.744	27.08
564.867	1.08
564.99	3.08
565.113	11.08
565.235	19.08
565.358	19.08
565.481	0.08
565.603	7.08
565.726	5.08
565.849	17.08
565.971	15.08
566.094	-13.92
566.217	6.08
566.34	15.08
566.462	8.08
566.585	9.08
566.708	19.08
566.83	-1.92
566.953	21.08
567.076	9.08
567.198	11.08
567.321	-6.92
567.444	16.08
567.566	8.08
567.689	5.08
567.812	-2.92
567.934	13.08
568.057	9.08
568.18	12.08
568.302	-2.92
568.425	-3.92
568.548	10.08
568.67	22.08
568.793	11.08
568.916	26.08
569.038	7.08
569.161	5.08
569.283	18.08
569.406	6.08
569.529	-11.92
569.651	-9.92
569.774	11.08
569.897	-5.92
570.019	21.08
570.142	6.08
570.265	-3.92
570.387	16.08
570.51	17.08
570.632	15.08
570.755	10.08
570.878	14.08
571	23.08
571.123	11.08
571.246	31.08
571.368	7.08
571.491	-0.92
571.613	-14.92
571.736	-16.92
571.859	5.08
571.981	6.08
572.104	-9.92
572.226	13.08
572.349	8.08
572.472	17.08
572.594	23.08
572.717	7.08
572.839	10.08
572.962	26.08
573.085	6.08
573.207	16.08
573.33	12.08
573.452	23.08
573.575	17.08
573.697	2.08
573.82	8.08
573.943	4.08
574.065	7.08
574.188	18.08
574.31	23.08
574.433	-2.92
574.555	12.08
574.678	4.08
574.801	11.08
574.923	-3.92
575.046	4.08
575.168	14.08
575.291	20.08
575.413	7.08
575.536	-1.92
575.659	-1.92
575.781	-4.92
575.904	-9.92
576.026	1.08
576.149	-1.92
576.271	16.08
576.394	3.08
576.516	-1.92
576.639	0.08
576.761	7.08
576.884	2.08
577.007	11.08
577.129	14.08
577.252	-0.92
577.374	31.08
577.497	14.08
577.619	-0.92
577.742	3.08
577.864	19.08
577.987	7.08
578.109	26.08
578.232	5.08
578.354	17.08
578.477	6.08
578.599	0.08
578.722	7.08
578.844	2.08
578.967	25.08
579.089	-9.92
579.212	-9.92
579.334	14.08
579.457	18.08
579.579	9.08
579.702	-5.92
579.824	6.08
579.947	18.08
580.069	-3.92
580.192	-11.92
580.314	15.08
580.437	11.08
580.559	30.08
580.682	26.08
580.804	29.08
580.927	16.08
581.049	32.08
581.172	27.08
581.294	31.08
581.417	20.08
581.539	6.08
581.662	18.08
581.784	14.08
581.907	30.08
582.029	17.08
582.152	1.08
582.274	15.08
582.396	15.08
582.519	18.08
582.641	-10.92
582.764	-0.92
582.886	26.08
583.009	-1.92
583.131	0.08
583.254	-3.92
583.376	41.08
583.499	13.08
583.621	18.08
583.743	41.08
583.866	24.08
583.988	18.08
584.111	9.08
584.233	30.08
584.356	19.08
584.478	12.08
584.601	-8.92
584.723	-1.92
584.845	37.08
584.968	1.08
585.09	-1.92
585.213	-0.92
585.335	2.08
585.458	-4.92
585.58	5.08
585.702	4.08
585.825	22.08
585.947	-1.92
586.07	-1.92
586.192	2.08
586.315	17.08
586.437	16.08
586.559	15.08
586.682	0.08
586.804	15.08
586.927	1.08
587.049	-0.92
587.171	22.08
587.294	16.08
587.416	33.08
587.539	-0.92
587.661	2.08
587.783	15.08
587.906	3.08
588.028	5.08
588.151	7.08
588.273	15.08
588.395	7.08
588.518	22.08
588.64	9.08
588.763	24.08
588.885	13.08
589.007	21.08
589.13	-9.92
589.252	-8.92
589.375	6.08
589.497	14.08
589.619	15.08
589.742	17.08
589.864	26.08
589.986	-5.92
590.109	-4.92
590.231	3.08
590.354	20.08
590.476	-0.92
590.598	-6.92
590.721	1.08
590.843	24.08
590.965	29.08
591.088	25.08
591.21	0.08
591.332	18.08
591.455	-15.92
591.577	0.08
591.7	-3.92
591.822	-4.92
591.944	12.08
592.067	17.08
592.189	-7.92
592.311	-1.92
592.434	2.08
592.556	21.08
592.678	14.08
592.801	-0.92
592.923	4.08
593.045	14.08
593.168	21.08
593.29	-0.92
593.412	25.08
593.535	-0.92
593.657	9.08
593.779	7.08
593.902	26.08
594.024	13.08
594.146	15.08
594.269	27.08
594.391	-5.92
594.513	0.08
594.636	13.08
594.758	5.08
594.88	29.08
595.003	23.08
595.125	3.08
595.247	3.08
595.37	4.08
595.492	3.08
595.614	15.08
595.737	4.08
595.859	7.08
595.981	11.08
596.104	7.08
596.226	6.08
596.348	-0.92
596.471	3.08
596.593	15.08
596.715	-12.92
596.838	14.08
596.96	-3.92
597.082	-1.92
597.204	10.08
597.327	19.08
597.449	-8.92
597.571	14.08
597.694	17.08
597.816	12.08
597.938	5.08
598.061	-15.92
598.183	12.08
598.305	14.08
598.427	11.08
598.55	3.08
598.672	15.08
598.794	6.08
598.917	2.08
599.039	7.08
599.161	12.08
599.283	-0.92
599.406	22.08
599.528	30.08
599.65	31.08
599.773	28.08
599.895	41.08
600.017	33.08
600.139	4.08
600.262	0.08
600.384	5.08
600.506	18.08
600.628	14.08
600.751	18.08
600.873	14.08
600.995	1.08
601.118	24.08
601.24	6.08
601.362	10.08
601.484	25.08
601.607	23.08
601.729	16.08
601.851	12.08
601.973	2.08
602.096	15.08
602.218	19.08
602.34	17.08
602.462	24.08
602.585	11.08
602.707	-3.92
602.829	10.08
602.951	4.08
603.074	-11.92
603.196	16.08
603.318	-6.92
603.44	14.08
603.563	22.08
603.685	5.08
603.807	8.08
603.929	13.08
604.052	10.08
604.174	14.08
604.296	23.08
604.418	17.08
604.541	31.08
604.663	5.08
604.785	10.08
604.907	15.08
605.03	-0.92
605.152	36.08
605.274	-2.92
605.396	2.08
605.519	10.08
605.641	11.08
605.763	9.08
605.885	10.08
606.008	19.08
606.13	18.08
606.252	10.08
606.374	-7.92
606.496	-3.92
606.619	9.08
606.741	2.08
606.863	26.08
606.985	22.08
607.108	28.08
607.23	24.08
607.352	1.08
607.474	12.08
607.596	22.08
607.719	9.08
607.841	25.08
607.963	16.08
608.085	-6.92
608.207	22.08
608.33	19.08
608.452	-11.92
608.574	4.08
608.696	20.08
608.819	-1.92
608.941	12.08
609.063	16.08
609.185	8.08
609.307	11.08
609.43	25.08
609.552	19.08
609.674	-10.92
609.796	7.08
609.918	6.08
610.041	9.08
610.163	24.08
610.285	7.08
610.407	19.08
610.529	-0.92
610.652	11.08
610.774	7.08
610.896	-9.92
611.018	4.08
611.14	-15.92
611.263	-13.92
611.385	10.08
611.507	16.08
611.629	3.08
611.751	6.08
611.873	42.08
611.996	17.08
612.118	17.08
612.24	-0.92
612.362	17.08
612.484	28.08
612.607	7.08
612.729	24.08
612.851	0.08
612.973	-9.92
613.095	0.08
613.218	7.08
613.34	21.08
613.462	12.08
613.584	16.08
613.706	12.08
613.828	13.08
613.951	10.08
614.073	-1.92
614.195	-5.92
614.317	20.08
614.439	14.08
614.561	3.08
614.684	26.08
614.806	9.08
614.928	14.08
615.05	13.08
615.172	13.08
615.294	19.08
615.417	9.08
615.539	-3.92
615.661	15.08
615.783	42.08
615.905	27.08
616.027	66.08
616.15	110.08
616.272	95.08
616.394	73.08
616.516	28.08
616.638	21.08
616.76	10.08
616.883	22.08
617.005	14.08
617.127	-3.92
617.249	7.08
617.371	12.08
617.493	9.08
617.615	34.08
617.738	16.08
617.86	13.08
617.982	19.08
618.104	2.08
618.226	-8.92
618.348	3.08
618.471	17.08
618.593	5.08
618.715	-15.92
618.837	10.08
618.959	0.08
619.081	17.08
619.203	8.08
619.326	10.08
619.448	9.08
619.57	11.08
619.692	3.08
619.814	20.08
619.936	5.08
620.058	31.08
620.181	7.08
620.303	4.08
620.425	8.08
620.547	5.08
620.669	-4.92
620.791	-11.92
620.913	-13.92
621.036	-4.92
621.158	3.08
621.28	-1.92
621.402	1.08
621.524	-1.92
621.646	7.08
621.768	-6.92
621.891	-16.92
622.013	8.08
622.135	2.08
622.257	1.08
622.379	-6.92
622.501	3.08
622.623	-3.92
622.745	-4.92
622.868	-3.92
622.99	18.08
623.112	15.08
623.234	-10.92
623.356	5.08
623.478	2.08
623.6	13.08
623.722	5.08
623.845	20.08
623.967	4.08
624.089	6.08
624.211	-5.92
624.333	24.08
624.455	18.08
624.577	11.08
624.699	15.08
624.822	9.08
624.944	-1.92
625.066	10.08
625.188	-3.92
625.31	9.08
625.432	8.08
625.554	-1.92
625.676	37.08
625.799	10.08
625.921	7.08
626.043	30.08
626.165	1.08
626.287	-12.92
626.409	0.08
626.531	13.08
626.653	13.08
626.775	6.08
626.898	-8.92
627.02	-9.92
627.142	18.08
627.264	13.08
627.386	7.08
627.508	22.08
627.63	3.08
627.752	20.08
627.874	15.08
627.997	22.08
628.119	12.08
628.241	14.08
628.363	18.08
628.485	22.08
628.607	11.08
628.729	2.08
628.851	17.08
628.973	7.08
629.096	9.08
629.218	18.08
629.34	20.08
629.462	-8.92
629.584	2.08
629.706	11.08
629.828	9.08
629.95	12.08
630.072	-0.92
630.195	-0.92
630.317	14.08
630.439	8.08
630.561	6.08
630.683	-8.92
630.805	21.08
630.927	11.08
631.049	-3.92
631.171	17.08
631.293	16.08
631.416	21.08
631.538	15.08
631.66	1.08
631.782	30.08
631.904	41.08
632.026	16.08
632.148	3.08
632.27	1.08
632.392	31.08
632.514	10.08
632.637	8.08
632.759	18.08
632.881	-4.92
633.003	-6.92
633.125	3.08
633.247	6.08
633.369	-6.92
633.491	5.08
633.613	20.08
633.735	14.08
633.858	18.08
633.98	-2.92
634.102	-1.92
634.224	0.08
634.346	-0.92
634.468	-0.92
634.59	12.08
634.712	11.08
634.834	7.08
634.956	10.08
635.078	8.08
635.201	4.08
635.323	9.08
635.445	4.08
635.567	-2.92
635.689	28.08
635.811	8.08
635.933	7.08
636.055	5.08
636.177	-5.92
636.299	17.08
636.421	-0.92
636.544	-8.92
636.666	11.08
636.788	7.08
636.91	15.08
637.032	28.08
637.154	15.08
637.276	32.08
637.398	15.08
637.52	14.08
637.642	15.08
637.764	7.08
637.887	-1.92
638.009	2.08
638.131	6.08
638.253	3.08
638.375	0.08
638.497	18.08
638.619	8.08
638.741	-5.92
638.863	-11.92
638.985	0.08
639.107	-0.92
639.23	7.08
639.352	10.08
639.474	10.08
639.596	6.08
639.718	17.08
639.84	-1.92
639.962	10.08
640.084	19.08
640.206	7.08
640.328	-7.92
640.45	12.08
640.573	11.08
640.695	12.08
640.817	11.08
640.939	14.08
641.061	-13.92
641.183	-1.92
641.305	7.08
641.427	10.08
641.549	17.08
641.671	9.08
641.793	14.08
641.915	15.08
642.038	7.08
642.16	12.08
642.282	17.08
642.404	2.08
642.526	6.08
642.648	13.08
642.77	10.08
642.892	10.08
643.014	14.08
643.136	-6.92
643.258	7.08
643.381	16.08
643.503	13.08
643.625	-3.92
643.747	-13.92
643.869	8.08
643.991	-1.92
644.113	19.08
644.235	2.08
644.357	5.08
644.479	11.08
644.601	-4.92
644.723	-11.92
644.846	4.08
644.968	9.08
645.09	12.08
645.212	-1.92
645.334	17.08
645.456	22.08
645.578	9.08
645.7	2.08
645.822	4.08
645.944	3.08
646.066	12.08
646.188	11.08
646.311	40.08
646.433	7.08
646.555	33.08
646.677	37.08
646.799	36.08
646.921	12.08
647.043	15.08
647.165	8.08
647.287	6.08
647.409	15.08
647.531	18.08
647.654	-7.92
647.776	33.08
647.898	16.08
648.02	10.08
648.142	-1.92
648.264	-4.92
648.386	13.08
648.508	-7.92
648.63	6.08
648.752	15.08
648.874	7.08
648.997	13.08
649.119	16.08
649.241	17.08
649.363	31.08
649.485	29.08
649.607	-6.92
649.729	-2.92
649.851	0.08
649.973	16.08
650.095	18.08
650.217	-3.92
650.34	4.08
650.462	6.08
650.584	-4.92
650.706	26.08
650.828	9.08
650.95	-5.92
651.072	7.08
651.194	8.08
651.316	-14.92
651.438	3.08
651.56	13.08
651.683	1.08
651.805	-8.92
651.927	7.08
652.049	9.08
652.171	12.08
652.293	6.08
652.415	4.08
652.537	21.08
652.659	7.08
652.781	3.08
652.903	16.08
653.026	14.08
653.148	12.08
653.27	0.08
653.392	2.08
653.514	24.08
653.636	16.08
653.758	12.08
653.88	4.08
654.002	10.08
654.124	3.08
654.247	23.08
654.369	9.08
654.491	-12.92
654.613	2.08
654.735	12.08
654.857	18.08
654.979	10.08
655.101	9.08
655.223	62.08
655.345	21.08
655.468	36.08
655.59	25.08
655.712	34.08
655.834	36.08
655.956	28.08
656.078	16.08
656.2	26.08
656.322	23.08
656.444	8.08
656.566	41.08
656.689	47.08
656.811	63.08
656.933	94.08
657.055	94.08
657.177	146.08
657.299	255.08
657.421	520.08
657.543	1951.08
657.665	12743.08
657.787	15199.08
657.91	15368.08
658.032	15661.08
658.154	4719.08
658.276	4555.08
658.398	1355.08
658.52	1114.08
658.642	508.08
658.764	636.08
658.886	296.08
659.009	422.08
659.131	222.08
659.253	316.08
659.375	143.08
659.497	236.08
659.619	142.08
659.741	196.08
659.863	102.08
659.985	169.08
660.108	112.08
660.23	136.08
660.352	92.08
660.474	165.08
660.596	97.08
660.718	137.08
660.84	69.08
660.962	119.08
661.084	58.08
661.207	106.08
661.329	60.08
661.451	85.08
661.573	52.08
661.695	112.08
661.817	66.08
661.939	108.08
662.061	63.08
662.184	82.08
662.306	38.08
662.428	75.08
662.55	59.08
662.672	85.08
662.794	49.08
662.916	64.08
663.038	32.08
663.161	79.08
663.283	51.08
663.405	55.08
663.527	22.08
663.649	78.08
663.771	33.08
663.893	55.08
664.015	34.08
664.138	37.08
664.26	40.08
664.382	70.08
664.504	11.08
664.626	32.08
664.748	23.08
664.87	36.08
664.992	40.08
665.115	72.08
665.237	36.08
665.359	24.08
665.481	35.08
665.603	57.08
665.725	23.08
665.847	13.08
665.97	23.08
666.092	41.08
666.214	30.08
666.336	12.08
666.458	28.08
666.58	41.08
666.702	16.08
666.825	30.08
666.947	-8.92
667.069	32.08
667.191	18.08
667.313	51.08
667.435	1.08
667.557	22.08
667.68	32.08
667.802	27.08
667.924	18.08
668.046	40.08
668.168	22.08
668.29	27.08
668.412	5.08
668.535	27.08
668.657	16.08
668.779	37.08
668.901	21.08
669.023	46.08
669.145	25.08
669.267	42.08
669.39	23.08
669.512	21.08
669.634	18.08
669.756	28.08
669.878	26.08
670	37.08
670.123	-3.92
670.245	30.08
670.367	12.08
670.489	39.08
670.611	8.08
670.733	9.08
670.856	11.08
670.978	26.08
671.1	26.08
671.222	41.08
671.344	9.08
671.466	29.08
671.589	2.08
671.711	26.08
671.833	-0.92
671.955	7.08
672.077	-4.92
672.199	46.08
672.322	31.08
672.444	9.08
672.566	6.08
672.688	14.08
672.81	25.08
672.932	18.08
673.055	6.08
673.177	8.08
673.299	7.08
673.421	12.08
673.543	7.08
673.665	25.08
673.788	16.08
673.91	10.08
674.032	-0.92
674.154	4.08
674.276	13.08
674.399	11.08
674.521	15.08
674.643	35.08
674.765	8.08
674.887	22.08
675.009	10.08
675.132	19.08
675.254	3.08
675.376	10.08
675.498	12.08
675.62	28.08
675.743	-0.92
675.865	20.08
675.987	-7.92
676.109	20.08
676.231	20.08
676.354	46.08
676.476	12.08
676.598	25.08
676.72	2.08
676.842	17.08
676.965	27.08
677.087	41.08
677.209	14.08
677.331	20.08
677.453	7.08
677.576	8.08
677.698	8.08
677.82	20.08
677.942	-7.92
678.064	19.08
678.187	17.08
678.309	12.08
678.431	10.08
678.553	28.08
678.675	30.08
678.798	20.08
678.92	5.08
679.042	16.08
679.164	-5.92
679.286	24.08
679.409	9.08
679.531	-10.92
679.653	8.08
679.775	13.08
679.898	-8.92
680.02	-0.92
680.142	-1.92
680.264	14.08
680.386	-1.92
680.509	8.08
680.631	14.08
680.753	21.08
680.875	-9.92
680.998	19.08
681.12	10.08
681.242	26.08
681.364	-3.92
681.486	7.08
681.609	3.08
681.731	7.08
681.853	-5.92
681.975	14.08
682.098	25.08
682.22	13.08
682.342	0.08
682.464	37.08
682.587	15.08
682.709	20.08
682.831	-5.92
682.953	12.08
683.076	-7.92
683.198	12.08
683.32	32.08
683.442	10.08
683.565	13.08
683.687	5.08
683.809	-1.92
683.931	3.08
684.054	12.08
684.176	9.08
684.298	20.08
684.42	11.08
684.543	12.08
684.665	5.08
684.787	-7.92
684.909	10.08
685.032	14.08
685.154	3.08
685.276	-1.92
685.398	15.08
685.521	-0.92
685.643	28.08
685.765	1.08
685.887	30.08
686.01	18.08
686.132	12.08
686.254	22.08
686.377	24.08
686.499	2.08
686.621	23.08
686.743	17.08
686.866	4.08
686.988	34.08
687.11	34.08
687.232	1.08
687.355	8.08
687.477	14.08
687.599	10.08
687.722	4.08
687.844	14.08
687.966	16.08
688.088	9.08
688.211	34.08
688.333	6.08
688.455	18.08
688.578	10.08
688.7	15.08
688.822	2.08
688.944	-11.92
689.067	48.08
689.189	16.08
689.311	8.08
689.434	-11.92
689.556	18.08
689.678	1.08
689.801	14.08
689.923	20.08
690.045	35.08
690.167	21.08
690.29	-0.92
690.412	9.08
690.534	9.08
690.657	10.08
690.779	-2.92
690.901	9.08
691.024	10.08
691.146	-9.92
691.268	-4.92
691.391	0.08
691.513	18.08
691.635	22.08
691.758	26.08
691.88	16.08
692.002	6.08
692.125	12.08
692.247	14.08
692.369	13.08
692.492	15.08
692.614	2.08
692.736	6.08
692.859	4.08
692.981	8.08
693.103	17.08
693.226	24.08
693.348	26.08
693.47	0.08
693.593	-16.92
693.715	0.08
693.837	-1.92
693.96	8.08
694.082	-6.92
694.204	22.08
694.327	-4.92
694.449	-4.92
694.571	6.08
694.694	25.08
694.816	20.08
694.938	7.08
695.061	0.08
695.183	14.08
695.305	9.08
695.428	-3.92
695.55	-8.92
695.672	-5.92
695.795	5.08
695.917	25.08
696.04	6.08
696.162	2.08
696.284	5.08
696.407	9.08
696.529	-5.92
696.651	26.08
696.774	5.08
696.896	26.08
697.019	0.08
697.141	6.08
697.263	-4.92
697.386	7.08
697.508	-5.92
697.63	14.08
697.753	10.08
697.875	2.08
697.998	8.08
698.12	18.08
698.242	9.08
698.365	14.08
698.487	18.08
698.61	-0.92
698.732	2.08
698.854	6.08
698.977	14.08
699.099	33.08
699.221	14.08
699.344	8.08
699.466	-1.92
699.589	-5.92
699.711	-19.92
699.834	-7.92
699.956	30.08
700.078	16.08
700.201	2.08
700.323	18.08
700.446	11.08
700.568	6.08
700.69	12.08
700.813	5.08
700.935	14.08
701.058	-5.92
701.18	10.08
701.302	-3.92
701.425	-3.92
701.547	6.08
701.67	9.08
701.792	8.08
701.915	9.08
702.037	-0.92
702.159	5.08
702.282	20.08
702.404	7.08
702.527	9.08
702.649	21.08
702.772	17.08
702.894	18.08
703.017	22.08
703.139	22.08
703.261	22.08
703.384	27.08
703.506	-7.92
703.629	10.08
703.751	23.08
703.874	-1.92
703.996	-7.92
704.119	-20.92
704.241	9.08
704.364	-5.92
704.486	5.08
704.608	1.08
704.731	12.08
704.853	17.08
704.976	-1.92
705.098	-1.92
705.221	4.08
705.343	11.08
705.466	10.08
705.588	23.08
705.711	3.08
705.833	18.08
705.956	9.08
706.078	17.08
706.201	4.08
706.323	11.08
706.446	8.08
