Data from LowRes_H2_15_26_11_07_2024_HR4C61881__32__15-28-16-837.txt Node

Date: Thu Nov 07 15:28:16 EST 2024
User: crc00042
Spectrometer: HR4C6188
Trigger mode: 4
Integration Time (sec): 1.000000E-1
Scans to average: 1
Electric dark correction enabled: true
Nonlinearity correction enabled: false
Boxcar width: 0
XAxis mode: Wavelengths
Number of Pixels in Spectrum: 3648
>>>>>Begin Spectral Data<<<<<
245.66	-102.92
245.797	-102.92
245.934	-102.92
246.071	-84.92
246.208	4.08
246.344	8.08
246.481	-16.92
246.618	-13.92
246.755	21.08
246.892	-6.92
247.029	-1.92
247.165	-14.92
247.302	10.08
247.439	7.08
247.576	9.08
247.713	-13.92
247.849	23.08
247.986	-9.92
248.123	3.08
248.26	-7.92
248.396	-4.92
248.533	-7.92
248.67	-26.92
248.806	-1.92
248.943	-21.92
249.08	-9.92
249.216	13.08
249.353	-11.92
249.49	-16.92
249.626	-0.92
249.763	-8.92
249.9	5.08
250.036	-1.92
250.173	5.08
250.309	6.08
250.446	14.08
250.582	-3.92
250.719	-18.92
250.856	-5.92
250.992	7.08
251.129	0.08
251.265	-12.92
251.402	8.08
251.538	-8.92
251.675	-9.92
251.811	8.08
251.948	16.08
252.084	4.08
252.221	-2.92
252.357	-23.92
252.493	18.08
252.63	6.08
252.766	19.08
252.903	8.08
253.039	-10.92
253.175	17.08
253.312	5.08
253.448	-19.92
253.585	-34.92
253.721	6.08
253.857	-7.92
253.994	7.08
254.13	-5.92
254.266	0.08
254.403	-11.92
254.539	4.08
254.675	2.08
254.811	3.08
254.948	16.08
255.084	4.08
255.22	-13.92
255.356	5.08
255.493	9.08
255.629	8.08
255.765	5.08
255.901	10.08
256.037	3.08
256.174	21.08
256.31	6.08
256.446	4.08
256.582	17.08
256.718	23.08
256.854	21.08
256.991	9.08
257.127	16.08
257.263	-1.92
257.399	4.08
257.535	-22.92
257.671	-10.92
257.807	-4.92
257.943	-12.92
258.079	-15.92
258.215	3.08
258.351	22.08
258.487	2.08
258.623	15.08
258.759	-24.92
258.895	-7.92
259.031	-15.92
259.167	-12.92
259.303	14.08
259.439	-4.92
259.575	-15.92
259.711	5.08
259.847	3.08
259.983	0.08
260.119	4.08
260.255	0.08
260.391	6.08
260.527	23.08
260.663	22.08
260.799	20.08
260.934	-4.92
261.07	4.08
261.206	-8.92
261.342	-5.92
261.478	26.08
261.614	5.08
261.749	-5.92
261.885	-12.92
262.021	3.08
262.157	1.08
262.293	-17.92
262.428	8.08
262.564	-6.92
262.7	4.08
262.836	-5.92
262.971	18.08
263.107	1.08
263.243	19.08
263.378	13.08
263.514	-29.92
263.65	-13.92
263.785	-17.92
263.921	-4.92
264.057	-4.92
264.192	14.08
264.328	25.08
264.464	-13.92
264.599	13.08
264.735	19.08
264.871	-1.92
265.006	-0.92
265.142	9.08
265.277	0.08
265.413	6.08
265.548	16.08
265.684	0.08
265.819	1.08
265.955	-7.92
266.091	-10.92
266.226	-13.92
266.362	1.08
266.497	3.08
266.633	-7.92
266.768	-5.92
266.903	17.08
267.039	19.08
267.174	40.08
267.31	-4.92
267.445	-11.92
267.581	0.08
267.716	21.08
267.851	5.08
267.987	25.08
268.122	32.08
268.258	14.08
268.393	-5.92
268.528	1.08
268.664	-1.92
268.799	-5.92
268.934	-1.92
269.07	-11.92
269.205	-13.92
269.34	7.08
269.476	-9.92
269.611	-19.92
269.746	19.08
269.881	20.08
270.017	-3.92
270.152	2.08
270.287	2.08
270.422	-9.92
270.558	-3.92
270.693	13.08
270.828	0.08
270.963	4.08
271.098	2.08
271.234	13.08
271.369	24.08
271.504	-12.92
271.639	-9.92
271.774	3.08
271.909	6.08
272.045	-7.92
272.18	-0.92
272.315	-4.92
272.45	-7.92
272.585	-13.92
272.72	8.08
272.855	12.08
272.99	22.08
273.125	-9.92
273.26	-19.92
273.395	-5.92
273.53	3.08
273.665	13.08
273.8	-16.92
273.935	14.08
274.07	-0.92
274.205	-5.92
274.34	-6.92
274.475	3.08
274.61	7.08
274.745	-5.92
274.88	7.08
275.015	-23.92
275.15	6.08
275.285	0.08
275.42	6.08
275.555	7.08
275.69	12.08
275.825	6.08
275.959	5.08
276.094	-0.92
276.229	8.08
276.364	-17.92
276.499	10.08
276.634	1.08
276.768	-7.92
276.903	-0.92
277.038	9.08
277.173	-20.92
277.308	-3.92
277.442	-15.92
277.577	-1.92
277.712	-20.92
277.847	-19.92
277.981	10.08
278.116	-1.92
278.251	8.08
278.386	10.08
278.52	10.08
278.655	5.08
278.79	8.08
278.924	13.08
279.059	11.08
279.194	-3.92
279.328	38.08
279.463	-3.92
279.598	5.08
279.732	20.08
279.867	14.08
280.001	1.08
280.136	8.08
280.271	10.08
280.405	15.08
280.54	-2.92
280.674	-8.92
280.809	28.08
280.943	10.08
281.078	5.08
281.213	20.08
281.347	-1.92
281.482	1.08
281.616	6.08
281.751	2.08
281.885	-16.92
282.02	-7.92
282.154	7.08
282.288	-10.92
282.423	-16.92
282.557	-21.92
282.692	12.08
282.826	-0.92
282.961	8.08
283.095	-4.92
283.229	-5.92
283.364	-19.92
283.498	0.08
283.633	-1.92
283.767	12.08
283.901	-1.92
284.036	1.08
284.17	-4.92
284.304	-4.92
284.439	11.08
284.573	3.08
284.707	-0.92
284.842	-17.92
284.976	-4.92
285.11	-2.92
285.244	-0.92
285.379	47.08
285.513	-3.92
285.647	-0.92
285.781	-23.92
285.916	18.08
286.05	-7.92
286.184	4.08
286.318	4.08
286.453	-16.92
286.587	-9.92
286.721	-10.92
286.855	-3.92
286.989	16.08
287.123	-11.92
287.258	-11.92
287.392	8.08
287.526	12.08
287.66	-7.92
287.794	0.08
287.928	8.08
288.062	-6.92
288.196	4.08
288.33	-7.92
288.464	12.08
288.598	5.08
288.733	8.08
288.867	16.08
289.001	-10.92
289.135	15.08
289.269	-8.92
289.403	-6.92
289.537	3.08
289.671	2.08
289.805	-7.92
289.939	0.08
290.073	13.08
290.207	20.08
290.34	9.08
290.474	20.08
290.608	21.08
290.742	6.08
290.876	-7.92
291.01	-9.92
291.144	-2.92
291.278	15.08
291.412	3.08
291.546	-0.92
291.679	6.08
291.813	13.08
291.947	-16.92
292.081	-10.92
292.215	2.08
292.349	12.08
292.482	12.08
292.616	3.08
292.75	-12.92
292.884	7.08
293.018	0.08
293.151	-16.92
293.285	-11.92
293.419	-11.92
293.553	-4.92
293.686	-5.92
293.82	2.08
293.954	24.08
294.088	15.08
294.221	-10.92
294.355	-1.92
294.489	7.08
294.622	3.08
294.756	-13.92
294.89	7.08
295.023	19.08
295.157	25.08
295.291	17.08
295.424	24.08
295.558	-3.92
295.691	2.08
295.825	-7.92
295.959	-3.92
296.092	5.08
296.226	-4.92
296.359	21.08
296.493	19.08
296.627	6.08
296.76	4.08
296.894	8.08
297.027	6.08
297.161	-15.92
297.294	-14.92
297.428	-0.92
297.561	5.08
297.695	-7.92
297.828	7.08
297.962	-8.92
298.095	-5.92
298.229	4.08
298.362	-5.92
298.495	-4.92
298.629	-5.92
298.762	4.08
298.896	0.08
299.029	-1.92
299.162	12.08
299.296	-3.92
299.429	-21.92
299.563	2.08
299.696	2.08
299.829	1.08
299.963	14.08
300.096	9.08
300.229	16.08
300.363	1.08
300.496	0.08
300.629	-9.92
300.763	-1.92
300.896	-8.92
301.029	15.08
301.162	-0.92
301.296	-10.92
301.429	0.08
301.562	-25.92
301.695	19.08
301.829	-3.92
301.962	25.08
302.095	-5.92
302.228	-18.92
302.362	1.08
302.495	-3.92
302.628	-0.92
302.761	5.08
302.894	-8.92
303.027	16.08
303.161	-7.92
303.294	0.08
303.427	15.08
303.56	4.08
303.693	5.08
303.826	-18.92
303.959	2.08
304.092	10.08
304.225	-20.92
304.359	4.08
304.492	0.08
304.625	-3.92
304.758	21.08
304.891	-12.92
305.024	-1.92
305.157	-2.92
305.29	-10.92
305.423	2.08
305.556	-7.92
305.689	21.08
305.822	1.08
305.955	4.08
306.088	-4.92
306.221	-7.92
306.354	-9.92
306.487	-3.92
306.62	-3.92
306.752	-1.92
306.885	5.08
307.018	-15.92
307.151	0.08
307.284	36.08
307.417	5.08
307.55	12.08
307.683	19.08
307.816	37.08
307.948	-3.92
308.081	11.08
308.214	0.08
308.347	7.08
308.48	-8.92
308.613	-25.92
308.745	-2.92
308.878	-9.92
309.011	1.08
309.144	0.08
309.277	-0.92
309.409	11.08
309.542	5.08
309.675	5.08
309.808	1.08
309.94	10.08
310.073	-12.92
310.206	-10.92
310.339	10.08
310.471	-3.92
310.604	18.08
310.737	0.08
310.869	9.08
311.002	-13.92
311.135	-0.92
311.267	-14.92
311.4	-5.92
311.533	19.08
311.665	-0.92
311.798	-3.92
311.93	-8.92
312.063	6.08
312.196	-20.92
312.328	-0.92
312.461	-9.92
312.593	-3.92
312.726	-1.92
312.859	-28.92
312.991	-12.92
313.124	-15.92
313.256	11.08
313.389	2.08
313.521	3.08
313.654	-9.92
313.786	-12.92
313.919	-6.92
314.051	0.08
314.184	18.08
314.316	-1.92
314.449	-28.92
314.581	-25.92
314.714	-2.92
314.846	2.08
314.978	-16.92
315.111	-13.92
315.243	11.08
315.376	-3.92
315.508	1.08
315.641	3.08
315.773	21.08
315.905	-2.92
316.038	1.08
316.17	-9.92
316.302	-2.92
316.435	11.08
316.567	1.08
316.699	20.08
316.832	-4.92
316.964	9.08
317.096	0.08
317.229	-19.92
317.361	-23.92
317.493	-23.92
317.625	-8.92
317.758	11.08
317.89	26.08
318.022	18.08
318.155	1.08
318.287	12.08
318.419	0.08
318.551	-1.92
318.683	-4.92
318.816	2.08
318.948	-6.92
319.08	-2.92
319.212	8.08
319.344	-2.92
319.477	-14.92
319.609	-1.92
319.741	16.08
319.873	-1.92
320.005	-7.92
320.137	-20.92
320.269	-5.92
320.401	0.08
320.534	-11.92
320.666	-27.92
320.798	-21.92
320.93	-4.92
321.062	-6.92
321.194	-23.92
321.326	-12.92
321.458	6.08
321.59	-10.92
321.722	-4.92
321.854	1.08
321.986	2.08
322.118	1.08
322.25	-14.92
322.382	17.08
322.514	4.08
322.646	-2.92
322.778	27.08
322.91	2.08
323.042	3.08
323.174	2.08
323.306	-23.92
323.438	-11.92
323.57	-5.92
323.702	4.08
323.834	5.08
323.966	7.08
324.097	21.08
324.229	28.08
324.361	10.08
324.493	5.08
324.625	-0.92
324.757	5.08
324.889	-0.92
325.021	0.08
325.152	11.08
325.284	9.08
325.416	-9.92
325.548	9.08
325.68	7.08
325.811	10.08
325.943	5.08
326.075	0.08
326.207	24.08
326.339	-3.92
326.47	-11.92
326.602	22.08
326.734	17.08
326.866	-6.92
326.997	-13.92
327.129	-1.92
327.261	-12.92
327.392	2.08
327.524	6.08
327.656	15.08
327.787	8.08
327.919	16.08
328.051	15.08
328.182	31.08
328.314	24.08
328.446	0.08
328.577	10.08
328.709	11.08
328.841	-9.92
328.972	-2.92
329.104	-11.92
329.235	-6.92
329.367	-16.92
329.499	8.08
329.63	3.08
329.762	17.08
329.893	9.08
330.025	3.08
330.156	-22.92
330.288	3.08
330.419	17.08
330.551	3.08
330.683	-6.92
330.814	-6.92
330.946	12.08
331.077	-21.92
331.208	-20.92
331.34	-9.92
331.471	-4.92
331.603	-6.92
331.734	-30.92
331.866	4.08
331.997	-6.92
332.129	-17.92
332.26	-6.92
332.392	7.08
332.523	7.08
332.654	-9.92
332.786	-11.92
332.917	-14.92
333.048	12.08
333.18	10.08
333.311	-12.92
333.443	-10.92
333.574	-4.92
333.705	23.08
333.837	-19.92
333.968	-20.92
334.099	-10.92
334.231	10.08
334.362	-3.92
334.493	12.08
334.624	16.08
334.756	12.08
334.887	3.08
335.018	11.08
335.15	-2.92
335.281	-4.92
335.412	20.08
335.543	25.08
335.675	7.08
335.806	-4.92
335.937	-0.92
336.068	12.08
336.199	38.08
336.331	6.08
336.462	-22.92
336.593	-3.92
336.724	-3.92
336.855	11.08
336.986	8.08
337.118	3.08
337.249	2.08
337.38	-3.92
337.511	-0.92
337.642	-11.92
337.773	1.08
337.904	7.08
338.035	0.08
338.166	1.08
338.298	8.08
338.429	4.08
338.56	3.08
338.691	18.08
338.822	6.08
338.953	12.08
339.084	19.08
339.215	14.08
339.346	3.08
339.477	-5.92
339.608	-5.92
339.739	-5.92
339.87	-13.92
340.001	-1.92
340.132	12.08
340.263	-0.92
340.394	0.08
340.525	13.08
340.656	-2.92
340.787	-30.92
340.918	39.08
341.049	6.08
341.179	11.08
341.31	16.08
341.441	18.08
341.572	10.08
341.703	-0.92
341.834	-9.92
341.965	-0.92
342.096	1.08
342.227	1.08
342.357	9.08
342.488	16.08
342.619	-2.92
342.75	-0.92
342.881	-27.92
343.012	23.08
343.142	30.08
343.273	-10.92
343.404	-1.92
343.535	28.08
343.666	15.08
343.796	10.08
343.927	-7.92
344.058	11.08
344.189	17.08
344.319	20.08
344.45	-1.92
344.581	7.08
344.712	-13.92
344.842	7.08
344.973	-9.92
345.104	8.08
345.234	3.08
345.365	-16.92
345.496	-9.92
345.626	10.08
345.757	22.08
345.888	-7.92
346.018	-7.92
346.149	-4.92
346.28	15.08
346.41	-29.92
346.541	6.08
346.672	-0.92
346.802	0.08
346.933	6.08
347.063	-2.92
347.194	3.08
347.325	16.08
347.455	14.08
347.586	8.08
347.716	-4.92
347.847	8.08
347.977	5.08
348.108	15.08
348.238	0.08
348.369	-6.92
348.499	0.08
348.63	-11.92
348.76	-20.92
348.891	3.08
349.021	1.08
349.152	9.08
349.282	5.08
349.413	6.08
349.543	22.08
349.674	12.08
349.804	24.08
349.935	-1.92
350.065	4.08
350.196	-17.92
350.326	-2.92
350.456	-4.92
350.587	26.08
350.717	7.08
350.848	17.08
350.978	7.08
351.108	-4.92
351.239	28.08
351.369	2.08
351.499	-3.92
351.63	6.08
351.76	-2.92
351.89	-5.92
352.021	2.08
352.151	0.08
352.281	14.08
352.412	2.08
352.542	6.08
352.672	-4.92
352.803	13.08
352.933	15.08
353.063	14.08
353.193	13.08
353.324	10.08
353.454	9.08
353.584	15.08
353.714	2.08
353.845	8.08
353.975	7.08
354.105	19.08
354.235	5.08
354.365	6.08
354.496	3.08
354.626	3.08
354.756	13.08
354.886	15.08
355.016	10.08
355.146	-5.92
355.277	12.08
355.407	-10.92
355.537	-0.92
355.667	12.08
355.797	15.08
355.927	12.08
356.057	16.08
356.187	-0.92
356.318	-6.92
356.448	-6.92
356.578	2.08
356.708	8.08
356.838	29.08
356.968	-22.92
357.098	0.08
357.228	20.08
357.358	-1.92
357.488	-11.92
357.618	22.08
357.748	25.08
357.878	4.08
358.008	-16.92
358.138	-9.92
358.268	12.08
358.398	31.08
358.528	-11.92
358.658	13.08
358.788	8.08
358.918	1.08
359.048	5.08
359.178	23.08
359.308	3.08
359.438	26.08
359.568	28.08
359.698	2.08
359.827	-11.92
359.957	-3.92
360.087	15.08
360.217	-13.92
360.347	18.08
360.477	21.08
360.607	-20.92
360.737	7.08
360.866	0.08
360.996	-7.92
361.126	4.08
361.256	30.08
361.386	18.08
361.516	14.08
361.645	1.08
361.775	2.08
361.905	-5.92
362.035	19.08
362.165	5.08
362.294	-8.92
362.424	3.08
362.554	8.08
362.684	-0.92
362.813	0.08
362.943	6.08
363.073	15.08
363.203	4.08
363.332	8.08
363.462	-9.92
363.592	0.08
363.721	4.08
363.851	-0.92
363.981	25.08
364.111	6.08
364.24	-18.92
364.37	10.08
364.5	11.08
364.629	2.08
364.759	7.08
364.888	-4.92
365.018	8.08
365.148	8.08
365.277	10.08
365.407	9.08
365.537	9.08
365.666	18.08
365.796	3.08
365.925	12.08
366.055	8.08
366.184	3.08
366.314	-0.92
366.444	4.08
366.573	-4.92
366.703	3.08
366.832	6.08
366.962	3.08
367.091	18.08
367.221	11.08
367.35	4.08
367.48	27.08
367.609	7.08
367.739	18.08
367.868	1.08
367.998	3.08
368.127	18.08
368.257	33.08
368.386	13.08
368.516	16.08
368.645	-1.92
368.775	-0.92
368.904	0.08
369.033	-8.92
369.163	-4.92
369.292	21.08
369.422	4.08
369.551	13.08
369.68	15.08
369.81	-0.92
369.939	-11.92
370.069	28.08
370.198	16.08
370.327	-0.92
370.457	-1.92
370.586	6.08
370.715	3.08
370.845	1.08
370.974	26.08
371.103	5.08
371.233	30.08
371.362	20.08
371.491	9.08
371.621	31.08
371.75	12.08
371.879	10.08
372.008	4.08
372.138	-0.92
372.267	8.08
372.396	20.08
372.525	13.08
372.655	2.08
372.784	-13.92
372.913	-4.92
373.042	-9.92
373.172	9.08
373.301	-1.92
373.43	-2.92
373.559	11.08
373.688	22.08
373.818	15.08
373.947	5.08
374.076	5.08
374.205	15.08
374.334	-16.92
374.463	-6.92
374.593	11.08
374.722	12.08
374.851	27.08
374.98	-2.92
375.109	3.08
375.238	19.08
375.367	25.08
375.496	-23.92
375.625	2.08
375.755	12.08
375.884	10.08
376.013	-2.92
376.142	-10.92
376.271	2.08
376.4	-10.92
376.529	1.08
376.658	12.08
376.787	0.08
376.916	1.08
377.045	-5.92
377.174	-7.92
377.303	8.08
377.432	7.08
377.561	-5.92
377.69	5.08
377.819	11.08
377.948	-6.92
378.077	-7.92
378.206	-10.92
378.335	1.08
378.464	-4.92
378.593	15.08
378.722	-7.92
378.851	9.08
378.98	12.08
379.108	-0.92
379.237	-11.92
379.366	0.08
379.495	19.08
379.624	7.08
379.753	-8.92
379.882	7.08
380.011	-0.92
380.14	-19.92
380.268	8.08
380.397	-1.92
380.526	26.08
380.655	-4.92
380.784	-41.92
380.913	-4.92
381.041	12.08
381.17	-9.92
381.299	-0.92
381.428	11.08
381.557	-3.92
381.685	7.08
381.814	4.08
381.943	3.08
382.072	-8.92
382.2	-15.92
382.329	0.08
382.458	3.08
382.587	9.08
382.715	35.08
382.844	11.08
382.973	6.08
383.102	-6.92
383.23	1.08
383.359	-7.92
383.488	3.08
383.616	3.08
383.745	-1.92
383.874	3.08
384.003	-6.92
384.131	-0.92
384.26	-7.92
384.389	5.08
384.517	1.08
384.646	-8.92
384.774	-8.92
384.903	19.08
385.032	22.08
385.16	6.08
385.289	-4.92
385.418	5.08
385.546	-2.92
385.675	26.08
385.803	7.08
385.932	4.08
386.06	-6.92
386.189	-0.92
386.318	-1.92
386.446	-8.92
386.575	8.08
386.703	10.08
386.832	-22.92
386.96	-14.92
387.089	32.08
387.217	12.08
387.346	-1.92
387.474	10.08
387.603	3.08
387.731	4.08
387.86	11.08
387.988	-17.92
388.117	9.08
388.245	-6.92
388.374	-3.92
388.502	14.08
388.631	-10.92
388.759	1.08
388.888	0.08
389.016	-18.92
389.144	8.08
389.273	-2.92
389.401	7.08
389.53	-10.92
389.658	10.08
389.786	-22.92
389.915	-7.92
390.043	-25.92
390.172	12.08
390.3	19.08
390.428	19.08
390.557	-9.92
390.685	4.08
390.813	2.08
390.942	10.08
391.07	-2.92
391.198	10.08
391.327	5.08
391.455	-17.92
391.583	19.08
391.712	13.08
391.84	1.08
391.968	-14.92
392.096	-4.92
392.225	-10.92
392.353	15.08
392.481	2.08
392.609	38.08
392.738	33.08
392.866	12.08
392.994	-8.92
393.122	23.08
393.251	-19.92
393.379	-17.92
393.507	-27.92
393.635	4.08
393.764	11.08
393.892	15.08
394.02	-11.92
394.148	-10.92
394.276	3.08
394.404	17.08
394.533	2.08
394.661	1.08
394.789	19.08
394.917	24.08
395.045	-1.92
395.173	-7.92
395.302	-6.92
395.43	19.08
395.558	9.08
395.686	4.08
395.814	15.08
395.942	2.08
396.07	1.08
396.198	5.08
396.326	9.08
396.454	26.08
396.582	18.08
396.711	-7.92
396.839	5.08
396.967	-2.92
397.095	10.08
397.223	-3.92
397.351	26.08
397.479	28.08
397.607	2.08
397.735	4.08
397.863	1.08
397.991	7.08
398.119	-16.92
398.247	0.08
398.375	2.08
398.503	4.08
398.631	9.08
398.759	1.08
398.887	2.08
399.015	-6.92
399.143	-16.92
399.271	-10.92
399.399	10.08
399.526	15.08
399.654	16.08
399.782	8.08
399.91	28.08
400.038	31.08
400.166	0.08
400.294	0.08
400.422	-8.92
400.55	15.08
400.678	8.08
400.805	5.08
400.933	24.08
401.061	21.08
401.189	14.08
401.317	33.08
401.445	25.08
401.573	14.08
401.7	-14.92
401.828	4.08
401.956	-0.92
402.084	3.08
402.212	3.08
402.34	-1.92
402.467	4.08
402.595	-4.92
402.723	0.08
402.851	18.08
402.978	-0.92
403.106	15.08
403.234	4.08
403.362	29.08
403.489	6.08
403.617	30.08
403.745	1.08
403.873	-20.92
404	24.08
404.128	6.08
404.256	9.08
404.384	15.08
404.511	11.08
404.639	4.08
404.767	-4.92
404.894	4.08
405.022	9.08
405.15	18.08
405.277	6.08
405.405	-5.92
405.533	7.08
405.66	0.08
405.788	2.08
405.916	2.08
406.043	-24.92
406.171	-6.92
406.299	5.08
406.426	1.08
406.554	12.08
406.681	22.08
406.809	8.08
406.937	3.08
407.064	-6.92
407.192	13.08
407.319	7.08
407.447	13.08
407.574	24.08
407.702	3.08
407.83	-6.92
407.957	0.08
408.085	-4.92
408.212	-9.92
408.34	7.08
408.467	-12.92
408.595	5.08
408.722	16.08
408.85	11.08
408.977	-10.92
409.105	4.08
409.232	21.08
409.36	8.08
409.487	-1.92
409.615	3.08
409.742	14.08
409.87	12.08
409.997	27.08
410.125	30.08
410.252	61.08
410.379	40.08
410.507	20.08
410.634	11.08
410.762	17.08
410.889	18.08
411.017	0.08
411.144	9.08
411.271	5.08
411.399	10.08
411.526	13.08
411.653	8.08
411.781	26.08
411.908	7.08
412.036	4.08
412.163	21.08
412.29	15.08
412.418	2.08
412.545	18.08
412.672	-6.92
412.8	36.08
412.927	21.08
413.054	11.08
413.182	15.08
413.309	14.08
413.436	-10.92
413.564	2.08
413.691	0.08
413.818	20.08
413.945	-14.92
414.073	0.08
414.2	7.08
414.327	18.08
414.454	19.08
414.582	10.08
414.709	-0.92
414.836	-11.92
414.963	7.08
415.091	0.08
415.218	13.08
415.345	2.08
415.472	0.08
415.6	-9.92
415.727	-1.92
415.854	-5.92
415.981	8.08
416.108	-6.92
416.236	-14.92
416.363	-7.92
416.49	-7.92
416.617	5.08
416.744	31.08
416.871	33.08
416.998	-5.92
417.126	-8.92
417.253	-1.92
417.38	15.08
417.507	2.08
417.634	11.08
417.761	18.08
417.888	14.08
418.015	8.08
418.143	13.08
418.27	24.08
418.397	12.08
418.524	2.08
418.651	-5.92
418.778	11.08
418.905	19.08
419.032	6.08
419.159	9.08
419.286	32.08
419.413	32.08
419.54	31.08
419.667	0.08
419.794	4.08
419.921	13.08
420.048	4.08
420.175	24.08
420.302	1.08
420.429	9.08
420.556	0.08
420.683	-9.92
420.81	8.08
420.937	10.08
421.064	16.08
421.191	8.08
421.318	28.08
421.445	33.08
421.572	-5.92
421.699	28.08
421.826	35.08
421.953	11.08
422.08	7.08
422.207	11.08
422.334	-10.92
422.461	30.08
422.588	11.08
422.714	31.08
422.841	43.08
422.968	24.08
423.095	20.08
423.222	-9.92
423.349	3.08
423.476	26.08
423.603	-13.92
423.729	-15.92
423.856	-6.92
423.983	-5.92
424.11	2.08
424.237	28.08
424.364	16.08
424.491	11.08
424.617	-0.92
424.744	13.08
424.871	4.08
424.998	-0.92
425.125	-9.92
425.251	13.08
425.378	-5.92
425.505	5.08
425.632	4.08
425.758	9.08
425.885	7.08
426.012	13.08
426.139	22.08
426.266	11.08
426.392	1.08
426.519	-2.92
426.646	14.08
426.772	20.08
426.899	-3.92
427.026	-7.92
427.153	12.08
427.279	34.08
427.406	3.08
427.533	8.08
427.659	-7.92
427.786	-0.92
427.913	12.08
428.039	-4.92
428.166	-14.92
428.293	16.08
428.419	36.08
428.546	6.08
428.673	-13.92
428.799	14.08
428.926	15.08
429.053	24.08
429.179	14.08
429.306	20.08
429.433	24.08
429.559	40.08
429.686	-11.92
429.812	7.08
429.939	-18.92
430.066	11.08
430.192	4.08
430.319	7.08
430.445	-12.92
430.572	11.08
430.699	-1.92
430.825	1.08
430.952	3.08
431.078	5.08
431.205	7.08
431.331	3.08
431.458	-3.92
431.584	13.08
431.711	-5.92
431.837	-5.92
431.964	-10.92
432.09	13.08
432.217	-0.92
432.343	9.08
432.47	26.08
432.596	23.08
432.723	11.08
432.849	-8.92
432.976	16.08
433.102	4.08
433.229	-10.92
433.355	45.08
433.482	75.08
433.608	144.08
433.735	146.08
433.861	132.08
433.987	144.08
434.114	234.08
434.24	200.08
434.367	70.08
434.493	10.08
434.62	5.08
434.746	9.08
434.872	14.08
434.999	18.08
435.125	21.08
435.252	-2.92
435.378	12.08
435.504	-2.92
435.631	32.08
435.757	-1.92
435.883	30.08
436.01	15.08
436.136	21.08
436.262	15.08
436.389	11.08
436.515	25.08
436.641	11.08
436.768	18.08
436.894	12.08
437.02	6.08
437.147	36.08
437.273	11.08
437.399	2.08
437.526	15.08
437.652	0.08
437.778	7.08
437.904	-10.92
438.031	6.08
438.157	7.08
438.283	16.08
438.409	8.08
438.536	-9.92
438.662	31.08
438.788	13.08
438.914	15.08
439.041	14.08
439.167	26.08
439.293	-9.92
439.419	1.08
439.546	2.08
439.672	-9.92
439.798	15.08
439.924	12.08
440.05	16.08
440.177	15.08
440.303	13.08
440.429	5.08
440.555	17.08
440.681	9.08
440.807	20.08
440.934	4.08
441.06	-5.92
441.186	-1.92
441.312	11.08
441.438	19.08
441.564	10.08
441.69	12.08
441.816	31.08
441.943	12.08
442.069	9.08
442.195	17.08
442.321	6.08
442.447	3.08
442.573	7.08
442.699	-4.92
442.825	-10.92
442.951	20.08
443.077	21.08
443.203	14.08
443.33	7.08
443.456	-13.92
443.582	1.08
443.708	-0.92
443.834	13.08
443.96	34.08
444.086	26.08
444.212	22.08
444.338	17.08
444.464	27.08
444.59	9.08
444.716	13.08
444.842	0.08
444.968	4.08
445.094	-6.92
445.22	5.08
445.346	-4.92
445.472	-7.92
445.598	0.08
445.724	8.08
445.85	2.08
445.976	22.08
446.102	2.08
446.228	22.08
446.354	17.08
446.48	12.08
446.605	-3.92
446.731	18.08
446.857	3.08
446.983	3.08
447.109	15.08
447.235	18.08
447.361	-10.92
447.487	20.08
447.613	23.08
447.739	12.08
447.865	2.08
447.99	16.08
448.116	12.08
448.242	21.08
448.368	16.08
448.494	15.08
448.62	12.08
448.746	11.08
448.872	-3.92
448.997	-8.92
449.123	-3.92
449.249	24.08
449.375	30.08
449.501	1.08
449.627	6.08
449.752	25.08
449.878	8.08
450.004	-5.92
450.13	23.08
450.256	20.08
450.381	15.08
450.507	7.08
450.633	2.08
450.759	30.08
450.884	2.08
451.01	17.08
451.136	-14.92
451.262	6.08
451.388	9.08
451.513	-8.92
451.639	7.08
451.765	4.08
451.89	10.08
452.016	19.08
452.142	-3.92
452.268	9.08
452.393	9.08
452.519	2.08
452.645	-8.92
452.771	3.08
452.896	-9.92
453.022	3.08
453.148	2.08
453.273	20.08
453.399	1.08
453.525	-18.92
453.65	-8.92
453.776	18.08
453.902	17.08
454.027	10.08
454.153	20.08
454.279	12.08
454.404	-1.92
454.53	12.08
454.656	28.08
454.781	10.08
454.907	1.08
455.032	5.08
455.158	26.08
455.284	30.08
455.409	12.08
455.535	19.08
455.66	11.08
455.786	18.08
455.912	13.08
456.037	-7.92
456.163	-2.92
456.288	33.08
456.414	-8.92
456.539	9.08
456.665	-0.92
456.791	14.08
456.916	-1.92
457.042	32.08
457.167	-6.92
457.293	33.08
457.418	3.08
457.544	-4.92
457.669	9.08
457.795	17.08
457.92	18.08
458.046	3.08
458.171	17.08
458.297	12.08
458.422	4.08
458.548	12.08
458.673	24.08
458.799	27.08
458.924	-13.92
459.05	4.08
459.175	-6.92
459.301	8.08
459.426	11.08
459.552	21.08
459.677	-3.92
459.803	18.08
459.928	7.08
460.053	22.08
460.179	11.08
460.304	20.08
460.43	-6.92
460.555	-0.92
460.681	2.08
460.806	5.08
460.931	16.08
461.057	14.08
461.182	1.08
461.308	24.08
461.433	16.08
461.558	-8.92
461.684	27.08
461.809	21.08
461.934	-3.92
462.06	18.08
462.185	5.08
462.311	4.08
462.436	8.08
462.561	18.08
462.687	17.08
462.812	23.08
462.937	-3.92
463.063	-17.92
463.188	-7.92
463.313	13.08
463.439	-2.92
463.564	16.08
463.689	16.08
463.814	21.08
463.94	-7.92
464.065	1.08
464.19	22.08
464.316	9.08
464.441	6.08
464.566	0.08
464.692	7.08
464.817	6.08
464.942	-4.92
465.067	4.08
465.193	-8.92
465.318	5.08
465.443	6.08
465.568	0.08
465.694	11.08
465.819	18.08
465.944	1.08
466.069	-3.92
466.194	14.08
466.32	22.08
466.445	13.08
466.57	16.08
466.695	-5.92
466.82	10.08
466.946	23.08
467.071	9.08
467.196	1.08
467.321	10.08
467.446	6.08
467.572	11.08
467.697	0.08
467.822	16.08
467.947	6.08
468.072	-0.92
468.197	-2.92
468.323	3.08
468.448	16.08
468.573	-0.92
468.698	4.08
468.823	14.08
468.948	22.08
469.073	13.08
469.198	24.08
469.324	13.08
469.449	-7.92
469.574	10.08
469.699	24.08
469.824	22.08
469.949	17.08
470.074	20.08
470.199	32.08
470.324	24.08
470.449	17.08
470.574	-1.92
470.7	2.08
470.825	16.08
470.95	25.08
471.075	13.08
471.2	11.08
471.325	27.08
471.45	6.08
471.575	-7.92
471.7	14.08
471.825	-6.92
471.95	13.08
472.075	12.08
472.2	9.08
472.325	14.08
472.45	-0.92
472.575	10.08
472.7	25.08
472.825	16.08
472.95	2.08
473.075	16.08
473.2	11.08
473.325	7.08
473.45	1.08
473.575	-0.92
473.7	7.08
473.825	15.08
473.95	25.08
474.075	18.08
474.2	14.08
474.325	4.08
474.45	5.08
474.574	26.08
474.699	22.08
474.824	5.08
474.949	3.08
475.074	10.08
475.199	33.08
475.324	2.08
475.449	11.08
475.574	18.08
475.699	16.08
475.824	2.08
475.949	8.08
476.073	3.08
476.198	3.08
476.323	21.08
476.448	6.08
476.573	13.08
476.698	32.08
476.823	31.08
476.947	12.08
477.072	-6.92
477.197	17.08
477.322	14.08
477.447	12.08
477.572	3.08
477.697	0.08
477.821	0.08
477.946	9.08
478.071	14.08
478.196	11.08
478.321	22.08
478.445	-11.92
478.57	-4.92
478.695	-0.92
478.82	15.08
478.945	18.08
479.069	6.08
479.194	0.08
479.319	17.08
479.444	14.08
479.569	-0.92
479.693	24.08
479.818	18.08
479.943	17.08
480.068	9.08
480.192	20.08
480.317	15.08
480.442	12.08
480.567	-0.92
480.691	19.08
480.816	8.08
480.941	-6.92
481.066	11.08
481.19	23.08
481.315	13.08
481.44	11.08
481.564	9.08
481.689	12.08
481.814	35.08
481.938	38.08
482.063	13.08
482.188	35.08
482.313	43.08
482.437	-3.92
482.562	2.08
482.687	24.08
482.811	29.08
482.936	7.08
483.061	18.08
483.185	47.08
483.31	28.08
483.435	12.08
483.559	4.08
483.684	7.08
483.808	22.08
483.933	13.08
484.058	20.08
484.182	10.08
484.307	15.08
484.432	20.08
484.556	13.08
484.681	10.08
484.805	20.08
484.93	31.08
485.055	46.08
485.179	80.08
485.304	127.08
485.428	354.08
485.553	1248.08
485.678	1755.08
485.802	1613.08
485.927	1803.08
486.051	2639.08
486.176	1632.08
486.3	448.08
486.425	145.08
486.549	75.08
486.674	65.08
486.799	42.08
486.923	7.08
487.048	3.08
487.172	18.08
487.297	27.08
487.421	26.08
487.546	24.08
487.67	30.08
487.795	-1.92
487.919	2.08
488.044	20.08
488.168	29.08
488.293	35.08
488.417	2.08
488.542	11.08
488.666	29.08
488.791	37.08
488.915	26.08
489.04	20.08
489.164	25.08
489.289	24.08
489.413	-5.92
489.538	30.08
489.662	12.08
489.786	0.08
489.911	0.08
490.035	16.08
490.16	3.08
490.284	7.08
490.409	-9.92
490.533	7.08
490.658	26.08
490.782	15.08
490.906	12.08
491.031	12.08
491.155	10.08
491.28	13.08
491.404	11.08
491.528	26.08
491.653	5.08
491.777	35.08
491.902	2.08
492.026	13.08
492.15	5.08
492.275	36.08
492.399	17.08
492.524	24.08
492.648	22.08
492.772	15.08
492.897	6.08
493.021	12.08
493.145	35.08
493.27	17.08
493.394	6.08
493.518	11.08
493.643	6.08
493.767	10.08
493.891	9.08
494.016	20.08
494.14	6.08
494.264	14.08
494.389	20.08
494.513	6.08
494.637	-5.92
494.762	18.08
494.886	3.08
495.01	2.08
495.134	-3.92
495.259	18.08
495.383	1.08
495.507	6.08
495.632	32.08
495.756	46.08
495.88	10.08
496.004	11.08
496.129	2.08
496.253	8.08
496.377	9.08
496.501	31.08
496.626	-1.92
496.75	8.08
496.874	21.08
496.998	9.08
497.123	39.08
497.247	-1.92
497.371	-3.92
497.495	19.08
497.62	20.08
497.744	14.08
497.868	2.08
497.992	10.08
498.116	14.08
498.241	14.08
498.365	-0.92
498.489	1.08
498.613	31.08
498.737	10.08
498.862	-4.92
498.986	-12.92
499.11	7.08
499.234	5.08
499.358	-5.92
499.482	14.08
499.607	2.08
499.731	12.08
499.855	29.08
499.979	28.08
500.103	26.08
500.227	37.08
500.351	14.08
500.476	10.08
500.6	11.08
500.724	13.08
500.848	3.08
500.972	15.08
501.096	6.08
501.22	28.08
501.344	8.08
501.469	4.08
501.593	21.08
501.717	20.08
501.841	-0.92
501.965	10.08
502.089	1.08
502.213	23.08
502.337	-10.92
502.461	-9.92
502.585	-0.92
502.709	24.08
502.834	18.08
502.958	3.08
503.082	19.08
503.206	14.08
503.33	15.08
503.454	28.08
503.578	22.08
503.702	15.08
503.826	14.08
503.95	26.08
504.074	12.08
504.198	8.08
504.322	4.08
504.446	2.08
504.57	27.08
504.694	26.08
504.818	4.08
504.942	25.08
505.066	22.08
505.19	24.08
505.314	-0.92
505.438	2.08
505.562	14.08
505.686	22.08
505.81	13.08
505.934	-1.92
506.058	3.08
506.182	6.08
506.306	12.08
506.43	15.08
506.554	9.08
506.678	9.08
506.802	18.08
506.926	4.08
507.05	2.08
507.174	18.08
507.298	15.08
507.422	10.08
507.546	25.08
507.67	27.08
507.794	-2.92
507.918	2.08
508.042	9.08
508.165	-3.92
508.289	3.08
508.413	10.08
508.537	7.08
508.661	3.08
508.785	8.08
508.909	4.08
509.033	17.08
509.157	-0.92
509.281	5.08
509.405	-3.92
509.528	18.08
509.652	6.08
509.776	3.08
509.9	11.08
510.024	0.08
510.148	18.08
510.272	10.08
510.396	11.08
510.519	7.08
510.643	12.08
510.767	-4.92
510.891	8.08
511.015	0.08
511.139	32.08
511.263	26.08
511.386	3.08
511.51	0.08
511.634	14.08
511.758	-1.92
511.882	2.08
512.006	6.08
512.129	3.08
512.253	42.08
512.377	25.08
512.501	23.08
512.625	1.08
512.748	4.08
512.872	-10.92
512.996	6.08
513.12	12.08
513.244	-0.92
513.367	14.08
513.491	24.08
513.615	4.08
513.739	-0.92
513.862	7.08
513.986	10.08
514.11	12.08
514.234	23.08
514.358	25.08
514.481	25.08
514.605	6.08
514.729	20.08
514.853	26.08
514.976	-8.92
515.1	14.08
515.224	20.08
515.348	-1.92
515.471	-11.92
515.595	20.08
515.719	-4.92
515.842	38.08
515.966	17.08
516.09	15.08
516.214	22.08
516.337	17.08
516.461	8.08
516.585	7.08
516.708	15.08
516.832	18.08
516.956	18.08
517.08	12.08
517.203	-3.92
517.327	4.08
517.451	23.08
517.574	32.08
517.698	11.08
517.822	15.08
517.945	30.08
518.069	34.08
518.193	49.08
518.316	25.08
518.44	20.08
518.564	8.08
518.687	22.08
518.811	39.08
518.935	62.08
519.058	20.08
519.182	13.08
519.306	33.08
519.429	18.08
519.553	46.08
519.676	42.08
519.8	21.08
519.924	10.08
520.047	18.08
520.171	-1.92
520.294	2.08
520.418	18.08
520.542	10.08
520.665	9.08
520.789	10.08
520.913	-9.92
521.036	-5.92
521.16	14.08
521.283	-0.92
521.407	-8.92
521.53	2.08
521.654	-23.92
521.778	23.08
521.901	11.08
522.025	11.08
522.148	8.08
522.272	12.08
522.395	23.08
522.519	18.08
522.643	8.08
522.766	9.08
522.89	12.08
523.013	20.08
523.137	-13.92
523.26	3.08
523.384	7.08
523.507	18.08
523.631	-2.92
523.754	5.08
523.878	2.08
524.002	13.08
524.125	15.08
524.249	-4.92
524.372	2.08
524.496	18.08
524.619	14.08
524.743	-4.92
524.866	-11.92
524.99	5.08
525.113	-4.92
525.237	17.08
525.36	5.08
525.484	4.08
525.607	-7.92
525.731	-11.92
525.854	13.08
525.978	16.08
526.101	4.08
526.224	2.08
526.348	1.08
526.471	12.08
526.595	18.08
526.718	-0.92
526.842	-7.92
526.965	13.08
527.089	1.08
527.212	26.08
527.336	16.08
527.459	18.08
527.582	4.08
527.706	-3.92
527.829	8.08
527.953	2.08
528.076	-8.92
528.2	-9.92
528.323	28.08
528.446	14.08
528.57	15.08
528.693	20.08
528.817	-0.92
528.94	15.08
529.064	28.08
529.187	15.08
529.31	16.08
529.434	20.08
529.557	10.08
529.68	-9.92
529.804	-9.92
529.927	8.08
530.051	-12.92
530.174	-13.92
530.297	2.08
530.421	28.08
530.544	17.08
530.668	10.08
530.791	-4.92
530.914	28.08
531.038	15.08
531.161	-5.92
531.284	11.08
531.408	-7.92
531.531	-10.92
531.654	11.08
531.778	25.08
531.901	6.08
532.024	2.08
532.148	-7.92
532.271	15.08
532.394	7.08
532.518	18.08
532.641	28.08
532.764	11.08
532.888	15.08
533.011	2.08
533.134	2.08
533.258	25.08
533.381	3.08
533.504	16.08
533.628	-1.92
533.751	7.08
533.874	10.08
533.997	14.08
534.121	-2.92
534.244	11.08
534.367	0.08
534.491	7.08
534.614	-1.92
534.737	10.08
534.86	18.08
534.984	-4.92
535.107	13.08
535.23	17.08
535.354	7.08
535.477	-5.92
535.6	19.08
535.723	11.08
535.847	-0.92
535.97	-8.92
536.093	9.08
536.216	-1.92
536.34	8.08
536.463	-7.92
536.586	25.08
536.709	10.08
536.833	19.08
536.956	-3.92
537.079	0.08
537.202	23.08
537.325	-0.92
537.449	10.08
537.572	24.08
537.695	-7.92
537.818	6.08
537.941	10.08
538.065	18.08
538.188	12.08
538.311	17.08
538.434	-4.92
538.558	27.08
538.681	23.08
538.804	9.08
538.927	23.08
539.05	9.08
539.173	12.08
539.297	-1.92
539.42	14.08
539.543	10.08
539.666	27.08
539.789	11.08
539.913	6.08
540.036	3.08
540.159	8.08
540.282	-4.92
540.405	10.08
540.528	19.08
540.651	40.08
540.775	12.08
540.898	16.08
541.021	1.08
541.144	14.08
541.267	12.08
541.39	-4.92
541.513	21.08
541.637	6.08
541.76	6.08
541.883	4.08
542.006	18.08
542.129	28.08
542.252	-13.92
542.375	10.08
542.498	21.08
542.622	4.08
542.745	15.08
542.868	9.08
542.991	18.08
543.114	21.08
543.237	41.08
543.36	45.08
543.483	14.08
543.606	10.08
543.73	41.08
543.853	5.08
543.976	2.08
544.099	10.08
544.222	10.08
544.345	-2.92
544.468	8.08
544.591	13.08
544.714	3.08
544.837	7.08
544.96	7.08
545.083	5.08
545.206	-6.92
545.329	0.08
545.453	-13.92
545.576	-6.92
545.699	-19.92
545.822	10.08
545.945	16.08
546.068	-7.92
546.191	7.08
546.314	17.08
546.437	16.08
546.56	11.08
546.683	8.08
546.806	16.08
546.929	15.08
547.052	-2.92
547.175	21.08
547.298	19.08
547.421	-5.92
547.544	-9.92
547.667	16.08
547.79	3.08
547.913	-5.92
548.036	5.08
548.159	15.08
548.282	8.08
548.405	22.08
548.528	14.08
548.651	-3.92
548.774	10.08
548.897	12.08
549.02	31.08
549.143	29.08
549.266	15.08
549.389	9.08
549.512	0.08
549.635	25.08
549.758	31.08
549.881	-2.92
550.004	7.08
550.127	9.08
550.25	7.08
550.373	3.08
550.496	14.08
550.619	-5.92
550.742	3.08
550.865	6.08
550.988	17.08
551.111	20.08
551.234	22.08
551.356	-10.92
551.479	2.08
551.602	20.08
551.725	0.08
551.848	15.08
551.971	8.08
552.094	8.08
552.217	6.08
552.34	-4.92
552.463	-10.92
552.586	10.08
552.709	12.08
552.832	15.08
552.955	-0.92
553.077	16.08
553.2	18.08
553.323	-4.92
553.446	5.08
553.569	8.08
553.692	3.08
553.815	7.08
553.938	23.08
554.061	11.08
554.184	-2.92
554.306	21.08
554.429	22.08
554.552	9.08
554.675	-0.92
554.798	-3.92
554.921	9.08
555.044	0.08
555.167	-0.92
555.29	6.08
555.412	6.08
555.535	9.08
555.658	-0.92
555.781	1.08
555.904	14.08
556.027	-3.92
556.15	6.08
556.272	6.08
556.395	20.08
556.518	19.08
556.641	-8.92
556.764	11.08
556.887	8.08
557.01	3.08
557.132	-24.92
557.255	15.08
557.378	17.08
557.501	9.08
557.624	7.08
557.747	6.08
557.869	24.08
557.992	28.08
558.115	24.08
558.238	0.08
558.361	4.08
558.483	27.08
558.606	5.08
558.729	-1.92
558.852	24.08
558.975	21.08
559.098	22.08
559.22	3.08
559.343	8.08
559.466	9.08
559.589	5.08
559.712	3.08
559.834	28.08
559.957	18.08
560.08	12.08
560.203	14.08
560.325	4.08
560.448	36.08
560.571	15.08
560.694	2.08
560.817	16.08
560.939	12.08
561.062	8.08
561.185	22.08
561.308	15.08
561.43	11.08
561.553	13.08
561.676	4.08
561.799	6.08
561.921	-1.92
562.044	0.08
562.167	11.08
562.29	31.08
562.413	11.08
562.535	11.08
562.658	-0.92
562.781	-1.92
562.903	-1.92
563.026	13.08
563.149	23.08
563.272	2.08
563.394	8.08
563.517	10.08
563.64	-11.92
563.763	-2.92
563.885	11.08
564.008	22.08
564.131	34.08
564.254	9.08
564.376	20.08
564.499	2.08
564.622	4.08
564.744	6.08
564.867	8.08
564.99	1.08
565.113	12.08
565.235	26.08
565.358	3.08
565.481	0.08
565.603	-5.92
565.726	3.08
565.849	15.08
565.971	15.08
566.094	0.08
566.217	5.08
566.34	3.08
566.462	6.08
566.585	15.08
566.708	26.08
566.83	15.08
566.953	14.08
567.076	3.08
567.198	21.08
567.321	7.08
567.444	3.08
567.566	17.08
567.689	4.08
567.812	-4.92
567.934	2.08
568.057	-2.92
568.18	-0.92
568.302	3.08
568.425	-0.92
568.548	6.08
568.67	8.08
568.793	18.08
568.916	13.08
569.038	7.08
569.161	18.08
569.283	12.08
569.406	3.08
569.529	-8.92
569.651	-12.92
569.774	-5.92
569.897	-0.92
570.019	28.08
570.142	16.08
570.265	13.08
570.387	11.08
570.51	5.08
570.632	-1.92
570.755	8.08
570.878	9.08
571	24.08
571.123	9.08
571.246	20.08
571.368	2.08
571.491	-16.92
571.613	-10.92
571.736	-12.92
571.859	6.08
571.981	-0.92
572.104	4.08
572.226	11.08
572.349	-6.92
572.472	27.08
572.594	17.08
572.717	18.08
572.839	2.08
572.962	24.08
573.085	30.08
573.207	21.08
573.33	0.08
573.452	22.08
573.575	36.08
573.697	15.08
573.82	20.08
573.943	20.08
574.065	10.08
574.188	12.08
574.31	26.08
574.433	27.08
574.555	11.08
574.678	16.08
574.801	11.08
574.923	4.08
575.046	6.08
575.168	8.08
575.291	3.08
575.413	3.08
575.536	8.08
575.659	7.08
575.781	-12.92
575.904	13.08
576.026	18.08
576.149	3.08
576.271	7.08
576.394	11.08
576.516	-2.92
576.639	21.08
576.761	-6.92
576.884	2.08
577.007	9.08
577.129	11.08
577.252	0.08
577.374	15.08
577.497	-3.92
577.619	2.08
577.742	-13.92
577.864	19.08
577.987	7.08
578.109	14.08
578.232	19.08
578.354	22.08
578.477	3.08
578.599	0.08
578.722	-7.92
578.844	0.08
578.967	6.08
579.089	19.08
579.212	-2.92
579.334	5.08
579.457	2.08
579.579	14.08
579.702	-0.92
579.824	2.08
579.947	-16.92
580.069	-3.92
580.192	-13.92
580.314	14.08
580.437	19.08
580.559	36.08
580.682	35.08
580.804	30.08
580.927	21.08
581.049	31.08
581.172	35.08
581.294	38.08
581.417	6.08
581.539	17.08
581.662	30.08
581.784	24.08
581.907	21.08
582.029	23.08
582.152	-9.92
582.274	3.08
582.396	0.08
582.519	11.08
582.641	-8.92
582.764	9.08
582.886	10.08
583.009	-5.92
583.131	-2.92
583.254	-6.92
583.376	13.08
583.499	14.08
583.621	23.08
583.743	23.08
583.866	7.08
583.988	8.08
584.111	18.08
584.233	20.08
584.356	27.08
584.478	2.08
584.601	-9.92
584.723	4.08
584.845	30.08
584.968	18.08
585.09	-12.92
585.213	19.08
585.335	3.08
585.458	1.08
585.58	14.08
585.702	36.08
585.825	16.08
585.947	-3.92
586.07	12.08
586.192	0.08
586.315	22.08
586.437	-2.92
586.559	-11.92
586.682	-3.92
586.804	20.08
586.927	13.08
587.049	17.08
587.171	26.08
587.294	6.08
587.416	23.08
587.539	2.08
587.661	-3.92
587.783	-6.92
587.906	0.08
588.028	5.08
588.151	19.08
588.273	32.08
588.395	8.08
588.518	-2.92
588.64	8.08
588.763	22.08
588.885	12.08
589.007	14.08
589.13	3.08
589.252	-4.92
589.375	11.08
589.497	-8.92
589.619	30.08
589.742	-1.92
589.864	28.08
589.986	15.08
590.109	-5.92
590.231	-1.92
590.354	24.08
590.476	3.08
590.598	9.08
590.721	-6.92
590.843	10.08
590.965	19.08
591.088	35.08
591.21	24.08
591.332	10.08
591.455	-6.92
591.577	2.08
591.7	4.08
591.822	2.08
591.944	24.08
592.067	22.08
592.189	17.08
592.311	11.08
592.434	12.08
592.556	25.08
592.678	12.08
592.801	10.08
592.923	4.08
593.045	14.08
593.168	-12.92
593.29	7.08
593.412	10.08
593.535	7.08
593.657	30.08
593.779	26.08
593.902	25.08
594.024	11.08
594.146	26.08
594.269	15.08
594.391	-2.92
594.513	10.08
594.636	10.08
594.758	9.08
594.88	16.08
595.003	8.08
595.125	2.08
595.247	10.08
595.37	19.08
595.492	7.08
595.614	21.08
595.737	8.08
595.859	12.08
595.981	10.08
596.104	7.08
596.226	-1.92
596.348	7.08
596.471	-2.92
596.593	6.08
596.715	-3.92
596.838	12.08
596.96	7.08
597.082	11.08
597.204	3.08
597.327	14.08
597.449	8.08
597.571	10.08
597.694	14.08
597.816	12.08
597.938	16.08
598.061	-3.92
598.183	5.08
598.305	15.08
598.427	4.08
598.55	0.08
598.672	13.08
598.794	15.08
598.917	16.08
599.039	4.08
599.161	8.08
599.283	3.08
599.406	30.08
599.528	10.08
599.65	26.08
599.773	15.08
599.895	32.08
600.017	28.08
600.139	7.08
600.262	-11.92
600.384	10.08
600.506	10.08
600.628	18.08
600.751	18.08
600.873	11.08
600.995	10.08
601.118	32.08
601.24	12.08
601.362	32.08
601.484	31.08
601.607	15.08
601.729	-4.92
601.851	8.08
601.973	0.08
602.096	30.08
602.218	23.08
602.34	12.08
602.462	23.08
602.585	12.08
602.707	11.08
602.829	19.08
602.951	9.08
603.074	-0.92
603.196	15.08
603.318	13.08
603.44	15.08
603.563	7.08
603.685	-0.92
603.807	29.08
603.929	15.08
604.052	11.08
604.174	19.08
604.296	18.08
604.418	10.08
604.541	31.08
604.663	-4.92
604.785	11.08
604.907	23.08
605.03	6.08
605.152	21.08
605.274	10.08
605.396	10.08
605.519	0.08
605.641	3.08
605.763	4.08
605.885	21.08
606.008	6.08
606.13	5.08
606.252	15.08
606.374	-8.92
606.496	-6.92
606.619	10.08
606.741	22.08
606.863	24.08
606.985	34.08
607.108	10.08
607.23	6.08
607.352	-3.92
607.474	13.08
607.596	2.08
607.719	-0.92
607.841	26.08
607.963	18.08
608.085	18.08
608.207	36.08
608.33	14.08
608.452	13.08
608.574	8.08
608.696	23.08
608.819	8.08
608.941	25.08
609.063	7.08
609.185	-0.92
609.307	17.08
609.43	18.08
609.552	3.08
609.674	6.08
609.796	14.08
609.918	8.08
610.041	5.08
610.163	16.08
610.285	4.08
610.407	6.08
610.529	-7.92
610.652	7.08
610.774	27.08
610.896	12.08
611.018	3.08
611.14	12.08
611.263	3.08
611.385	2.08
611.507	-5.92
611.629	-11.92
611.751	10.08
611.873	19.08
611.996	20.08
612.118	5.08
612.24	13.08
612.362	21.08
612.484	10.08
612.607	22.08
612.729	22.08
612.851	24.08
612.973	4.08
613.095	6.08
613.218	-1.92
613.34	3.08
613.462	9.08
613.584	9.08
613.706	22.08
613.828	32.08
613.951	21.08
614.073	-9.92
614.195	-1.92
614.317	25.08
614.439	2.08
614.561	21.08
614.684	-0.92
614.806	10.08
614.928	25.08
615.05	14.08
615.172	16.08
615.294	13.08
615.417	2.08
615.539	-4.92
615.661	17.08
615.783	25.08
615.905	29.08
616.027	46.08
616.15	113.08
616.272	75.08
616.394	44.08
616.516	25.08
616.638	22.08
616.76	4.08
616.883	14.08
617.005	20.08
617.127	-2.92
617.249	22.08
617.371	-5.92
617.493	10.08
617.615	11.08
617.738	9.08
617.86	-0.92
617.982	13.08
618.104	4.08
618.226	0.08
618.348	-8.92
618.471	2.08
618.593	24.08
618.715	-1.92
618.837	9.08
618.959	23.08
619.081	26.08
619.203	1.08
619.326	6.08
619.448	7.08
619.57	10.08
619.692	21.08
619.814	21.08
619.936	12.08
620.058	30.08
620.181	15.08
620.303	1.08
620.425	23.08
620.547	2.08
620.669	0.08
620.791	4.08
620.913	9.08
621.036	-13.92
621.158	16.08
621.28	0.08
621.402	-4.92
621.524	2.08
621.646	12.08
621.768	-1.92
621.891	-3.92
622.013	12.08
622.135	-19.92
622.257	-11.92
622.379	4.08
622.501	-3.92
622.623	0.08
622.745	19.08
622.868	16.08
622.99	6.08
623.112	1.08
623.234	2.08
623.356	8.08
623.478	1.08
623.6	3.08
623.722	-11.92
623.845	3.08
623.967	-4.92
624.089	9.08
624.211	-0.92
624.333	18.08
624.455	13.08
624.577	9.08
624.699	12.08
624.822	8.08
624.944	-9.92
625.066	15.08
625.188	-0.92
625.31	0.08
625.432	35.08
625.554	4.08
625.676	20.08
625.799	4.08
625.921	2.08
626.043	2.08
626.165	22.08
626.287	-19.92
626.409	-0.92
626.531	-2.92
626.653	20.08
626.775	26.08
626.898	1.08
627.02	3.08
627.142	20.08
627.264	18.08
627.386	-1.92
627.508	2.08
627.63	5.08
627.752	15.08
627.874	34.08
627.997	23.08
628.119	24.08
628.241	20.08
628.363	13.08
628.485	32.08
628.607	10.08
628.729	-3.92
628.851	-10.92
628.973	1.08
629.096	-6.92
629.218	18.08
629.34	13.08
629.462	-5.92
629.584	0.08
629.706	3.08
629.828	22.08
629.95	-1.92
630.072	3.08
630.195	1.08
630.317	3.08
630.439	5.08
630.561	25.08
630.683	-1.92
630.805	32.08
630.927	42.08
631.049	10.08
631.171	-7.92
631.293	8.08
631.416	10.08
631.538	0.08
631.66	8.08
631.782	20.08
631.904	7.08
632.026	2.08
632.148	10.08
632.27	1.08
632.392	6.08
632.514	9.08
632.637	12.08
632.759	-3.92
632.881	-7.92
633.003	-6.92
633.125	-0.92
633.247	7.08
633.369	-0.92
633.491	4.08
633.613	25.08
633.735	-11.92
633.858	5.08
633.98	0.08
634.102	-14.92
634.224	2.08
634.346	4.08
634.468	-10.92
634.59	-0.92
634.712	-5.92
634.834	19.08
634.956	-8.92
635.078	-8.92
635.201	4.08
635.323	12.08
635.445	-6.92
635.567	-8.92
635.689	7.08
635.811	14.08
635.933	13.08
636.055	-1.92
636.177	9.08
636.299	19.08
636.421	-6.92
636.544	-3.92
636.666	15.08
636.788	20.08
636.91	16.08
637.032	7.08
637.154	8.08
637.276	46.08
637.398	20.08
637.52	20.08
637.642	11.08
637.764	6.08
637.887	1.08
638.009	3.08
638.131	26.08
638.253	11.08
638.375	15.08
638.497	14.08
638.619	-1.92
638.741	-3.92
638.863	-11.92
638.985	-7.92
639.107	8.08
639.23	6.08
639.352	25.08
639.474	10.08
639.596	-0.92
639.718	14.08
639.84	10.08
639.962	20.08
640.084	14.08
640.206	17.08
640.328	-4.92
640.45	4.08
640.573	15.08
640.695	9.08
640.817	9.08
640.939	30.08
641.061	14.08
641.183	1.08
641.305	10.08
641.427	-1.92
641.549	6.08
641.671	1.08
641.793	19.08
641.915	18.08
642.038	9.08
642.16	14.08
642.282	7.08
642.404	-5.92
642.526	3.08
642.648	-6.92
642.77	-13.92
642.892	-4.92
643.014	16.08
643.136	13.08
643.258	-1.92
643.381	26.08
643.503	9.08
643.625	-5.92
643.747	-9.92
643.869	-9.92
643.991	24.08
644.113	2.08
644.235	10.08
644.357	16.08
644.479	17.08
644.601	1.08
644.723	-1.92
644.846	23.08
644.968	0.08
645.09	4.08
645.212	-20.92
645.334	8.08
645.456	10.08
645.578	12.08
645.7	16.08
645.822	0.08
645.944	5.08
646.066	14.08
646.188	-1.92
646.311	19.08
646.433	9.08
646.555	40.08
646.677	28.08
646.799	29.08
646.921	19.08
647.043	31.08
647.165	-12.92
647.287	1.08
647.409	-17.92
647.531	10.08
647.654	-22.92
647.776	2.08
647.898	-7.92
648.02	2.08
648.142	-5.92
648.264	-3.92
648.386	-14.92
648.508	-14.92
648.63	-6.92
648.752	8.08
648.874	19.08
648.997	8.08
649.119	23.08
649.241	-19.92
649.363	15.08
649.485	24.08
649.607	23.08
649.729	8.08
649.851	6.08
649.973	18.08
650.095	18.08
650.217	-5.92
650.34	9.08
650.462	6.08
650.584	11.08
650.706	5.08
650.828	-4.92
650.95	-23.92
651.072	0.08
651.194	4.08
651.316	30.08
651.438	-6.92
651.56	1.08
651.683	-4.92
651.805	2.08
651.927	-11.92
652.049	-4.92
652.171	16.08
652.293	17.08
652.415	-12.92
652.537	-2.92
652.659	10.08
652.781	4.08
652.903	16.08
653.026	29.08
653.148	11.08
653.27	5.08
653.392	0.08
653.514	7.08
653.636	15.08
653.758	-1.92
653.88	-14.92
654.002	7.08
654.124	5.08
654.247	2.08
654.369	25.08
654.491	19.08
654.613	18.08
654.735	3.08
654.857	17.08
654.979	32.08
655.101	17.08
655.223	38.08
655.345	7.08
655.468	18.08
655.59	20.08
655.712	16.08
655.834	12.08
655.956	36.08
656.078	41.08
656.2	48.08
656.322	19.08
656.444	14.08
656.566	33.08
656.689	52.08
656.811	52.08
656.933	104.08
657.055	98.08
657.177	154.08
657.299	244.08
657.421	490.08
657.543	1828.08
657.665	12528.08
657.787	15165.08
657.91	15245.08
658.032	15661.08
658.154	4643.08
658.276	3348.08
658.398	1130.08
658.52	1023.08
658.642	472.08
658.764	598.08
658.886	263.08
659.009	398.08
659.131	227.08
659.253	314.08
659.375	151.08
659.497	234.08
659.619	134.08
659.741	198.08
659.863	82.08
659.985	158.08
660.108	99.08
660.23	146.08
660.352	87.08
660.474	151.08
660.596	82.08
660.718	123.08
660.84	63.08
660.962	110.08
661.084	47.08
661.207	84.08
661.329	48.08
661.451	91.08
661.573	20.08
661.695	110.08
661.817	40.08
661.939	102.08
662.061	59.08
662.184	59.08
662.306	43.08
662.428	80.08
662.55	56.08
662.672	59.08
662.794	43.08
662.916	57.08
663.038	18.08
663.161	81.08
663.283	59.08
663.405	76.08
663.527	28.08
663.649	58.08
663.771	26.08
663.893	56.08
664.015	44.08
664.138	64.08
664.26	31.08
664.382	57.08
664.504	19.08
664.626	36.08
664.748	18.08
664.87	45.08
664.992	27.08
665.115	39.08
665.237	30.08
665.359	26.08
665.481	20.08
665.603	50.08
665.725	7.08
665.847	30.08
665.97	18.08
666.092	61.08
666.214	38.08
666.336	48.08
666.458	28.08
666.58	40.08
666.702	24.08
666.825	35.08
666.947	7.08
667.069	42.08
667.191	13.08
667.313	21.08
667.435	14.08
667.557	15.08
667.68	10.08
667.802	34.08
667.924	20.08
668.046	40.08
668.168	17.08
668.29	29.08
668.412	7.08
668.535	34.08
668.657	19.08
668.779	46.08
668.901	15.08
669.023	41.08
669.145	20.08
669.267	44.08
669.39	25.08
669.512	20.08
669.634	12.08
669.756	8.08
669.878	13.08
670	30.08
670.123	9.08
670.245	13.08
670.367	12.08
670.489	39.08
670.611	13.08
670.733	21.08
670.856	3.08
670.978	19.08
671.1	33.08
671.222	39.08
671.344	8.08
671.466	13.08
671.589	0.08
671.711	9.08
671.833	5.08
671.955	21.08
672.077	12.08
672.199	37.08
672.322	32.08
672.444	22.08
672.566	37.08
672.688	13.08
672.81	19.08
672.932	30.08
673.055	0.08
673.177	5.08
673.299	30.08
673.421	12.08
673.543	4.08
673.665	28.08
673.788	19.08
673.91	14.08
674.032	-5.92
674.154	27.08
674.276	12.08
674.399	6.08
674.521	7.08
674.643	19.08
674.765	6.08
674.887	15.08
675.009	14.08
675.132	-9.92
675.254	1.08
675.376	30.08
675.498	4.08
675.62	25.08
675.743	-5.92
675.865	22.08
675.987	-9.92
676.109	26.08
676.231	15.08
676.354	41.08
676.476	1.08
676.598	21.08
676.72	18.08
676.842	30.08
676.965	8.08
677.087	17.08
677.209	17.08
677.331	22.08
677.453	8.08
677.576	13.08
677.698	-1.92
677.82	-5.92
677.942	3.08
678.064	10.08
678.187	22.08
678.309	16.08
678.431	-14.92
678.553	3.08
678.675	32.08
678.798	27.08
678.92	16.08
679.042	22.08
679.164	7.08
679.286	26.08
679.409	11.08
679.531	-12.92
679.653	0.08
679.775	8.08
679.898	7.08
680.02	2.08
680.142	-3.92
680.264	5.08
680.386	1.08
680.509	21.08
680.631	11.08
680.753	25.08
680.875	1.08
680.998	18.08
681.12	1.08
681.242	25.08
681.364	-3.92
681.486	10.08
681.609	-8.92
681.731	-1.92
681.853	15.08
681.975	-17.92
682.098	12.08
682.22	30.08
682.342	8.08
682.464	22.08
682.587	17.08
682.709	20.08
682.831	3.08
682.953	4.08
683.076	4.08
683.198	29.08
683.32	3.08
683.442	15.08
683.565	22.08
683.687	20.08
683.809	0.08
683.931	-24.92
684.054	5.08
684.176	3.08
684.298	6.08
684.42	7.08
684.543	-1.92
684.665	12.08
684.787	6.08
684.909	12.08
685.032	25.08
685.154	-3.92
685.276	9.08
685.398	-3.92
685.521	-10.92
685.643	8.08
685.765	25.08
685.887	22.08
686.01	7.08
686.132	-0.92
686.254	16.08
686.377	21.08
686.499	17.08
686.621	3.08
686.743	13.08
686.866	15.08
686.988	30.08
687.11	19.08
687.232	31.08
687.355	-1.92
687.477	-4.92
687.599	-3.92
687.722	-1.92
687.844	15.08
687.966	1.08
688.088	20.08
688.211	23.08
688.333	32.08
688.455	22.08
688.578	23.08
688.7	10.08
688.822	9.08
688.944	-11.92
689.067	38.08
689.189	13.08
689.311	-8.92
689.434	-4.92
689.556	10.08
689.678	25.08
689.801	14.08
689.923	-0.92
690.045	34.08
690.167	24.08
690.29	21.08
690.412	4.08
690.534	5.08
690.657	6.08
690.779	11.08
690.901	2.08
691.024	11.08
691.146	3.08
691.268	1.08
691.391	10.08
691.513	7.08
691.635	20.08
691.758	38.08
691.88	22.08
692.002	-1.92
692.125	19.08
692.247	5.08
692.369	-0.92
692.492	-6.92
692.614	12.08
692.736	-1.92
692.859	-0.92
692.981	5.08
693.103	0.08
693.226	19.08
693.348	20.08
693.47	-5.92
693.593	-10.92
693.715	-5.92
693.837	-7.92
693.96	-7.92
694.082	-5.92
694.204	19.08
694.327	3.08
694.449	-12.92
694.571	18.08
694.694	19.08
694.816	12.08
694.938	0.08
695.061	11.08
695.183	17.08
695.305	-7.92
695.428	-5.92
695.55	0.08
695.672	0.08
695.795	4.08
695.917	19.08
696.04	-6.92
696.162	24.08
696.284	18.08
696.407	8.08
696.529	13.08
696.651	23.08
696.774	7.08
696.896	27.08
697.019	7.08
697.141	7.08
697.263	8.08
697.386	17.08
697.508	32.08
697.63	23.08
697.753	12.08
697.875	9.08
697.998	-10.92
698.12	14.08
698.242	-10.92
698.365	-4.92
698.487	8.08
698.61	15.08
698.732	-0.92
698.854	11.08
698.977	4.08
699.099	18.08
699.221	3.08
699.344	2.08
699.466	-5.92
699.589	-7.92
699.711	5.08
699.834	8.08
699.956	6.08
700.078	13.08
700.201	9.08
700.323	17.08
700.446	10.08
700.568	22.08
700.69	5.08
700.813	24.08
700.935	12.08
701.058	10.08
701.18	5.08
701.302	-6.92
701.425	-10.92
701.547	16.08
701.67	-12.92
701.792	0.08
701.915	-9.92
702.037	11.08
702.159	5.08
702.282	-2.92
702.404	-4.92
702.527	5.08
702.649	21.08
702.772	33.08
702.894	26.08
703.017	14.08
703.139	15.08
703.261	15.08
703.384	12.08
703.506	-15.92
703.629	6.08
703.751	9.08
703.874	9.08
703.996	0.08
704.119	-13.92
704.241	11.08
704.364	-27.92
704.486	5.08
704.608	12.08
704.731	-5.92
704.853	13.08
704.976	-6.92
705.098	34.08
705.221	3.08
705.343	2.08
705.466	7.08
705.588	4.08
705.711	27.08
705.833	21.08
705.956	-5.92
706.078	13.08
706.201	10.08
706.323	-1.92
706.446	14.08
