Data from LowRes_H2_15_26_11_07_2024_HR4C61881__100__15-28-23-636.txt Node

Date: Thu Nov 07 15:28:23 EST 2024
User: crc00042
Spectrometer: HR4C6188
Trigger mode: 4
Integration Time (sec): 1.000000E-1
Scans to average: 1
Electric dark correction enabled: true
Nonlinearity correction enabled: false
Boxcar width: 0
XAxis mode: Wavelengths
Number of Pixels in Spectrum: 3648
>>>>>Begin Spectral Data<<<<<
245.66	-75.08
245.797	-75.08
245.934	-75.08
246.071	-73.08
246.208	30.92
246.344	14.92
246.481	7.92
246.618	-22.08
246.755	14.92
246.892	-8.08
247.029	-12.08
247.165	-18.08
247.302	15.92
247.439	5.92
247.576	13.92
247.713	-24.08
247.849	24.92
247.986	-14.08
248.123	14.92
248.26	0.92
248.396	13.92
248.533	-13.08
248.67	0.92
248.806	16.92
248.943	-3.08
249.08	3.92
249.216	22.92
249.353	-0.08
249.49	-1.08
249.626	17.92
249.763	16.92
249.9	-11.08
250.036	1.92
250.173	14.92
250.309	-1.08
250.446	9.92
250.582	-1.08
250.719	6.92
250.856	3.92
250.992	9.92
251.129	0.92
251.265	-4.08
251.402	20.92
251.538	12.92
251.675	10.92
251.811	26.92
251.948	22.92
252.084	12.92
252.221	22.92
252.357	14.92
252.493	19.92
252.63	19.92
252.766	13.92
252.903	12.92
253.039	2.92
253.175	-11.08
253.312	19.92
253.448	-3.08
253.585	-20.08
253.721	6.92
253.857	9.92
253.994	30.92
254.13	4.92
254.266	14.92
254.403	5.92
254.539	3.92
254.675	22.92
254.811	15.92
254.948	17.92
255.084	11.92
255.22	-12.08
255.356	-1.08
255.493	21.92
255.629	2.92
255.765	27.92
255.901	30.92
256.037	5.92
256.174	23.92
256.31	4.92
256.446	-0.08
256.582	9.92
256.718	23.92
256.854	16.92
256.991	14.92
257.127	22.92
257.263	5.92
257.399	23.92
257.535	13.92
257.671	1.92
257.807	-0.08
257.943	0.92
258.079	-20.08
258.215	-8.08
258.351	28.92
258.487	12.92
258.623	37.92
258.759	14.92
258.895	-6.08
259.031	7.92
259.167	10.92
259.303	31.92
259.439	3.92
259.575	14.92
259.711	10.92
259.847	23.92
259.983	24.92
260.119	3.92
260.255	4.92
260.391	24.92
260.527	18.92
260.663	21.92
260.799	21.92
260.934	7.92
261.07	-5.08
261.206	-5.08
261.342	-13.08
261.478	9.92
261.614	17.92
261.749	5.92
261.885	-8.08
262.021	15.92
262.157	19.92
262.293	9.92
262.428	11.92
262.564	20.92
262.7	10.92
262.836	13.92
262.971	30.92
263.107	25.92
263.243	29.92
263.378	12.92
263.514	-7.08
263.65	14.92
263.785	-6.08
263.921	9.92
264.057	-1.08
264.192	24.92
264.328	18.92
264.464	0.92
264.599	9.92
264.735	27.92
264.871	-8.08
265.006	25.92
265.142	2.92
265.277	14.92
265.413	28.92
265.548	37.92
265.684	18.92
265.819	-3.08
265.955	-16.08
266.091	3.92
266.226	-1.08
266.362	12.92
266.497	6.92
266.633	-3.08
266.768	-8.08
266.903	29.92
267.039	18.92
267.174	19.92
267.31	-0.08
267.445	6.92
267.581	17.92
267.716	23.92
267.851	2.92
267.987	11.92
268.122	30.92
268.258	-9.08
268.393	6.92
268.528	19.92
268.664	0.92
268.799	1.92
268.934	5.92
269.07	1.92
269.205	5.92
269.34	22.92
269.476	3.92
269.611	-7.08
269.746	28.92
269.881	11.92
270.017	21.92
270.152	15.92
270.287	19.92
270.422	11.92
270.558	-12.08
270.693	12.92
270.828	-15.08
270.963	-1.08
271.098	1.92
271.234	-7.08
271.369	27.92
271.504	8.92
271.639	-7.08
271.774	10.92
271.909	-1.08
272.045	-17.08
272.18	4.92
272.315	4.92
272.45	20.92
272.585	-6.08
272.72	9.92
272.855	28.92
272.99	13.92
273.125	5.92
273.26	-5.08
273.395	11.92
273.53	-6.08
273.665	20.92
273.8	10.92
273.935	37.92
274.07	17.92
274.205	20.92
274.34	14.92
274.475	12.92
274.61	24.92
274.745	-0.08
274.88	34.92
275.015	-1.08
275.15	5.92
275.285	13.92
275.42	7.92
275.555	30.92
275.69	3.92
275.825	8.92
275.959	14.92
276.094	13.92
276.229	7.92
276.364	-16.08
276.499	5.92
276.634	9.92
276.768	7.92
276.903	7.92
277.038	16.92
277.173	15.92
277.308	-15.08
277.442	-3.08
277.577	-9.08
277.712	2.92
277.847	15.92
277.981	12.92
278.116	-16.08
278.251	-2.08
278.386	16.92
278.52	10.92
278.655	-9.08
278.79	4.92
278.924	17.92
279.059	18.92
279.194	3.92
279.328	51.92
279.463	14.92
279.598	24.92
279.732	7.92
279.867	0.92
280.001	1.92
280.136	-9.08
280.271	2.92
280.405	23.92
280.54	4.92
280.674	13.92
280.809	17.92
280.943	26.92
281.078	18.92
281.213	32.92
281.347	22.92
281.482	4.92
281.616	1.92
281.751	-3.08
281.885	-19.08
282.02	2.92
282.154	10.92
282.288	-26.08
282.423	-7.08
282.557	-16.08
282.692	10.92
282.826	8.92
282.961	15.92
283.095	9.92
283.229	-3.08
283.364	-6.08
283.498	0.92
283.633	-1.08
283.767	-0.08
283.901	11.92
284.036	0.92
284.17	8.92
284.304	6.92
284.439	14.92
284.573	17.92
284.707	23.92
284.842	-2.08
284.976	-23.08
285.11	-22.08
285.244	13.92
285.379	47.92
285.513	9.92
285.647	8.92
285.781	6.92
285.916	10.92
286.05	14.92
286.184	29.92
286.318	24.92
286.453	-14.08
286.587	-21.08
286.721	13.92
286.855	10.92
286.989	9.92
287.123	20.92
287.258	5.92
287.392	18.92
287.526	14.92
287.66	7.92
287.794	-2.08
287.928	17.92
288.062	18.92
288.196	8.92
288.33	10.92
288.464	10.92
288.598	18.92
288.733	18.92
288.867	8.92
289.001	12.92
289.135	21.92
289.269	0.92
289.403	22.92
289.537	-1.08
289.671	11.92
289.805	-5.08
289.939	36.92
290.073	2.92
290.207	15.92
290.34	-2.08
290.474	22.92
290.608	8.92
290.742	-1.08
290.876	-3.08
291.01	10.92
291.144	25.92
291.278	40.92
291.412	24.92
291.546	-2.08
291.679	-7.08
291.813	-9.08
291.947	21.92
292.081	10.92
292.215	-5.08
292.349	26.92
292.482	13.92
292.616	-0.08
292.75	15.92
292.884	8.92
293.018	5.92
293.151	3.92
293.285	17.92
293.419	-4.08
293.553	0.92
293.686	-0.08
293.82	3.92
293.954	34.92
294.088	30.92
294.221	1.92
294.355	-19.08
294.489	14.92
294.622	0.92
294.756	8.92
294.89	4.92
295.023	1.92
295.157	16.92
295.291	11.92
295.424	25.92
295.558	14.92
295.691	18.92
295.825	-0.08
295.959	6.92
296.092	-9.08
296.226	6.92
296.359	2.92
296.493	11.92
296.627	1.92
296.76	-4.08
296.894	8.92
297.027	21.92
297.161	-6.08
297.294	4.92
297.428	12.92
297.561	35.92
297.695	8.92
297.828	0.92
297.962	-8.08
298.095	-5.08
298.229	23.92
298.362	-25.08
298.495	6.92
298.629	3.92
298.762	11.92
298.896	10.92
299.029	-11.08
299.162	-17.08
299.296	12.92
299.429	-2.08
299.563	8.92
299.696	8.92
299.829	11.92
299.963	32.92
300.096	37.92
300.229	16.92
300.363	1.92
300.496	1.92
300.629	-14.08
300.763	14.92
300.896	-7.08
301.029	11.92
301.162	-16.08
301.296	-9.08
301.429	13.92
301.562	-14.08
301.695	4.92
301.829	5.92
301.962	8.92
302.095	21.92
302.228	-7.08
302.362	-16.08
302.495	-7.08
302.628	13.92
302.761	-6.08
302.894	1.92
303.027	34.92
303.161	-7.08
303.294	0.92
303.427	23.92
303.56	8.92
303.693	-0.08
303.826	2.92
303.959	2.92
304.092	-17.08
304.225	-10.08
304.359	7.92
304.492	14.92
304.625	14.92
304.758	25.92
304.891	6.92
305.024	8.92
305.157	1.92
305.29	-0.08
305.423	3.92
305.556	15.92
305.689	15.92
305.822	-3.08
305.955	-6.08
306.088	6.92
306.221	8.92
306.354	2.92
306.487	13.92
306.62	6.92
306.752	-6.08
306.885	6.92
307.018	5.92
307.151	23.92
307.284	17.92
307.417	8.92
307.55	15.92
307.683	-4.08
307.816	20.92
307.948	1.92
308.081	2.92
308.214	0.92
308.347	25.92
308.48	2.92
308.613	-13.08
308.745	11.92
308.878	-22.08
309.011	4.92
309.144	12.92
309.277	-1.08
309.409	10.92
309.542	4.92
309.675	15.92
309.808	-9.08
309.94	15.92
310.073	-16.08
310.206	-9.08
310.339	26.92
310.471	-9.08
310.604	27.92
310.737	-5.08
310.869	5.92
311.002	8.92
311.135	3.92
311.267	-6.08
311.4	4.92
311.533	32.92
311.665	1.92
311.798	5.92
311.93	9.92
312.063	8.92
312.196	8.92
312.328	9.92
312.461	-5.08
312.593	9.92
312.726	22.92
312.859	9.92
312.991	14.92
313.124	-24.08
313.256	14.92
313.389	7.92
313.521	-2.08
313.654	-7.08
313.786	-16.08
313.919	0.92
314.051	25.92
314.184	26.92
314.316	-13.08
314.449	-34.08
314.581	-3.08
314.714	0.92
314.846	22.92
314.978	-8.08
315.111	-11.08
315.243	13.92
315.376	-3.08
315.508	17.92
315.641	12.92
315.773	13.92
315.905	9.92
316.038	-5.08
316.17	12.92
316.302	15.92
316.435	6.92
316.567	-1.08
316.699	33.92
316.832	5.92
316.964	7.92
317.096	-10.08
317.229	1.92
317.361	-26.08
317.493	-4.08
317.625	8.92
317.758	12.92
317.89	10.92
318.022	-2.08
318.155	14.92
318.287	12.92
318.419	14.92
318.551	14.92
318.683	18.92
318.816	0.92
318.948	0.92
319.08	-4.08
319.212	17.92
319.344	3.92
319.477	11.92
319.609	7.92
319.741	26.92
319.873	7.92
320.005	23.92
320.137	8.92
320.269	4.92
320.401	-2.08
320.534	11.92
320.666	-14.08
320.798	-11.08
320.93	-2.08
321.062	-3.08
321.194	-5.08
321.326	10.92
321.458	7.92
321.59	14.92
321.722	-0.08
321.854	18.92
321.986	-7.08
322.118	20.92
322.25	-0.08
322.382	11.92
322.514	10.92
322.646	5.92
322.778	25.92
322.91	18.92
323.042	7.92
323.174	13.92
323.306	-3.08
323.438	-24.08
323.57	-1.08
323.702	5.92
323.834	0.92
323.966	-5.08
324.097	16.92
324.229	17.92
324.361	12.92
324.493	16.92
324.625	13.92
324.757	17.92
324.889	-8.08
325.021	4.92
325.152	22.92
325.284	30.92
325.416	16.92
325.548	31.92
325.68	7.92
325.811	24.92
325.943	21.92
326.075	-2.08
326.207	11.92
326.339	14.92
326.47	9.92
326.602	16.92
326.734	11.92
326.866	19.92
326.997	-6.08
327.129	-11.08
327.261	-3.08
327.392	6.92
327.524	16.92
327.656	15.92
327.787	21.92
327.919	6.92
328.051	1.92
328.182	18.92
328.314	16.92
328.446	10.92
328.577	20.92
328.709	16.92
328.841	-20.08
328.972	-4.08
329.104	8.92
329.235	25.92
329.367	2.92
329.499	7.92
329.63	8.92
329.762	5.92
329.893	34.92
330.025	11.92
330.156	-16.08
330.288	2.92
330.419	10.92
330.551	14.92
330.683	8.92
330.814	-0.08
330.946	25.92
331.077	-2.08
331.208	-11.08
331.34	2.92
331.471	-1.08
331.603	16.92
331.734	4.92
331.866	15.92
331.997	13.92
332.129	-3.08
332.26	0.92
332.392	27.92
332.523	5.92
332.654	-3.08
332.786	-8.08
332.917	1.92
333.048	7.92
333.18	21.92
333.311	4.92
333.443	-5.08
333.574	15.92
333.705	21.92
333.837	-2.08
333.968	8.92
334.099	18.92
334.231	18.92
334.362	5.92
334.493	13.92
334.624	18.92
334.756	17.92
334.887	12.92
335.018	30.92
335.15	13.92
335.281	10.92
335.412	25.92
335.543	10.92
335.675	14.92
335.806	22.92
335.937	-8.08
336.068	24.92
336.199	28.92
336.331	11.92
336.462	5.92
336.593	18.92
336.724	4.92
336.855	10.92
336.986	30.92
337.118	32.92
337.249	3.92
337.38	25.92
337.511	7.92
337.642	9.92
337.773	20.92
337.904	7.92
338.035	21.92
338.166	11.92
338.298	-2.08
338.429	1.92
338.56	16.92
338.691	30.92
338.822	15.92
338.953	11.92
339.084	12.92
339.215	18.92
339.346	7.92
339.477	11.92
339.608	13.92
339.739	9.92
339.87	11.92
340.001	-6.08
340.132	19.92
340.263	9.92
340.394	12.92
340.525	12.92
340.656	3.92
340.787	-2.08
340.918	35.92
341.049	33.92
341.179	-0.08
341.31	9.92
341.441	17.92
341.572	22.92
341.703	17.92
341.834	18.92
341.965	24.92
342.096	1.92
342.227	18.92
342.357	0.92
342.488	16.92
342.619	10.92
342.75	17.92
342.881	-1.08
343.012	28.92
343.142	35.92
343.273	7.92
343.404	13.92
343.535	39.92
343.666	32.92
343.796	16.92
343.927	29.92
344.058	24.92
344.189	24.92
344.319	23.92
344.45	11.92
344.581	-0.08
344.712	0.92
344.842	6.92
344.973	-1.08
345.104	-1.08
345.234	-3.08
345.365	-27.08
345.496	-6.08
345.626	13.92
345.757	17.92
345.888	6.92
346.018	29.92
346.149	20.92
346.28	16.92
346.41	7.92
346.541	-5.08
346.672	5.92
346.802	5.92
346.933	3.92
347.063	-0.08
347.194	11.92
347.325	23.92
347.455	30.92
347.586	12.92
347.716	6.92
347.847	21.92
347.977	18.92
348.108	27.92
348.238	8.92
348.369	15.92
348.499	2.92
348.63	-1.08
348.76	2.92
348.891	7.92
349.021	34.92
349.152	18.92
349.282	14.92
349.413	4.92
349.543	15.92
349.674	3.92
349.804	-2.08
349.935	0.92
350.065	19.92
350.196	-0.08
350.326	-5.08
350.456	-7.08
350.587	42.92
350.717	10.92
350.848	12.92
350.978	10.92
351.108	-2.08
351.239	19.92
351.369	4.92
351.499	4.92
351.63	29.92
351.76	13.92
351.89	2.92
352.021	22.92
352.151	1.92
352.281	6.92
352.412	19.92
352.542	10.92
352.672	5.92
352.803	19.92
352.933	14.92
353.063	13.92
353.193	8.92
353.324	14.92
353.454	13.92
353.584	13.92
353.714	9.92
353.845	4.92
353.975	12.92
354.105	24.92
354.235	9.92
354.365	4.92
354.496	12.92
354.626	7.92
354.756	35.92
354.886	14.92
355.016	-9.08
355.146	10.92
355.277	7.92
355.407	-10.08
355.537	-2.08
355.667	19.92
355.797	3.92
355.927	0.92
356.057	13.92
356.187	3.92
356.318	15.92
356.448	9.92
356.578	2.92
356.708	6.92
356.838	-9.08
356.968	1.92
357.098	5.92
357.228	17.92
357.358	-1.08
357.488	3.92
357.618	16.92
357.748	19.92
357.878	14.92
358.008	13.92
358.138	5.92
358.268	1.92
358.398	17.92
358.528	-8.08
358.658	5.92
358.788	3.92
358.918	1.92
359.048	10.92
359.178	14.92
359.308	19.92
359.438	23.92
359.568	23.92
359.698	9.92
359.827	11.92
359.957	9.92
360.087	18.92
360.217	4.92
360.347	-1.08
360.477	14.92
360.607	-6.08
360.737	23.92
360.866	-0.08
360.996	-4.08
361.126	-10.08
361.256	16.92
361.386	9.92
361.516	30.92
361.645	-1.08
361.775	14.92
361.905	-15.08
362.035	-3.08
362.165	19.92
362.294	23.92
362.424	26.92
362.554	19.92
362.684	14.92
362.813	23.92
362.943	11.92
363.073	16.92
363.203	23.92
363.332	16.92
363.462	-3.08
363.592	6.92
363.721	-13.08
363.851	10.92
363.981	14.92
364.111	-6.08
364.24	-27.08
364.37	23.92
364.5	24.92
364.629	20.92
364.759	2.92
364.888	0.92
365.018	22.92
365.148	19.92
365.277	24.92
365.407	8.92
365.537	18.92
365.666	-3.08
365.796	-5.08
365.925	23.92
366.055	19.92
366.184	12.92
366.314	5.92
366.444	15.92
366.573	13.92
366.703	25.92
366.832	56.92
366.962	0.92
367.091	24.92
367.221	17.92
367.35	25.92
367.48	22.92
367.609	22.92
367.739	14.92
367.868	-1.08
367.998	13.92
368.127	37.92
368.257	25.92
368.386	35.92
368.516	27.92
368.645	12.92
368.775	18.92
368.904	16.92
369.033	0.92
369.163	8.92
369.292	39.92
369.422	26.92
369.551	16.92
369.68	11.92
369.81	20.92
369.939	13.92
370.069	12.92
370.198	15.92
370.327	-6.08
370.457	5.92
370.586	26.92
370.715	5.92
370.845	-4.08
370.974	22.92
371.103	0.92
371.233	27.92
371.362	15.92
371.491	8.92
371.621	27.92
371.75	26.92
371.879	-13.08
372.008	13.92
372.138	13.92
372.267	27.92
372.396	17.92
372.525	19.92
372.655	6.92
372.784	6.92
372.913	2.92
373.042	7.92
373.172	21.92
373.301	-17.08
373.43	5.92
373.559	2.92
373.688	16.92
373.818	18.92
373.947	14.92
374.076	13.92
374.205	-2.08
374.334	-3.08
374.463	1.92
374.593	11.92
374.722	9.92
374.851	50.92
374.98	0.92
375.109	15.92
375.238	18.92
375.367	39.92
375.496	-5.08
375.625	-8.08
375.755	15.92
375.884	37.92
376.013	21.92
376.142	16.92
376.271	0.92
376.4	18.92
376.529	9.92
376.658	19.92
376.787	2.92
376.916	20.92
377.045	8.92
377.174	22.92
377.303	11.92
377.432	18.92
377.561	22.92
377.69	19.92
377.819	31.92
377.948	6.92
378.077	-0.08
378.206	24.92
378.335	7.92
378.464	40.92
378.593	16.92
378.722	6.92
378.851	13.92
378.98	24.92
379.108	-4.08
379.237	-3.08
379.366	14.92
379.495	27.92
379.624	29.92
379.753	8.92
379.882	11.92
380.011	14.92
380.14	-6.08
380.268	19.92
380.397	17.92
380.526	24.92
380.655	-2.08
380.784	-6.08
380.913	-10.08
381.041	24.92
381.17	-12.08
381.299	-2.08
381.428	10.92
381.557	8.92
381.685	16.92
381.814	7.92
381.943	0.92
382.072	13.92
382.2	-2.08
382.329	22.92
382.458	4.92
382.587	17.92
382.715	31.92
382.844	5.92
382.973	10.92
383.102	4.92
383.23	11.92
383.359	-5.08
383.488	26.92
383.616	10.92
383.745	-2.08
383.874	21.92
384.003	-11.08
384.131	-9.08
384.26	9.92
384.389	20.92
384.517	12.92
384.646	-7.08
384.774	1.92
384.903	27.92
385.032	24.92
385.16	10.92
385.289	23.92
385.418	3.92
385.546	26.92
385.675	1.92
385.803	9.92
385.932	2.92
386.06	-8.08
386.189	21.92
386.318	13.92
386.446	6.92
386.575	17.92
386.703	3.92
386.832	2.92
386.96	-4.08
387.089	31.92
387.217	16.92
387.346	4.92
387.474	23.92
387.603	10.92
387.731	10.92
387.86	20.92
387.988	20.92
388.117	31.92
388.245	16.92
388.374	3.92
388.502	3.92
388.631	-3.08
388.759	-0.08
388.888	6.92
389.016	-5.08
389.144	0.92
389.273	13.92
389.401	12.92
389.53	-2.08
389.658	28.92
389.786	-10.08
389.915	5.92
390.043	9.92
390.172	7.92
390.3	22.92
390.428	9.92
390.557	-5.08
390.685	30.92
390.813	17.92
390.942	8.92
391.07	15.92
391.198	12.92
391.327	10.92
391.455	-1.08
391.583	37.92
391.712	9.92
391.84	13.92
391.968	8.92
392.096	12.92
392.225	3.92
392.353	19.92
392.481	-2.08
392.609	24.92
392.738	6.92
392.866	10.92
392.994	10.92
393.122	25.92
393.251	-1.08
393.379	12.92
393.507	-2.08
393.635	4.92
393.764	18.92
393.892	25.92
394.02	16.92
394.148	10.92
394.276	23.92
394.404	36.92
394.533	9.92
394.661	12.92
394.789	21.92
394.917	31.92
395.045	0.92
395.173	6.92
395.302	-11.08
395.43	11.92
395.558	12.92
395.686	22.92
395.814	1.92
395.942	6.92
396.07	10.92
396.198	9.92
396.326	9.92
396.454	16.92
396.582	5.92
396.711	-19.08
396.839	29.92
396.967	14.92
397.095	15.92
397.223	28.92
397.351	11.92
397.479	29.92
397.607	13.92
397.735	12.92
397.863	30.92
397.991	-2.08
398.119	7.92
398.247	13.92
398.375	10.92
398.503	10.92
398.631	-7.08
398.759	14.92
398.887	0.92
399.015	3.92
399.143	5.92
399.271	23.92
399.399	22.92
399.526	19.92
399.654	20.92
399.782	2.92
399.91	42.92
400.038	32.92
400.166	8.92
400.294	0.92
400.422	-6.08
400.55	9.92
400.678	25.92
400.805	16.92
400.933	16.92
401.061	10.92
401.189	0.92
401.317	21.92
401.445	19.92
401.573	19.92
401.7	10.92
401.828	9.92
401.956	5.92
402.084	6.92
402.212	22.92
402.34	14.92
402.467	13.92
402.595	19.92
402.723	9.92
402.851	32.92
402.978	4.92
403.106	15.92
403.234	8.92
403.362	25.92
403.489	14.92
403.617	19.92
403.745	24.92
403.873	5.92
404	1.92
404.128	4.92
404.256	24.92
404.384	31.92
404.511	22.92
404.639	16.92
404.767	6.92
404.894	16.92
405.022	4.92
405.15	22.92
405.277	-0.08
405.405	1.92
405.533	0.92
405.66	3.92
405.788	-5.08
405.916	-18.08
406.043	5.92
406.171	-3.08
406.299	21.92
406.426	13.92
406.554	29.92
406.681	35.92
406.809	18.92
406.937	-2.08
407.064	-2.08
407.192	18.92
407.319	14.92
407.447	-10.08
407.574	27.92
407.702	16.92
407.83	-14.08
407.957	-1.08
408.085	20.92
408.212	-0.08
408.34	6.92
408.467	10.92
408.595	24.92
408.722	24.92
408.85	21.92
408.977	14.92
409.105	29.92
409.232	8.92
409.36	18.92
409.487	7.92
409.615	15.92
409.742	26.92
409.87	33.92
409.997	40.92
410.125	45.92
410.252	65.92
410.379	64.92
410.507	32.92
410.634	12.92
410.762	26.92
410.889	37.92
411.017	-0.08
411.144	11.92
411.271	5.92
411.399	12.92
411.526	23.92
411.653	12.92
411.781	42.92
411.908	16.92
412.036	9.92
412.163	31.92
412.29	31.92
412.418	19.92
412.545	21.92
412.672	15.92
412.8	25.92
412.927	19.92
413.054	29.92
413.182	1.92
413.309	12.92
413.436	0.92
413.564	4.92
413.691	0.92
413.818	30.92
413.945	-7.08
414.073	5.92
414.2	15.92
414.327	18.92
414.454	13.92
414.582	17.92
414.709	8.92
414.836	8.92
414.963	17.92
415.091	11.92
415.218	4.92
415.345	30.92
415.472	32.92
415.6	-3.08
415.727	18.92
415.854	13.92
415.981	-0.08
416.108	12.92
416.236	2.92
416.363	22.92
416.49	6.92
416.617	15.92
416.744	23.92
416.871	20.92
416.998	16.92
417.126	-4.08
417.253	-4.08
417.38	24.92
417.507	6.92
417.634	13.92
417.761	16.92
417.888	24.92
418.015	37.92
418.143	37.92
418.27	36.92
418.397	9.92
418.524	11.92
418.651	-0.08
418.778	22.92
418.905	40.92
419.032	28.92
419.159	22.92
419.286	31.92
419.413	26.92
419.54	25.92
419.667	7.92
419.794	-6.08
419.921	-5.08
420.048	14.92
420.175	8.92
420.302	3.92
420.429	17.92
420.556	13.92
420.683	5.92
420.81	3.92
420.937	20.92
421.064	23.92
421.191	17.92
421.318	19.92
421.445	41.92
421.572	2.92
421.699	21.92
421.826	18.92
421.953	16.92
422.08	-3.08
422.207	-4.08
422.334	-4.08
422.461	22.92
422.588	3.92
422.714	17.92
422.841	29.92
422.968	17.92
423.095	16.92
423.222	-2.08
423.349	14.92
423.476	21.92
423.603	7.92
423.729	15.92
423.856	5.92
423.983	18.92
424.11	3.92
424.237	-3.08
424.364	2.92
424.491	12.92
424.617	-3.08
424.744	5.92
424.871	10.92
424.998	-5.08
425.125	-10.08
425.251	20.92
425.378	4.92
425.505	3.92
425.632	16.92
425.758	1.92
425.885	6.92
426.012	16.92
426.139	16.92
426.266	1.92
426.392	13.92
426.519	21.92
426.646	12.92
426.772	10.92
426.899	1.92
427.026	22.92
427.153	11.92
427.279	16.92
427.406	19.92
427.533	4.92
427.659	0.92
427.786	15.92
427.913	25.92
428.039	1.92
428.166	8.92
428.293	18.92
428.419	12.92
428.546	17.92
428.673	6.92
428.799	-1.08
428.926	1.92
429.053	38.92
429.179	20.92
429.306	16.92
429.433	27.92
429.559	27.92
429.686	19.92
429.812	10.92
429.939	-5.08
430.066	17.92
430.192	7.92
430.319	22.92
430.445	23.92
430.572	5.92
430.699	10.92
430.825	7.92
430.952	17.92
431.078	-1.08
431.205	23.92
431.331	12.92
431.458	19.92
431.584	31.92
431.711	5.92
431.837	11.92
431.964	22.92
432.09	16.92
432.217	2.92
432.343	17.92
432.47	21.92
432.596	17.92
432.723	12.92
432.849	-9.08
432.976	21.92
433.102	5.92
433.229	-8.08
433.355	25.92
433.482	50.92
433.608	166.92
433.735	141.92
433.861	124.92
433.987	153.92
434.114	251.92
434.24	223.92
434.367	77.92
434.493	25.92
434.62	31.92
434.746	21.92
434.872	15.92
434.999	17.92
435.125	7.92
435.252	8.92
435.378	15.92
435.504	13.92
435.631	20.92
435.757	13.92
435.883	14.92
436.01	11.92
436.136	24.92
436.262	20.92
436.389	23.92
436.515	14.92
436.641	30.92
436.768	32.92
436.894	16.92
437.02	9.92
437.147	21.92
437.273	18.92
437.399	13.92
437.526	27.92
437.652	9.92
437.778	17.92
437.904	-10.08
438.031	10.92
438.157	29.92
438.283	16.92
438.409	4.92
438.536	15.92
438.662	40.92
438.788	21.92
438.914	10.92
439.041	31.92
439.167	33.92
439.293	8.92
439.419	14.92
439.546	28.92
439.672	-0.08
439.798	3.92
439.924	29.92
440.05	24.92
440.177	33.92
440.303	8.92
440.429	1.92
440.555	0.92
440.681	3.92
440.807	23.92
440.934	4.92
441.06	12.92
441.186	-9.08
441.312	4.92
441.438	24.92
441.564	27.92
441.69	33.92
441.816	23.92
441.943	20.92
442.069	10.92
442.195	11.92
442.321	28.92
442.447	8.92
442.573	-1.08
442.699	2.92
442.825	1.92
442.951	3.92
443.077	18.92
443.203	24.92
443.33	16.92
443.456	-2.08
443.582	23.92
443.708	29.92
443.834	34.92
443.96	14.92
444.086	8.92
444.212	23.92
444.338	20.92
444.464	25.92
444.59	25.92
444.716	23.92
444.842	13.92
444.968	-0.08
445.094	9.92
445.22	2.92
445.346	-11.08
445.472	20.92
445.598	23.92
445.724	18.92
445.85	-3.08
445.976	17.92
446.102	24.92
446.228	37.92
446.354	22.92
446.48	2.92
446.605	16.92
446.731	24.92
446.857	30.92
446.983	21.92
447.109	-1.08
447.235	15.92
447.361	-0.08
447.487	15.92
447.613	25.92
447.739	14.92
447.865	2.92
447.99	5.92
448.116	28.92
448.242	20.92
448.368	6.92
448.494	6.92
448.62	13.92
448.746	5.92
448.872	13.92
448.997	9.92
449.123	10.92
449.249	26.92
449.375	28.92
449.501	1.92
449.627	3.92
449.752	39.92
449.878	5.92
450.004	12.92
450.13	16.92
450.256	26.92
450.381	39.92
450.507	19.92
450.633	10.92
450.759	22.92
450.884	13.92
451.01	41.92
451.136	4.92
451.262	25.92
451.388	17.92
451.513	3.92
451.639	13.92
451.765	11.92
451.89	26.92
452.016	14.92
452.142	10.92
452.268	29.92
452.393	33.92
452.519	5.92
452.645	9.92
452.771	13.92
452.896	21.92
453.022	22.92
453.148	39.92
453.273	8.92
453.399	9.92
453.525	8.92
453.65	-3.08
453.776	23.92
453.902	10.92
454.027	22.92
454.153	17.92
454.279	25.92
454.404	6.92
454.53	23.92
454.656	40.92
454.781	7.92
454.907	2.92
455.032	12.92
455.158	21.92
455.284	26.92
455.409	2.92
455.535	22.92
455.66	15.92
455.786	33.92
455.912	19.92
456.037	-0.08
456.163	27.92
456.288	37.92
456.414	3.92
456.539	4.92
456.665	23.92
456.791	21.92
456.916	8.92
457.042	12.92
457.167	7.92
457.293	33.92
457.418	21.92
457.544	9.92
457.669	11.92
457.795	4.92
457.92	-1.08
458.046	23.92
458.171	31.92
458.297	16.92
458.422	-5.08
458.548	15.92
458.673	18.92
458.799	2.92
458.924	-4.08
459.05	13.92
459.175	11.92
459.301	41.92
459.426	25.92
459.552	18.92
459.677	22.92
459.803	26.92
459.928	26.92
460.053	14.92
460.179	20.92
460.304	26.92
460.43	5.92
460.555	14.92
460.681	17.92
460.806	-9.08
460.931	11.92
461.057	19.92
461.182	9.92
461.308	26.92
461.433	30.92
461.558	18.92
461.684	18.92
461.809	30.92
461.934	12.92
462.06	32.92
462.185	-5.08
462.311	17.92
462.436	16.92
462.561	9.92
462.687	16.92
462.812	9.92
462.937	14.92
463.063	17.92
463.188	18.92
463.313	24.92
463.439	21.92
463.564	30.92
463.689	12.92
463.814	22.92
463.94	-7.08
464.065	16.92
464.19	30.92
464.316	5.92
464.441	-3.08
464.566	10.92
464.692	18.92
464.817	22.92
464.942	17.92
465.067	0.92
465.193	-20.08
465.318	8.92
465.443	14.92
465.568	2.92
465.694	-1.08
465.819	26.92
465.944	22.92
466.069	23.92
466.194	19.92
466.32	19.92
466.445	4.92
466.57	14.92
466.695	12.92
466.82	14.92
466.946	28.92
467.071	13.92
467.196	11.92
467.321	10.92
467.446	1.92
467.572	8.92
467.697	4.92
467.822	14.92
467.947	21.92
468.072	0.92
468.197	8.92
468.323	7.92
468.448	8.92
468.573	-3.08
468.698	0.92
468.823	29.92
468.948	15.92
469.073	10.92
469.198	18.92
469.324	35.92
469.449	23.92
469.574	40.92
469.699	35.92
469.824	27.92
469.949	32.92
470.074	13.92
470.199	42.92
470.324	26.92
470.449	36.92
470.574	9.92
470.7	20.92
470.825	16.92
470.95	16.92
471.075	1.92
471.2	13.92
471.325	37.92
471.45	15.92
471.575	6.92
471.7	18.92
471.825	2.92
471.95	16.92
472.075	7.92
472.2	14.92
472.325	7.92
472.45	-23.08
472.575	18.92
472.7	23.92
472.825	17.92
472.95	13.92
473.075	28.92
473.2	-15.08
473.325	16.92
473.45	5.92
473.575	-1.08
473.7	15.92
473.825	26.92
473.95	33.92
474.075	18.92
474.2	8.92
474.325	-4.08
474.45	28.92
474.574	28.92
474.699	14.92
474.824	21.92
474.949	11.92
475.074	-3.08
475.199	30.92
475.324	18.92
475.449	15.92
475.574	14.92
475.699	14.92
475.824	5.92
475.949	8.92
476.073	8.92
476.198	13.92
476.323	19.92
476.448	20.92
476.573	29.92
476.698	11.92
476.823	6.92
476.947	29.92
477.072	28.92
477.197	31.92
477.322	5.92
477.447	16.92
477.572	21.92
477.697	17.92
477.821	6.92
477.946	0.92
478.071	29.92
478.196	24.92
478.321	14.92
478.445	8.92
478.57	11.92
478.695	4.92
478.82	41.92
478.945	22.92
479.069	13.92
479.194	13.92
479.319	33.92
479.444	23.92
479.569	5.92
479.693	18.92
479.818	19.92
479.943	19.92
480.068	28.92
480.192	19.92
480.317	41.92
480.442	27.92
480.567	20.92
480.691	13.92
480.816	17.92
480.941	10.92
481.066	25.92
481.19	38.92
481.315	27.92
481.44	7.92
481.564	11.92
481.689	22.92
481.814	23.92
481.938	21.92
482.063	8.92
482.188	18.92
482.313	54.92
482.437	31.92
482.562	34.92
482.687	24.92
482.811	23.92
482.936	25.92
483.061	18.92
483.185	13.92
483.31	29.92
483.435	18.92
483.559	32.92
483.684	21.92
483.808	45.92
483.933	29.92
484.058	27.92
484.182	31.92
484.307	30.92
484.432	32.92
484.556	27.92
484.681	21.92
484.805	45.92
484.93	19.92
485.055	46.92
485.179	86.92
485.304	126.92
485.428	378.92
485.553	1293.92
485.678	1790.92
485.802	1691.92
485.927	1899.92
486.051	2804.92
486.176	1716.92
486.3	475.92
486.425	128.92
486.549	87.92
486.674	70.92
486.799	43.92
486.923	13.92
487.048	27.92
487.172	21.92
487.297	30.92
487.421	24.92
487.546	25.92
487.67	52.92
487.795	28.92
487.919	24.92
488.044	54.92
488.168	23.92
488.293	31.92
488.417	9.92
488.542	26.92
488.666	13.92
488.791	27.92
488.915	21.92
489.04	27.92
489.164	27.92
489.289	36.92
489.413	-9.08
489.538	19.92
489.662	53.92
489.786	27.92
489.911	15.92
490.035	26.92
490.16	12.92
490.284	17.92
490.409	7.92
490.533	1.92
490.658	51.92
490.782	20.92
490.906	22.92
491.031	41.92
491.155	29.92
491.28	43.92
491.404	28.92
491.528	29.92
491.653	19.92
491.777	41.92
491.902	22.92
492.026	28.92
492.15	12.92
492.275	41.92
492.399	26.92
492.524	25.92
492.648	29.92
492.772	26.92
492.897	42.92
493.021	35.92
493.145	30.92
493.27	33.92
493.394	44.92
493.518	17.92
493.643	1.92
493.767	20.92
493.891	13.92
494.016	27.92
494.14	20.92
494.264	20.92
494.389	11.92
494.513	2.92
494.637	1.92
494.762	21.92
494.886	20.92
495.01	37.92
495.134	24.92
495.259	52.92
495.383	8.92
495.507	19.92
495.632	41.92
495.756	50.92
495.88	42.92
496.004	17.92
496.129	-1.08
496.253	20.92
496.377	13.92
496.501	42.92
496.626	7.92
496.75	31.92
496.874	25.92
496.998	10.92
497.123	38.92
497.247	14.92
497.371	20.92
497.495	5.92
497.62	21.92
497.744	18.92
497.868	11.92
497.992	23.92
498.116	7.92
498.241	19.92
498.365	13.92
498.489	11.92
498.613	31.92
498.737	2.92
498.862	15.92
498.986	4.92
499.11	8.92
499.234	9.92
499.358	9.92
499.482	5.92
499.607	14.92
499.731	41.92
499.855	32.92
499.979	28.92
500.103	25.92
500.227	41.92
500.351	33.92
500.476	14.92
500.6	9.92
500.724	19.92
500.848	10.92
500.972	18.92
501.096	22.92
501.22	35.92
501.344	-11.08
501.469	22.92
501.593	16.92
501.717	28.92
501.841	4.92
501.965	30.92
502.089	9.92
502.213	12.92
502.337	15.92
502.461	29.92
502.585	19.92
502.709	24.92
502.834	24.92
502.958	19.92
503.082	17.92
503.206	15.92
503.33	24.92
503.454	6.92
503.578	23.92
503.702	10.92
503.826	9.92
503.95	44.92
504.074	18.92
504.198	8.92
504.322	12.92
504.446	5.92
504.57	12.92
504.694	24.92
504.818	2.92
504.942	19.92
505.066	16.92
505.19	30.92
505.314	23.92
505.438	24.92
505.562	5.92
505.686	6.92
505.81	5.92
505.934	23.92
506.058	23.92
506.182	25.92
506.306	25.92
506.43	21.92
506.554	14.92
506.678	3.92
506.802	14.92
506.926	36.92
507.05	23.92
507.174	43.92
507.298	23.92
507.422	16.92
507.546	13.92
507.67	51.92
507.794	32.92
507.918	21.92
508.042	12.92
508.165	0.92
508.289	17.92
508.413	26.92
508.537	15.92
508.661	35.92
508.785	9.92
508.909	36.92
509.033	4.92
509.157	23.92
509.281	17.92
509.405	8.92
509.528	32.92
509.652	22.92
509.776	23.92
509.9	31.92
510.024	31.92
510.148	29.92
510.272	23.92
510.396	15.92
510.519	12.92
510.643	31.92
510.767	19.92
510.891	31.92
511.015	12.92
511.139	18.92
511.263	38.92
511.386	25.92
511.51	13.92
511.634	30.92
511.758	24.92
511.882	10.92
512.006	22.92
512.129	10.92
512.253	40.92
512.377	19.92
512.501	18.92
512.625	14.92
512.748	6.92
512.872	2.92
512.996	9.92
513.12	16.92
513.244	6.92
513.367	22.92
513.491	22.92
513.615	26.92
513.739	16.92
513.862	20.92
513.986	16.92
514.11	22.92
514.234	25.92
514.358	28.92
514.481	41.92
514.605	24.92
514.729	16.92
514.853	37.92
514.976	12.92
515.1	21.92
515.224	41.92
515.348	20.92
515.471	12.92
515.595	13.92
515.719	6.92
515.842	28.92
515.966	9.92
516.09	22.92
516.214	18.92
516.337	41.92
516.461	34.92
516.585	34.92
516.708	21.92
516.832	31.92
516.956	38.92
517.08	14.92
517.203	4.92
517.327	14.92
517.451	31.92
517.574	45.92
517.698	8.92
517.822	18.92
517.945	26.92
518.069	26.92
518.193	50.92
518.316	22.92
518.44	37.92
518.564	9.92
518.687	23.92
518.811	23.92
518.935	58.92
519.058	28.92
519.182	50.92
519.306	33.92
519.429	25.92
519.553	56.92
519.676	37.92
519.8	47.92
519.924	18.92
520.047	25.92
520.171	11.92
520.294	6.92
520.418	24.92
520.542	18.92
520.665	45.92
520.789	7.92
520.913	-5.08
521.036	2.92
521.16	9.92
521.283	18.92
521.407	20.92
521.53	9.92
521.654	7.92
521.778	31.92
521.901	18.92
522.025	10.92
522.148	10.92
522.272	16.92
522.395	7.92
522.519	25.92
522.643	15.92
522.766	20.92
522.89	8.92
523.013	22.92
523.137	-0.08
523.26	25.92
523.384	24.92
523.507	15.92
523.631	21.92
523.754	-1.08
523.878	19.92
524.002	15.92
524.125	15.92
524.249	16.92
524.372	22.92
524.496	26.92
524.619	14.92
524.743	22.92
524.866	4.92
524.99	11.92
525.113	10.92
525.237	30.92
525.36	18.92
525.484	3.92
525.607	6.92
525.731	0.92
525.854	28.92
525.978	31.92
526.101	-6.08
526.224	1.92
526.348	21.92
526.471	15.92
526.595	-4.08
526.718	7.92
526.842	-1.08
526.965	27.92
527.089	36.92
527.212	33.92
527.336	11.92
527.459	12.92
527.582	5.92
527.706	16.92
527.829	32.92
527.953	15.92
528.076	-3.08
528.2	10.92
528.323	29.92
528.446	16.92
528.57	11.92
528.693	28.92
528.817	15.92
528.94	9.92
529.064	39.92
529.187	15.92
529.31	11.92
529.434	7.92
529.557	7.92
529.68	8.92
529.804	17.92
529.927	16.92
530.051	20.92
530.174	12.92
530.297	18.92
530.421	20.92
530.544	31.92
530.668	30.92
530.791	21.92
530.914	22.92
531.038	15.92
531.161	4.92
531.284	8.92
531.408	22.92
531.531	15.92
531.654	4.92
531.778	8.92
531.901	6.92
532.024	9.92
532.148	19.92
532.271	18.92
532.394	23.92
532.518	33.92
532.641	38.92
532.764	52.92
532.888	18.92
533.011	0.92
533.134	13.92
533.258	37.92
533.381	22.92
533.504	26.92
533.628	11.92
533.751	14.92
533.874	26.92
533.997	0.92
534.121	-10.08
534.244	38.92
534.367	-1.08
534.491	2.92
534.614	9.92
534.737	26.92
534.86	24.92
534.984	8.92
535.107	2.92
535.23	7.92
535.354	17.92
535.477	12.92
535.6	19.92
535.723	13.92
535.847	13.92
535.97	-2.08
536.093	28.92
536.216	21.92
536.34	24.92
536.463	8.92
536.586	29.92
536.709	22.92
536.833	24.92
536.956	16.92
537.079	6.92
537.202	27.92
537.325	17.92
537.449	8.92
537.572	29.92
537.695	0.92
537.818	28.92
537.941	13.92
538.065	9.92
538.188	3.92
538.311	27.92
538.434	22.92
538.558	11.92
538.681	26.92
538.804	28.92
538.927	16.92
539.05	13.92
539.173	26.92
539.297	5.92
539.42	9.92
539.543	8.92
539.666	13.92
539.789	12.92
539.913	18.92
540.036	32.92
540.159	45.92
540.282	27.92
540.405	-2.08
540.528	6.92
540.651	24.92
540.775	17.92
540.898	13.92
541.021	13.92
541.144	31.92
541.267	27.92
541.39	-0.08
541.513	26.92
541.637	17.92
541.76	20.92
541.883	5.92
542.006	21.92
542.129	40.92
542.252	10.92
542.375	5.92
542.498	5.92
542.622	21.92
542.745	15.92
542.868	0.92
542.991	23.92
543.114	24.92
543.237	23.92
543.36	30.92
543.483	6.92
543.606	21.92
543.73	31.92
543.853	16.92
543.976	3.92
544.099	18.92
544.222	27.92
544.345	-1.08
544.468	12.92
544.591	5.92
544.714	24.92
544.837	17.92
544.96	22.92
545.083	22.92
545.206	18.92
545.329	49.92
545.453	14.92
545.576	13.92
545.699	8.92
545.822	15.92
545.945	45.92
546.068	22.92
546.191	19.92
546.314	1.92
546.437	13.92
546.56	15.92
546.683	15.92
546.806	15.92
546.929	5.92
547.052	-0.08
547.175	13.92
547.298	8.92
547.421	22.92
547.544	15.92
547.667	28.92
547.79	17.92
547.913	17.92
548.036	-4.08
548.159	5.92
548.282	4.92
548.405	-1.08
548.528	31.92
548.651	19.92
548.774	13.92
548.897	25.92
549.02	34.92
549.143	33.92
549.266	20.92
549.389	25.92
549.512	8.92
549.635	28.92
549.758	35.92
549.881	14.92
550.004	10.92
550.127	8.92
550.25	27.92
550.373	1.92
550.496	25.92
550.619	17.92
550.742	5.92
550.865	6.92
550.988	24.92
551.111	23.92
551.234	21.92
551.356	20.92
551.479	-7.08
551.602	10.92
551.725	27.92
551.848	24.92
551.971	29.92
552.094	23.92
552.217	16.92
552.34	14.92
552.463	1.92
552.586	19.92
552.709	3.92
552.832	10.92
552.955	33.92
553.077	26.92
553.2	22.92
553.323	15.92
553.446	6.92
553.569	7.92
553.692	14.92
553.815	18.92
553.938	9.92
554.061	28.92
554.184	18.92
554.306	15.92
554.429	17.92
554.552	21.92
554.675	1.92
554.798	17.92
554.921	15.92
555.044	13.92
555.167	4.92
555.29	-0.08
555.412	21.92
555.535	9.92
555.658	8.92
555.781	17.92
555.904	22.92
556.027	31.92
556.15	20.92
556.272	2.92
556.395	33.92
556.518	10.92
556.641	1.92
556.764	24.92
556.887	36.92
557.01	17.92
557.132	-6.08
557.255	10.92
557.378	25.92
557.501	12.92
557.624	26.92
557.747	16.92
557.869	26.92
557.992	28.92
558.115	28.92
558.238	19.92
558.361	10.92
558.483	24.92
558.606	15.92
558.729	18.92
558.852	47.92
558.975	37.92
559.098	27.92
559.22	21.92
559.343	24.92
559.466	23.92
559.589	19.92
559.712	27.92
559.834	26.92
559.957	0.92
560.08	7.92
560.203	25.92
560.325	24.92
560.448	22.92
560.571	7.92
560.694	1.92
560.817	18.92
560.939	25.92
561.062	26.92
561.185	12.92
561.308	2.92
561.43	17.92
561.553	7.92
561.676	-3.08
561.799	10.92
561.921	8.92
562.044	10.92
562.167	8.92
562.29	29.92
562.413	29.92
562.535	13.92
562.658	-2.08
562.781	11.92
562.903	4.92
563.026	19.92
563.149	42.92
563.272	29.92
563.394	37.92
563.517	17.92
563.64	-3.08
563.763	2.92
563.885	31.92
564.008	38.92
564.131	42.92
564.254	15.92
564.376	13.92
564.499	3.92
564.622	11.92
564.744	37.92
564.867	24.92
564.99	26.92
565.113	6.92
565.235	18.92
565.358	12.92
565.481	-7.08
565.603	-9.08
565.726	-10.08
565.849	32.92
565.971	26.92
566.094	4.92
566.217	2.92
566.34	18.92
566.462	26.92
566.585	23.92
566.708	27.92
566.83	20.92
566.953	32.92
567.076	16.92
567.198	6.92
567.321	-5.08
567.444	17.92
567.566	5.92
567.689	2.92
567.812	14.92
567.934	18.92
568.057	27.92
568.18	24.92
568.302	20.92
568.425	12.92
568.548	21.92
568.67	22.92
568.793	11.92
568.916	10.92
569.038	22.92
569.161	5.92
569.283	19.92
569.406	27.92
569.529	25.92
569.651	-4.08
569.774	11.92
569.897	10.92
570.019	38.92
570.142	20.92
570.265	5.92
570.387	6.92
570.51	33.92
570.632	30.92
570.755	10.92
570.878	5.92
571	6.92
571.123	0.92
571.246	26.92
571.368	19.92
571.491	13.92
571.613	11.92
571.736	8.92
571.859	2.92
571.981	12.92
572.104	7.92
572.226	13.92
572.349	-5.08
572.472	24.92
572.594	25.92
572.717	26.92
572.839	18.92
572.962	30.92
573.085	37.92
573.207	6.92
573.33	18.92
573.452	39.92
573.575	29.92
573.697	21.92
573.82	18.92
573.943	7.92
574.065	12.92
574.188	17.92
574.31	18.92
574.433	27.92
574.555	28.92
574.678	17.92
574.801	38.92
574.923	9.92
575.046	7.92
575.168	3.92
575.291	-5.08
575.413	21.92
575.536	-1.08
575.659	18.92
575.781	14.92
575.904	18.92
576.026	19.92
576.149	5.92
576.271	23.92
576.394	26.92
576.516	6.92
576.639	22.92
576.761	10.92
576.884	5.92
577.007	13.92
577.129	25.92
577.252	23.92
577.374	25.92
577.497	9.92
577.619	8.92
577.742	-4.08
577.864	15.92
577.987	28.92
578.109	26.92
578.232	17.92
578.354	34.92
578.477	14.92
578.599	15.92
578.722	5.92
578.844	-6.08
578.967	17.92
579.089	1.92
579.212	0.92
579.334	14.92
579.457	14.92
579.579	14.92
579.702	0.92
579.824	17.92
579.947	5.92
580.069	9.92
580.192	-12.08
580.314	28.92
580.437	32.92
580.559	44.92
580.682	5.92
580.804	16.92
580.927	25.92
581.049	47.92
581.172	25.92
581.294	33.92
581.417	24.92
581.539	28.92
581.662	17.92
581.784	30.92
581.907	17.92
582.029	34.92
582.152	9.92
582.274	22.92
582.396	18.92
582.519	2.92
582.641	-4.08
582.764	6.92
582.886	12.92
583.009	29.92
583.131	21.92
583.254	7.92
583.376	20.92
583.499	29.92
583.621	17.92
583.743	30.92
583.866	30.92
583.988	18.92
584.111	13.92
584.233	28.92
584.356	29.92
584.478	13.92
584.601	10.92
584.723	17.92
584.845	21.92
584.968	10.92
585.09	-10.08
585.213	27.92
585.335	0.92
585.458	7.92
585.58	-0.08
585.702	13.92
585.825	14.92
585.947	21.92
586.07	0.92
586.192	7.92
586.315	9.92
586.437	-4.08
586.559	21.92
586.682	4.92
586.804	24.92
586.927	13.92
587.049	8.92
587.171	43.92
587.294	33.92
587.416	46.92
587.539	9.92
587.661	20.92
587.783	13.92
587.906	18.92
588.028	13.92
588.151	15.92
588.273	27.92
588.395	18.92
588.518	1.92
588.64	13.92
588.763	29.92
588.885	22.92
589.007	27.92
589.13	1.92
589.252	-14.08
589.375	0.92
589.497	3.92
589.619	12.92
589.742	12.92
589.864	33.92
589.986	13.92
590.109	5.92
590.231	6.92
590.354	11.92
590.476	-1.08
590.598	6.92
590.721	3.92
590.843	24.92
590.965	16.92
591.088	16.92
591.21	30.92
591.332	36.92
591.455	8.92
591.577	24.92
591.7	32.92
591.822	12.92
591.944	-5.08
592.067	7.92
592.189	19.92
592.311	5.92
592.434	30.92
592.556	20.92
592.678	13.92
592.801	19.92
592.923	18.92
593.045	21.92
593.168	32.92
593.29	13.92
593.412	30.92
593.535	1.92
593.657	8.92
593.779	14.92
593.902	23.92
594.024	12.92
594.146	22.92
594.269	24.92
594.391	6.92
594.513	23.92
594.636	8.92
594.758	11.92
594.88	25.92
595.003	30.92
595.125	-6.08
595.247	12.92
595.37	25.92
595.492	6.92
595.614	17.92
595.737	6.92
595.859	8.92
595.981	13.92
596.104	17.92
596.226	23.92
596.348	4.92
596.471	16.92
596.593	6.92
596.715	1.92
596.838	14.92
596.96	15.92
597.082	20.92
597.204	19.92
597.327	41.92
597.449	22.92
597.571	34.92
597.694	25.92
597.816	24.92
597.938	20.92
598.061	24.92
598.183	13.92
598.305	36.92
598.427	18.92
598.55	22.92
598.672	26.92
598.794	24.92
598.917	4.92
599.039	26.92
599.161	17.92
599.283	13.92
599.406	11.92
599.528	23.92
599.65	39.92
599.773	10.92
599.895	18.92
600.017	32.92
600.139	26.92
600.262	9.92
600.384	14.92
600.506	9.92
600.628	40.92
600.751	33.92
600.873	23.92
600.995	22.92
601.118	18.92
601.24	16.92
601.362	32.92
601.484	27.92
601.607	13.92
601.729	9.92
601.851	29.92
601.973	33.92
602.096	27.92
602.218	33.92
602.34	30.92
602.462	30.92
602.585	18.92
602.707	9.92
602.829	35.92
602.951	20.92
603.074	-7.08
603.196	12.92
603.318	-3.08
603.44	19.92
603.563	16.92
603.685	0.92
603.807	15.92
603.929	5.92
604.052	36.92
604.174	34.92
604.296	29.92
604.418	6.92
604.541	29.92
604.663	21.92
604.785	9.92
604.907	-10.08
605.03	0.92
605.152	37.92
605.274	16.92
605.396	8.92
605.519	10.92
605.641	-3.08
605.763	8.92
605.885	20.92
606.008	14.92
606.13	22.92
606.252	4.92
606.374	-6.08
606.496	5.92
606.619	14.92
606.741	13.92
606.863	39.92
606.985	48.92
607.108	27.92
607.23	12.92
607.352	8.92
607.474	7.92
607.596	12.92
607.719	16.92
607.841	24.92
607.963	19.92
608.085	12.92
608.207	53.92
608.33	25.92
608.452	26.92
608.574	1.92
608.696	19.92
608.819	37.92
608.941	17.92
609.063	10.92
609.185	7.92
609.307	16.92
609.43	33.92
609.552	17.92
609.674	10.92
609.796	7.92
609.918	19.92
610.041	10.92
610.163	25.92
610.285	12.92
610.407	6.92
610.529	-3.08
610.652	24.92
610.774	28.92
610.896	19.92
611.018	17.92
611.14	16.92
611.263	12.92
611.385	12.92
611.507	14.92
611.629	8.92
611.751	20.92
611.873	44.92
611.996	30.92
612.118	26.92
612.24	29.92
612.362	28.92
612.484	49.92
612.607	38.92
612.729	31.92
612.851	15.92
612.973	23.92
613.095	22.92
613.218	13.92
613.34	16.92
613.462	5.92
613.584	13.92
613.706	5.92
613.828	33.92
613.951	18.92
614.073	-2.08
614.195	12.92
614.317	29.92
614.439	28.92
614.561	22.92
614.684	29.92
614.806	43.92
614.928	17.92
615.05	5.92
615.172	24.92
615.294	22.92
615.417	34.92
615.539	22.92
615.661	20.92
615.783	46.92
615.905	17.92
616.027	64.92
616.15	113.92
616.272	86.92
616.394	59.92
616.516	41.92
616.638	31.92
616.76	16.92
616.883	26.92
617.005	8.92
617.127	11.92
617.249	20.92
617.371	18.92
617.493	24.92
617.615	26.92
617.738	25.92
617.86	18.92
617.982	13.92
618.104	24.92
618.226	14.92
618.348	-1.08
618.471	12.92
618.593	14.92
618.715	5.92
618.837	7.92
618.959	5.92
619.081	34.92
619.203	24.92
619.326	17.92
619.448	11.92
619.57	21.92
619.692	29.92
619.814	28.92
619.936	32.92
620.058	13.92
620.181	16.92
620.303	7.92
620.425	5.92
620.547	10.92
620.669	-2.08
620.791	3.92
620.913	10.92
621.036	0.92
621.158	25.92
621.28	24.92
621.402	0.92
621.524	15.92
621.646	19.92
621.768	16.92
621.891	16.92
622.013	19.92
622.135	-1.08
622.257	10.92
622.379	11.92
622.501	12.92
622.623	14.92
622.745	33.92
622.868	13.92
622.99	16.92
623.112	22.92
623.234	7.92
623.356	22.92
623.478	6.92
623.6	10.92
623.722	8.92
623.845	13.92
623.967	17.92
624.089	13.92
624.211	15.92
624.333	10.92
624.455	10.92
624.577	10.92
624.699	17.92
624.822	7.92
624.944	10.92
625.066	8.92
625.188	16.92
625.31	2.92
625.432	36.92
625.554	23.92
625.676	15.92
625.799	1.92
625.921	18.92
626.043	26.92
626.165	21.92
626.287	-9.08
626.409	20.92
626.531	8.92
626.653	8.92
626.775	25.92
626.898	8.92
627.02	11.92
627.142	17.92
627.264	23.92
627.386	14.92
627.508	20.92
627.63	2.92
627.752	21.92
627.874	22.92
627.997	20.92
628.119	21.92
628.241	20.92
628.363	33.92
628.485	24.92
628.607	14.92
628.729	13.92
628.851	19.92
628.973	16.92
629.096	7.92
629.218	6.92
629.34	28.92
629.462	15.92
629.584	10.92
629.706	12.92
629.828	32.92
629.95	19.92
630.072	-1.08
630.195	21.92
630.317	5.92
630.439	6.92
630.561	24.92
630.683	7.92
630.805	25.92
630.927	24.92
631.049	5.92
631.171	12.92
631.293	10.92
631.416	19.92
631.538	9.92
631.66	12.92
631.782	19.92
631.904	20.92
632.026	-11.08
632.148	16.92
632.27	-0.08
632.392	11.92
632.514	21.92
632.637	22.92
632.759	10.92
632.881	-2.08
633.003	7.92
633.125	-0.08
633.247	10.92
633.369	22.92
633.491	21.92
633.613	29.92
633.735	7.92
633.858	21.92
633.98	21.92
634.102	-0.08
634.224	10.92
634.346	19.92
634.468	38.92
634.59	24.92
634.712	24.92
634.834	20.92
634.956	-2.08
635.078	-0.08
635.201	11.92
635.323	-5.08
635.445	-0.08
635.567	-1.08
635.689	23.92
635.811	24.92
635.933	16.92
636.055	16.92
636.177	14.92
636.299	29.92
636.421	24.92
636.544	-1.08
636.666	7.92
636.788	27.92
636.91	21.92
637.032	31.92
637.154	26.92
637.276	44.92
637.398	41.92
637.52	8.92
637.642	24.92
637.764	4.92
637.887	10.92
638.009	28.92
638.131	1.92
638.253	27.92
638.375	22.92
638.497	27.92
638.619	6.92
638.741	10.92
638.863	-3.08
638.985	-3.08
639.107	5.92
639.23	6.92
639.352	27.92
639.474	16.92
639.596	14.92
639.718	18.92
639.84	18.92
639.962	10.92
640.084	31.92
640.206	13.92
640.328	5.92
640.45	12.92
640.573	5.92
640.695	15.92
640.817	16.92
640.939	25.92
641.061	9.92
641.183	31.92
641.305	15.92
641.427	9.92
641.549	21.92
641.671	18.92
641.793	-4.08
641.915	21.92
642.038	10.92
642.16	10.92
642.282	17.92
642.404	4.92
642.526	10.92
642.648	2.92
642.77	3.92
642.892	0.92
643.014	13.92
643.136	24.92
643.258	16.92
643.381	30.92
643.503	24.92
643.625	3.92
643.747	8.92
643.869	4.92
643.991	19.92
644.113	26.92
644.235	8.92
644.357	20.92
644.479	25.92
644.601	15.92
644.723	22.92
644.846	28.92
644.968	14.92
645.09	13.92
645.212	8.92
645.334	10.92
645.456	16.92
645.578	7.92
645.7	15.92
645.822	10.92
645.944	21.92
646.066	16.92
646.188	-4.08
646.311	34.92
646.433	21.92
646.555	39.92
646.677	35.92
646.799	43.92
646.921	18.92
647.043	34.92
647.165	10.92
647.287	16.92
647.409	13.92
647.531	10.92
647.654	-9.08
647.776	41.92
647.898	20.92
648.02	10.92
648.142	22.92
648.264	18.92
648.386	7.92
648.508	6.92
648.63	10.92
648.752	18.92
648.874	7.92
648.997	16.92
649.119	42.92
649.241	15.92
649.363	41.92
649.485	27.92
649.607	20.92
649.729	3.92
649.851	17.92
649.973	4.92
650.095	0.92
650.217	4.92
650.34	22.92
650.462	11.92
650.584	21.92
650.706	18.92
650.828	20.92
650.95	-6.08
651.072	25.92
651.194	12.92
651.316	25.92
651.438	21.92
651.56	13.92
651.683	-10.08
651.805	15.92
651.927	10.92
652.049	6.92
652.171	4.92
652.293	16.92
652.415	11.92
652.537	21.92
652.659	8.92
652.781	25.92
652.903	20.92
653.026	29.92
653.148	36.92
653.27	18.92
653.392	23.92
653.514	15.92
653.636	14.92
653.758	30.92
653.88	8.92
654.002	28.92
654.124	2.92
654.247	11.92
654.369	33.92
654.491	33.92
654.613	8.92
654.735	14.92
654.857	22.92
654.979	19.92
655.101	20.92
655.223	58.92
655.345	30.92
655.468	31.92
655.59	23.92
655.712	26.92
655.834	30.92
655.956	40.92
656.078	46.92
656.2	37.92
656.322	36.92
656.444	28.92
656.566	53.92
656.689	40.92
656.811	68.92
656.933	108.92
657.055	109.92
657.177	162.92
657.299	252.92
657.421	547.92
657.543	1950.92
657.665	12785.92
657.787	15208.92
657.91	15388.92
658.032	15667.92
658.154	4798.92
658.276	4966.92
658.398	1428.92
658.52	1142.92
658.642	538.92
658.764	651.92
658.886	286.92
659.009	430.92
659.131	253.92
659.253	332.92
659.375	188.92
659.497	274.92
659.619	154.92
659.741	228.92
659.863	111.92
659.985	181.92
660.108	132.92
660.23	146.92
660.352	91.92
660.474	137.92
660.596	98.92
660.718	141.92
660.84	72.92
660.962	138.92
661.084	62.92
661.207	93.92
661.329	81.92
661.451	103.92
661.573	59.92
661.695	106.92
661.817	57.92
661.939	107.92
662.061	83.92
662.184	97.92
662.306	48.92
662.428	70.92
662.55	58.92
662.672	65.92
662.794	36.92
662.916	59.92
663.038	45.92
663.161	86.92
663.283	65.92
663.405	67.92
663.527	36.92
663.649	59.92
663.771	38.92
663.893	57.92
664.015	34.92
664.138	38.92
664.26	38.92
664.382	71.92
664.504	38.92
664.626	58.92
664.748	31.92
664.87	32.92
664.992	32.92
665.115	44.92
665.237	25.92
665.359	48.92
665.481	37.92
665.603	54.92
665.725	33.92
665.847	35.92
665.97	43.92
666.092	51.92
666.214	42.92
666.336	58.92
666.458	32.92
666.58	37.92
666.702	23.92
666.825	28.92
666.947	12.92
667.069	44.92
667.191	24.92
667.313	50.92
667.435	17.92
667.557	12.92
667.68	5.92
667.802	37.92
667.924	13.92
668.046	50.92
668.168	45.92
668.29	41.92
668.412	-0.08
668.535	43.92
668.657	17.92
668.779	36.92
668.901	19.92
669.023	35.92
669.145	14.92
669.267	35.92
669.39	44.92
669.512	28.92
669.634	21.92
669.756	26.92
669.878	31.92
670	62.92
670.123	21.92
670.245	47.92
670.367	22.92
670.489	36.92
670.611	31.92
670.733	21.92
670.856	12.92
670.978	36.92
671.1	42.92
671.222	45.92
671.344	10.92
671.466	16.92
671.589	18.92
671.711	18.92
671.833	22.92
671.955	38.92
672.077	6.92
672.199	40.92
672.322	26.92
672.444	30.92
672.566	25.92
672.688	28.92
672.81	21.92
672.932	32.92
673.055	20.92
673.177	18.92
673.299	23.92
673.421	11.92
673.543	20.92
673.665	46.92
673.788	26.92
673.91	13.92
674.032	-12.08
674.154	19.92
674.276	32.92
674.399	19.92
674.521	14.92
674.643	23.92
674.765	26.92
674.887	32.92
675.009	9.92
675.132	15.92
675.254	8.92
675.376	26.92
675.498	-0.08
675.62	34.92
675.743	5.92
675.865	22.92
675.987	6.92
676.109	18.92
676.231	20.92
676.354	24.92
676.476	22.92
676.598	20.92
676.72	23.92
676.842	28.92
676.965	14.92
677.087	38.92
677.209	42.92
677.331	26.92
677.453	22.92
677.576	25.92
677.698	22.92
677.82	30.92
677.942	4.92
678.064	23.92
678.187	5.92
678.309	22.92
678.431	24.92
678.553	32.92
678.675	30.92
678.798	39.92
678.92	22.92
679.042	16.92
679.164	3.92
679.286	32.92
679.409	21.92
679.531	-2.08
679.653	2.92
679.775	20.92
679.898	6.92
680.02	-15.08
680.142	-10.08
680.264	32.92
680.386	2.92
680.509	23.92
680.631	21.92
680.753	15.92
680.875	1.92
680.998	8.92
681.12	19.92
681.242	37.92
681.364	9.92
681.486	13.92
681.609	-1.08
681.731	10.92
681.853	17.92
681.975	19.92
682.098	23.92
682.22	52.92
682.342	25.92
682.464	27.92
682.587	18.92
682.709	16.92
682.831	-2.08
682.953	10.92
683.076	2.92
683.198	16.92
683.32	17.92
683.442	15.92
683.565	28.92
683.687	4.92
683.809	1.92
683.931	9.92
684.054	28.92
684.176	22.92
684.298	21.92
684.42	18.92
684.543	20.92
684.665	21.92
684.787	17.92
684.909	12.92
685.032	5.92
685.154	9.92
685.276	14.92
685.398	8.92
685.521	4.92
685.643	9.92
685.765	7.92
685.887	13.92
686.01	13.92
686.132	28.92
686.254	27.92
686.377	16.92
686.499	28.92
686.621	20.92
686.743	27.92
686.866	4.92
686.988	58.92
687.11	17.92
687.232	7.92
687.355	20.92
687.477	17.92
687.599	28.92
687.722	-2.08
687.844	13.92
687.966	-11.08
688.088	28.92
688.211	35.92
688.333	32.92
688.455	23.92
688.578	23.92
688.7	29.92
688.822	24.92
688.944	-3.08
689.067	54.92
689.189	22.92
689.311	-2.08
689.434	1.92
689.556	17.92
689.678	29.92
689.801	9.92
689.923	4.92
690.045	33.92
690.167	37.92
690.29	33.92
690.412	14.92
690.534	17.92
690.657	16.92
690.779	26.92
690.901	28.92
691.024	32.92
691.146	7.92
691.268	11.92
691.391	13.92
691.513	14.92
691.635	13.92
691.758	32.92
691.88	17.92
692.002	7.92
692.125	5.92
692.247	14.92
692.369	-3.08
692.492	9.92
692.614	7.92
692.736	7.92
692.859	14.92
692.981	12.92
693.103	10.92
693.226	14.92
693.348	29.92
693.47	17.92
693.593	5.92
693.715	9.92
693.837	0.92
693.96	6.92
694.082	0.92
694.204	13.92
694.327	6.92
694.449	-1.08
694.571	20.92
694.694	28.92
694.816	20.92
694.938	-0.08
695.061	4.92
695.183	-2.08
695.305	21.92
695.428	12.92
695.55	1.92
695.672	8.92
695.795	38.92
695.917	39.92
696.04	14.92
696.162	-4.08
696.284	11.92
696.407	26.92
696.529	20.92
696.651	32.92
696.774	7.92
696.896	33.92
697.019	10.92
697.141	18.92
697.263	2.92
697.386	-0.08
697.508	-5.08
697.63	26.92
697.753	15.92
697.875	6.92
697.998	14.92
698.12	30.92
698.242	22.92
698.365	8.92
698.487	23.92
698.61	19.92
698.732	11.92
698.854	32.92
698.977	15.92
699.099	29.92
699.221	12.92
699.344	29.92
699.466	14.92
699.589	-2.08
699.711	10.92
699.834	18.92
699.956	21.92
700.078	36.92
700.201	9.92
700.323	17.92
700.446	12.92
700.568	8.92
700.69	38.92
700.813	31.92
700.935	5.92
701.058	15.92
701.18	5.92
701.302	24.92
701.425	8.92
701.547	28.92
701.67	-4.08
701.792	15.92
701.915	5.92
702.037	-5.08
702.159	17.92
702.282	20.92
702.404	17.92
702.527	31.92
702.649	43.92
702.772	5.92
702.894	16.92
703.017	28.92
703.139	14.92
703.261	30.92
703.384	14.92
703.506	5.92
703.629	6.92
703.751	33.92
703.874	18.92
703.996	-0.08
704.119	-3.08
704.241	36.92
704.364	18.92
704.486	11.92
704.608	19.92
704.731	12.92
704.853	19.92
704.976	28.92
705.098	21.92
705.221	11.92
705.343	23.92
705.466	18.92
705.588	23.92
705.711	24.92
705.833	12.92
705.956	24.92
706.078	27.92
706.201	6.92
706.323	31.92
706.446	23.92
