Data from LowRes_H2_15_26_11_07_2024_HR4C61881__77__15-28-21-336.txt Node

Date: Thu Nov 07 15:28:21 EST 2024
User: crc00042
Spectrometer: HR4C6188
Trigger mode: 4
Integration Time (sec): 1.000000E-1
Scans to average: 1
Electric dark correction enabled: true
Nonlinearity correction enabled: false
Boxcar width: 0
XAxis mode: Wavelengths
Number of Pixels in Spectrum: 3648
>>>>>Begin Spectral Data<<<<<
245.66	-99.62
245.797	-99.62
245.934	-99.62
246.071	-69.62
246.208	6.38
246.344	11.38
246.481	12.38
246.618	3.38
246.755	35.38
246.892	-7.62
247.029	-16.62
247.165	-27.62
247.302	5.38
247.439	-2.62
247.576	14.38
247.713	-4.62
247.849	8.38
247.986	-31.62
248.123	3.38
248.26	-11.62
248.396	9.38
248.533	3.38
248.67	3.38
248.806	15.38
248.943	-29.62
249.08	-15.62
249.216	5.38
249.353	-2.62
249.49	6.38
249.626	2.38
249.763	-6.62
249.9	-9.62
250.036	-7.62
250.173	-9.62
250.309	-4.62
250.446	13.38
250.582	-10.62
250.719	-13.62
250.856	-9.62
250.992	-0.62
251.129	2.38
251.265	-15.62
251.402	-3.62
251.538	-0.62
251.675	-6.62
251.811	-6.62
251.948	21.38
252.084	-1.62
252.221	-2.62
252.357	-21.62
252.493	26.38
252.63	0.38
252.766	-0.62
252.903	-9.62
253.039	5.38
253.175	2.38
253.312	0.38
253.448	-12.62
253.585	-8.62
253.721	8.38
253.857	-9.62
253.994	3.38
254.13	5.38
254.266	1.38
254.403	5.38
254.539	8.38
254.675	18.38
254.811	13.38
254.948	20.38
255.084	15.38
255.22	-3.62
255.356	-18.62
255.493	12.38
255.629	22.38
255.765	3.38
255.901	3.38
256.037	10.38
256.174	-7.62
256.31	-20.62
256.446	-12.62
256.582	1.38
256.718	10.38
256.854	17.38
256.991	-0.62
257.127	5.38
257.263	-9.62
257.399	14.38
257.535	-3.62
257.671	-9.62
257.807	-10.62
257.943	-3.62
258.079	-16.62
258.215	0.38
258.351	9.38
258.487	-4.62
258.623	21.38
258.759	-3.62
258.895	5.38
259.031	1.38
259.167	-1.62
259.303	16.38
259.439	-0.62
259.575	-4.62
259.711	-4.62
259.847	-5.62
259.983	-0.62
260.119	0.38
260.255	-18.62
260.391	5.38
260.527	7.38
260.663	20.38
260.799	11.38
260.934	-1.62
261.07	-12.62
261.206	-18.62
261.342	-1.62
261.478	19.38
261.614	-4.62
261.749	-0.62
261.885	14.38
262.021	18.38
262.157	14.38
262.293	-0.62
262.428	-8.62
262.564	1.38
262.7	-14.62
262.836	-8.62
262.971	21.38
263.107	1.38
263.243	30.38
263.378	2.38
263.514	-21.62
263.65	7.38
263.785	-22.62
263.921	-13.62
264.057	20.38
264.192	1.38
264.328	17.38
264.464	-15.62
264.599	1.38
264.735	5.38
264.871	-4.62
265.006	-8.62
265.142	-1.62
265.277	0.38
265.413	10.38
265.548	-4.62
265.684	12.38
265.819	-11.62
265.955	-5.62
266.091	-2.62
266.226	-6.62
266.362	-5.62
266.497	21.38
266.633	14.38
266.768	-16.62
266.903	7.38
267.039	6.38
267.174	27.38
267.31	-10.62
267.445	-7.62
267.581	-5.62
267.716	13.38
267.851	-1.62
267.987	26.38
268.122	25.38
268.258	-2.62
268.393	7.38
268.528	18.38
268.664	-7.62
268.799	-19.62
268.934	11.38
269.07	4.38
269.205	-5.62
269.34	19.38
269.476	-3.62
269.611	10.38
269.746	20.38
269.881	17.38
270.017	14.38
270.152	13.38
270.287	2.38
270.422	21.38
270.558	-6.62
270.693	2.38
270.828	-11.62
270.963	1.38
271.098	-8.62
271.234	-1.62
271.369	7.38
271.504	0.38
271.639	-30.62
271.774	-8.62
271.909	2.38
272.045	-15.62
272.18	-3.62
272.315	14.38
272.45	5.38
272.585	-3.62
272.72	13.38
272.855	-5.62
272.99	27.38
273.125	0.38
273.26	-21.62
273.395	-7.62
273.53	-0.62
273.665	23.38
273.8	12.38
273.935	4.38
274.07	4.38
274.205	26.38
274.34	15.38
274.475	-6.62
274.61	6.38
274.745	-12.62
274.88	2.38
275.015	-15.62
275.15	10.38
275.285	23.38
275.42	4.38
275.555	32.38
275.69	-2.62
275.825	-0.62
275.959	18.38
276.094	-3.62
276.229	8.38
276.364	-8.62
276.499	-12.62
276.634	10.38
276.768	-17.62
276.903	-4.62
277.038	34.38
277.173	12.38
277.308	22.38
277.442	-0.62
277.577	-9.62
277.712	4.38
277.847	-10.62
277.981	3.38
278.116	-10.62
278.251	14.38
278.386	9.38
278.52	11.38
278.655	-4.62
278.79	12.38
278.924	0.38
279.059	17.38
279.194	-7.62
279.328	38.38
279.463	4.38
279.598	8.38
279.732	-8.62
279.867	1.38
280.001	0.38
280.136	-2.62
280.271	1.38
280.405	6.38
280.54	-1.62
280.674	-13.62
280.809	14.38
280.943	-3.62
281.078	-6.62
281.213	5.38
281.347	17.38
281.482	16.38
281.616	-1.62
281.751	-2.62
281.885	-2.62
282.02	-11.62
282.154	4.38
282.288	-19.62
282.423	-7.62
282.557	1.38
282.692	13.38
282.826	4.38
282.961	13.38
283.095	10.38
283.229	-2.62
283.364	-4.62
283.498	3.38
283.633	-3.62
283.767	9.38
283.901	18.38
284.036	-11.62
284.17	-6.62
284.304	-5.62
284.439	-4.62
284.573	-24.62
284.707	1.38
284.842	5.38
284.976	13.38
285.11	9.38
285.244	-8.62
285.379	44.38
285.513	2.38
285.647	0.38
285.781	4.38
285.916	20.38
286.05	-2.62
286.184	29.38
286.318	11.38
286.453	-3.62
286.587	-4.62
286.721	-2.62
286.855	12.38
286.989	10.38
287.123	14.38
287.258	-16.62
287.392	-12.62
287.526	-1.62
287.66	-19.62
287.794	-3.62
287.928	-7.62
288.062	14.38
288.196	-8.62
288.33	-0.62
288.464	27.38
288.598	-3.62
288.733	6.38
288.867	34.38
289.001	17.38
289.135	3.38
289.269	-8.62
289.403	7.38
289.537	-8.62
289.671	-5.62
289.805	-0.62
289.939	4.38
290.073	-2.62
290.207	11.38
290.34	8.38
290.474	14.38
290.608	16.38
290.742	-9.62
290.876	3.38
291.01	7.38
291.144	26.38
291.278	30.38
291.412	15.38
291.546	0.38
291.679	-1.62
291.813	-6.62
291.947	-3.62
292.081	-8.62
292.215	10.38
292.349	-4.62
292.482	0.38
292.616	2.38
292.75	21.38
292.884	15.38
293.018	-2.62
293.151	-17.62
293.285	-11.62
293.419	4.38
293.553	-5.62
293.686	4.38
293.82	4.38
293.954	9.38
294.088	31.38
294.221	-13.62
294.355	-3.62
294.489	3.38
294.622	-5.62
294.756	21.38
294.89	7.38
295.023	7.38
295.157	7.38
295.291	3.38
295.424	14.38
295.558	-9.62
295.691	1.38
295.825	4.38
295.959	4.38
296.092	-14.62
296.226	4.38
296.359	-3.62
296.493	13.38
296.627	1.38
296.76	2.38
296.894	-6.62
297.027	4.38
297.161	-4.62
297.294	5.38
297.428	-8.62
297.561	14.38
297.695	-14.62
297.828	-7.62
297.962	-7.62
298.095	-9.62
298.229	2.38
298.362	-13.62
298.495	2.38
298.629	6.38
298.762	2.38
298.896	-11.62
299.029	-8.62
299.162	-4.62
299.296	13.38
299.429	-4.62
299.563	20.38
299.696	2.38
299.829	0.38
299.963	28.38
300.096	20.38
300.229	-0.62
300.363	0.38
300.496	9.38
300.629	-21.62
300.763	-7.62
300.896	-8.62
301.029	3.38
301.162	-4.62
301.296	-4.62
301.429	11.38
301.562	-24.62
301.695	14.38
301.829	7.38
301.962	7.38
302.095	3.38
302.228	-23.62
302.362	5.38
302.495	0.38
302.628	2.38
302.761	-3.62
302.894	7.38
303.027	21.38
303.161	-10.62
303.294	-14.62
303.427	26.38
303.56	12.38
303.693	-8.62
303.826	-4.62
303.959	5.38
304.092	-1.62
304.225	5.38
304.359	7.38
304.492	4.38
304.625	-5.62
304.758	9.38
304.891	-24.62
305.024	-0.62
305.157	1.38
305.29	1.38
305.423	9.38
305.556	10.38
305.689	15.38
305.822	-0.62
305.955	-4.62
306.088	3.38
306.221	-7.62
306.354	-6.62
306.487	-10.62
306.62	0.38
306.752	-9.62
306.885	-3.62
307.018	-2.62
307.151	7.38
307.284	-0.62
307.417	3.38
307.55	-2.62
307.683	-14.62
307.816	14.38
307.948	10.38
308.081	10.38
308.214	3.38
308.347	21.38
308.48	10.38
308.613	-4.62
308.745	9.38
308.878	-4.62
309.011	-4.62
309.144	2.38
309.277	-3.62
309.409	7.38
309.542	1.38
309.675	24.38
309.808	23.38
309.94	13.38
310.073	-4.62
310.206	6.38
310.339	-13.62
310.471	-35.62
310.604	24.38
310.737	10.38
310.869	8.38
311.002	11.38
311.135	-5.62
311.267	-19.62
311.4	-2.62
311.533	11.38
311.665	8.38
311.798	-2.62
311.93	4.38
312.063	13.38
312.196	11.38
312.328	2.38
312.461	-2.62
312.593	4.38
312.726	31.38
312.859	19.38
312.991	4.38
313.124	-33.62
313.256	-3.62
313.389	3.38
313.521	-3.62
313.654	0.38
313.786	-22.62
313.919	-7.62
314.051	0.38
314.184	3.38
314.316	22.38
314.449	-7.62
314.581	4.38
314.714	-10.62
314.846	11.38
314.978	-13.62
315.111	-16.62
315.243	-1.62
315.376	8.38
315.508	6.38
315.641	-8.62
315.773	15.38
315.905	1.38
316.038	-14.62
316.17	-3.62
316.302	5.38
316.435	-10.62
316.567	-2.62
316.699	8.38
316.832	-14.62
316.964	-6.62
317.096	-13.62
317.229	-23.62
317.361	-18.62
317.493	-13.62
317.625	-13.62
317.758	26.38
317.89	23.38
318.022	2.38
318.155	-14.62
318.287	-2.62
318.419	11.38
318.551	0.38
318.683	-10.62
318.816	-10.62
318.948	2.38
319.08	-8.62
319.212	7.38
319.344	9.38
319.477	-3.62
319.609	-3.62
319.741	17.38
319.873	-1.62
320.005	-10.62
320.137	-0.62
320.269	3.38
320.401	-12.62
320.534	-3.62
320.666	-6.62
320.798	-11.62
320.93	-14.62
321.062	-13.62
321.194	-19.62
321.326	-3.62
321.458	6.38
321.59	-6.62
321.722	16.38
321.854	-10.62
321.986	-7.62
322.118	7.38
322.25	13.38
322.382	-7.62
322.514	0.38
322.646	-12.62
322.778	23.38
322.91	-1.62
323.042	-0.62
323.174	9.38
323.306	-15.62
323.438	-32.62
323.57	3.38
323.702	-5.62
323.834	-6.62
323.966	-13.62
324.097	-7.62
324.229	3.38
324.361	8.38
324.493	7.38
324.625	-10.62
324.757	9.38
324.889	12.38
325.021	13.38
325.152	5.38
325.284	7.38
325.416	1.38
325.548	27.38
325.68	-16.62
325.811	11.38
325.943	-4.62
326.075	-7.62
326.207	1.38
326.339	5.38
326.47	10.38
326.602	26.38
326.734	10.38
326.866	17.38
326.997	-11.62
327.129	-8.62
327.261	-0.62
327.392	-12.62
327.524	-0.62
327.656	16.38
327.787	9.38
327.919	7.38
328.051	15.38
328.182	20.38
328.314	20.38
328.446	6.38
328.577	25.38
328.709	15.38
328.841	-21.62
328.972	-12.62
329.104	10.38
329.235	7.38
329.367	-11.62
329.499	-12.62
329.63	-4.62
329.762	2.38
329.893	3.38
330.025	-5.62
330.156	-11.62
330.288	4.38
330.419	12.38
330.551	16.38
330.683	8.38
330.814	-5.62
330.946	25.38
331.077	1.38
331.208	-8.62
331.34	-2.62
331.471	-2.62
331.603	-8.62
331.734	-26.62
331.866	1.38
331.997	10.38
332.129	-4.62
332.26	3.38
332.392	28.38
332.523	12.38
332.654	-9.62
332.786	-3.62
332.917	5.38
333.048	8.38
333.18	12.38
333.311	-11.62
333.443	4.38
333.574	-3.62
333.705	10.38
333.837	1.38
333.968	-0.62
334.099	27.38
334.231	12.38
334.362	-10.62
334.493	6.38
334.624	7.38
334.756	-6.62
334.887	-3.62
335.018	4.38
335.15	10.38
335.281	10.38
335.412	17.38
335.543	16.38
335.675	-6.62
335.806	-0.62
335.937	-6.62
336.068	-8.62
336.199	29.38
336.331	-3.62
336.462	1.38
336.593	20.38
336.724	9.38
336.855	1.38
336.986	16.38
337.118	3.38
337.249	11.38
337.38	10.38
337.511	5.38
337.642	9.38
337.773	7.38
337.904	-4.62
338.035	2.38
338.166	8.38
338.298	21.38
338.429	11.38
338.56	0.38
338.691	3.38
338.822	16.38
338.953	16.38
339.084	12.38
339.215	13.38
339.346	1.38
339.477	3.38
339.608	-0.62
339.739	1.38
339.87	3.38
340.001	-9.62
340.132	7.38
340.263	7.38
340.394	8.38
340.525	8.38
340.656	-2.62
340.787	4.38
340.918	26.38
341.049	-3.62
341.179	0.38
341.31	4.38
341.441	6.38
341.572	4.38
341.703	10.38
341.834	-5.62
341.965	3.38
342.096	1.38
342.227	-13.62
342.357	12.38
342.488	14.38
342.619	28.38
342.75	8.38
342.881	-0.62
343.012	11.38
343.142	11.38
343.273	-12.62
343.404	12.38
343.535	20.38
343.666	24.38
343.796	26.38
343.927	1.38
344.058	12.38
344.189	6.38
344.319	20.38
344.45	9.38
344.581	4.38
344.712	-6.62
344.842	0.38
344.973	-10.62
345.104	5.38
345.234	-11.62
345.365	-9.62
345.496	13.38
345.626	21.38
345.757	14.38
345.888	-20.62
346.018	6.38
346.149	-2.62
346.28	5.38
346.41	-1.62
346.541	14.38
346.672	-4.62
346.802	0.38
346.933	-18.62
347.063	6.38
347.194	-2.62
347.325	4.38
347.455	28.38
347.586	9.38
347.716	-6.62
347.847	17.38
347.977	-0.62
348.108	19.38
348.238	-2.62
348.369	-4.62
348.499	11.38
348.63	0.38
348.76	-9.62
348.891	0.38
349.021	11.38
349.152	7.38
349.282	1.38
349.413	-12.62
349.543	18.38
349.674	-4.62
349.804	17.38
349.935	-9.62
350.065	-10.62
350.196	10.38
350.326	7.38
350.456	-1.62
350.587	14.38
350.717	-7.62
350.848	2.38
350.978	10.38
351.108	2.38
351.239	24.38
351.369	5.38
351.499	22.38
351.63	-5.62
351.76	7.38
351.89	16.38
352.021	8.38
352.151	-4.62
352.281	13.38
352.412	23.38
352.542	7.38
352.672	1.38
352.803	13.38
352.933	13.38
353.063	10.38
353.193	16.38
353.324	8.38
353.454	16.38
353.584	27.38
353.714	13.38
353.845	-9.62
353.975	-2.62
354.105	6.38
354.235	-0.62
354.365	2.38
354.496	-14.62
354.626	12.38
354.756	14.38
354.886	-2.62
355.016	8.38
355.146	6.38
355.277	16.38
355.407	-4.62
355.537	2.38
355.667	0.38
355.797	-0.62
355.927	-2.62
356.057	-11.62
356.187	-11.62
356.318	-6.62
356.448	3.38
356.578	26.38
356.708	8.38
356.838	15.38
356.968	17.38
357.098	6.38
357.228	6.38
357.358	-14.62
357.488	1.38
357.618	21.38
357.748	2.38
357.878	11.38
358.008	8.38
358.138	5.38
358.268	-0.62
358.398	-1.62
358.528	-17.62
358.658	7.38
358.788	8.38
358.918	11.38
359.048	1.38
359.178	8.38
359.308	0.38
359.438	16.38
359.568	15.38
359.698	3.38
359.827	11.38
359.957	0.38
360.087	10.38
360.217	13.38
360.347	17.38
360.477	14.38
360.607	8.38
360.737	11.38
360.866	10.38
360.996	-3.62
361.126	-1.62
361.256	26.38
361.386	16.38
361.516	19.38
361.645	-10.62
361.775	12.38
361.905	-15.62
362.035	11.38
362.165	1.38
362.294	33.38
362.424	28.38
362.554	8.38
362.684	8.38
362.813	10.38
362.943	17.38
363.073	8.38
363.203	-11.62
363.332	13.38
363.462	-6.62
363.592	-0.62
363.721	-7.62
363.851	3.38
363.981	0.38
364.111	11.38
364.24	-0.62
364.37	18.38
364.5	20.38
364.629	11.38
364.759	-10.62
364.888	-5.62
365.018	6.38
365.148	0.38
365.277	2.38
365.407	-5.62
365.537	5.38
365.666	8.38
365.796	-11.62
365.925	18.38
366.055	6.38
366.184	-3.62
366.314	-6.62
366.444	-0.62
366.573	-0.62
366.703	4.38
366.832	12.38
366.962	20.38
367.091	33.38
367.221	26.38
367.35	-9.62
367.48	30.38
367.609	12.38
367.739	4.38
367.868	6.38
367.998	19.38
368.127	25.38
368.257	-7.62
368.386	19.38
368.516	11.38
368.645	13.38
368.775	7.38
368.904	-11.62
369.033	-7.62
369.163	-2.62
369.292	-8.62
369.422	11.38
369.551	14.38
369.68	8.38
369.81	21.38
369.939	-7.62
370.069	33.38
370.198	13.38
370.327	-17.62
370.457	8.38
370.586	9.38
370.715	-8.62
370.845	-3.62
370.974	3.38
371.103	8.38
371.233	10.38
371.362	-0.62
371.491	0.38
371.621	4.38
371.75	9.38
371.879	-23.62
372.008	-3.62
372.138	10.38
372.267	29.38
372.396	4.38
372.525	6.38
372.655	-2.62
372.784	3.38
372.913	-0.62
373.042	17.38
373.172	26.38
373.301	-14.62
373.43	-1.62
373.559	15.38
373.688	19.38
373.818	35.38
373.947	24.38
374.076	5.38
374.205	9.38
374.334	-1.62
374.463	-2.62
374.593	8.38
374.722	17.38
374.851	27.38
374.98	-7.62
375.109	16.38
375.238	10.38
375.367	19.38
375.496	-7.62
375.625	-5.62
375.755	15.38
375.884	12.38
376.013	5.38
376.142	-9.62
376.271	16.38
376.4	8.38
376.529	20.38
376.658	20.38
376.787	8.38
376.916	10.38
377.045	-7.62
377.174	-12.62
377.303	-1.62
377.432	25.38
377.561	9.38
377.69	17.38
377.819	14.38
377.948	0.38
378.077	-2.62
378.206	12.38
378.335	11.38
378.464	-0.62
378.593	17.38
378.722	-10.62
378.851	-9.62
378.98	12.38
379.108	0.38
379.237	-18.62
379.366	-3.62
379.495	6.38
379.624	-8.62
379.753	11.38
379.882	13.38
380.011	4.38
380.14	-12.62
380.268	17.38
380.397	-8.62
380.526	24.38
380.655	2.38
380.784	-24.62
380.913	-1.62
381.041	5.38
381.17	-17.62
381.299	-7.62
381.428	12.38
381.557	3.38
381.685	-3.62
381.814	18.38
381.943	7.38
382.072	-5.62
382.2	-5.62
382.329	11.38
382.458	22.38
382.587	19.38
382.715	33.38
382.844	14.38
382.973	16.38
383.102	8.38
383.23	-0.62
383.359	-12.62
383.488	21.38
383.616	2.38
383.745	-2.62
383.874	7.38
384.003	3.38
384.131	-26.62
384.26	0.38
384.389	27.38
384.517	16.38
384.646	-12.62
384.774	8.38
384.903	34.38
385.032	25.38
385.16	7.38
385.289	0.38
385.418	-20.62
385.546	6.38
385.675	2.38
385.803	15.38
385.932	1.38
386.06	-10.62
386.189	9.38
386.318	-7.62
386.446	-5.62
386.575	7.38
386.703	-0.62
386.832	4.38
386.96	-10.62
387.089	23.38
387.217	17.38
387.346	-22.62
387.474	-8.62
387.603	2.38
387.731	2.38
387.86	15.38
387.988	6.38
388.117	17.38
388.245	21.38
388.374	-10.62
388.502	7.38
388.631	-12.62
388.759	5.38
388.888	1.38
389.016	8.38
389.144	0.38
389.273	-1.62
389.401	-8.62
389.53	-7.62
389.658	22.38
389.786	-11.62
389.915	-12.62
390.043	-8.62
390.172	-13.62
390.3	31.38
390.428	11.38
390.557	3.38
390.685	10.38
390.813	21.38
390.942	16.38
391.07	3.38
391.198	-4.62
391.327	-11.62
391.455	-18.62
391.583	17.38
391.712	5.38
391.84	-1.62
391.968	-10.62
392.096	9.38
392.225	-2.62
392.353	6.38
392.481	1.38
392.609	8.38
392.738	12.38
392.866	17.38
392.994	-4.62
393.122	26.38
393.251	2.38
393.379	7.38
393.507	-23.62
393.635	-18.62
393.764	6.38
393.892	12.38
394.02	-8.62
394.148	-6.62
394.276	15.38
394.404	29.38
394.533	-2.62
394.661	14.38
394.789	20.38
394.917	23.38
395.045	0.38
395.173	-7.62
395.302	5.38
395.43	18.38
395.558	24.38
395.686	9.38
395.814	12.38
395.942	5.38
396.07	-10.62
396.198	14.38
396.326	0.38
396.454	9.38
396.582	13.38
396.711	14.38
396.839	1.38
396.967	13.38
397.095	-3.62
397.223	17.38
397.351	32.38
397.479	20.38
397.607	-0.62
397.735	4.38
397.863	15.38
397.991	4.38
398.119	-3.62
398.247	5.38
398.375	-0.62
398.503	9.38
398.631	13.38
398.759	22.38
398.887	12.38
399.015	-4.62
399.143	1.38
399.271	1.38
399.399	22.38
399.526	17.38
399.654	6.38
399.782	1.38
399.91	39.38
400.038	5.38
400.166	-4.62
400.294	8.38
400.422	9.38
400.55	2.38
400.678	-6.62
400.805	11.38
400.933	15.38
401.061	23.38
401.189	-7.62
401.317	9.38
401.445	10.38
401.573	0.38
401.7	5.38
401.828	-7.62
401.956	7.38
402.084	16.38
402.212	12.38
402.34	17.38
402.467	8.38
402.595	4.38
402.723	8.38
402.851	25.38
402.978	19.38
403.106	21.38
403.234	-1.62
403.362	32.38
403.489	24.38
403.617	11.38
403.745	-1.62
403.873	8.38
404	23.38
404.128	13.38
404.256	17.38
404.384	14.38
404.511	20.38
404.639	-3.62
404.767	-8.62
404.894	-14.62
405.022	-3.62
405.15	15.38
405.277	4.38
405.405	0.38
405.533	8.38
405.66	-13.62
405.788	-11.62
405.916	-16.62
406.043	2.38
406.171	-18.62
406.299	10.38
406.426	21.38
406.554	30.38
406.681	25.38
406.809	3.38
406.937	16.38
407.064	7.38
407.192	14.38
407.319	23.38
407.447	-5.62
407.574	26.38
407.702	16.38
407.83	-0.62
407.957	-17.62
408.085	13.38
408.212	3.38
408.34	-11.62
408.467	-11.62
408.595	13.38
408.722	0.38
408.85	19.38
408.977	-8.62
409.105	-4.62
409.232	1.38
409.36	-4.62
409.487	12.38
409.615	41.38
409.742	29.38
409.87	19.38
409.997	14.38
410.125	41.38
410.252	63.38
410.379	55.38
410.507	21.38
410.634	24.38
410.762	10.38
410.889	28.38
411.017	17.38
411.144	20.38
411.271	-5.62
411.399	8.38
411.526	3.38
411.653	33.38
411.781	21.38
411.908	6.38
412.036	-4.62
412.163	31.38
412.29	18.38
412.418	7.38
412.545	4.38
412.672	4.38
412.8	43.38
412.927	7.38
413.054	23.38
413.182	24.38
413.309	27.38
413.436	-8.62
413.564	7.38
413.691	8.38
413.818	20.38
413.945	-14.62
414.073	-12.62
414.2	-0.62
414.327	5.38
414.454	15.38
414.582	8.38
414.709	-15.62
414.836	-5.62
414.963	-5.62
415.091	10.38
415.218	-5.62
415.345	3.38
415.472	8.38
415.6	4.38
415.727	5.38
415.854	5.38
415.981	11.38
416.108	13.38
416.236	-3.62
416.363	20.38
416.49	6.38
416.617	19.38
416.744	36.38
416.871	25.38
416.998	19.38
417.126	16.38
417.253	9.38
417.38	9.38
417.507	17.38
417.634	7.38
417.761	25.38
417.888	5.38
418.015	0.38
418.143	6.38
418.27	38.38
418.397	8.38
418.524	19.38
418.651	12.38
418.778	5.38
418.905	8.38
419.032	30.38
419.159	-3.62
419.286	19.38
419.413	25.38
419.54	32.38
419.667	-7.62
419.794	-13.62
419.921	-23.62
420.048	18.38
420.175	10.38
420.302	6.38
420.429	-0.62
420.556	-2.62
420.683	-7.62
420.81	13.38
420.937	5.38
421.064	18.38
421.191	13.38
421.318	14.38
421.445	27.38
421.572	7.38
421.699	14.38
421.826	8.38
421.953	19.38
422.08	20.38
422.207	3.38
422.334	17.38
422.461	33.38
422.588	-0.62
422.714	18.38
422.841	14.38
422.968	35.38
423.095	4.38
423.222	-10.62
423.349	12.38
423.476	22.38
423.603	-19.62
423.729	-18.62
423.856	-4.62
423.983	17.38
424.11	-10.62
424.237	7.38
424.364	14.38
424.491	2.38
424.617	-16.62
424.744	1.38
424.871	5.38
424.998	-16.62
425.125	2.38
425.251	2.38
425.378	-4.62
425.505	24.38
425.632	6.38
425.758	1.38
425.885	14.38
426.012	25.38
426.139	31.38
426.266	5.38
426.392	-0.62
426.519	13.38
426.646	-5.62
426.772	12.38
426.899	0.38
427.026	11.38
427.153	14.38
427.279	15.38
427.406	6.38
427.533	-3.62
427.659	-5.62
427.786	-16.62
427.913	20.38
428.039	4.38
428.166	-10.62
428.293	-0.62
428.419	24.38
428.546	-6.62
428.673	-10.62
428.799	-10.62
428.926	-6.62
429.053	26.38
429.179	10.38
429.306	15.38
429.433	11.38
429.559	20.38
429.686	22.38
429.812	-2.62
429.939	2.38
430.066	11.38
430.192	9.38
430.319	11.38
430.445	9.38
430.572	11.38
430.699	0.38
430.825	1.38
430.952	7.38
431.078	11.38
431.205	11.38
431.331	-0.62
431.458	17.38
431.584	20.38
431.711	1.38
431.837	3.38
431.964	9.38
432.09	4.38
432.217	9.38
432.343	5.38
432.47	13.38
432.596	5.38
432.723	4.38
432.849	-9.62
432.976	4.38
433.102	-11.62
433.229	-3.62
433.355	22.38
433.482	58.38
433.608	146.38
433.735	148.38
433.861	141.38
433.987	169.38
434.114	221.38
434.24	204.38
434.367	68.38
434.493	8.38
434.62	18.38
434.746	24.38
434.872	0.38
434.999	24.38
435.125	-0.62
435.252	-14.62
435.378	23.38
435.504	17.38
435.631	14.38
435.757	7.38
435.883	28.38
436.01	29.38
436.136	13.38
436.262	13.38
436.389	19.38
436.515	17.38
436.641	1.38
436.768	16.38
436.894	13.38
437.02	12.38
437.147	8.38
437.273	10.38
437.399	9.38
437.526	31.38
437.652	12.38
437.778	13.38
437.904	9.38
438.031	7.38
438.157	29.38
438.283	4.38
438.409	-8.62
438.536	-18.62
438.662	43.38
438.788	-6.62
438.914	9.38
439.041	13.38
439.167	23.38
439.293	15.38
439.419	20.38
439.546	15.38
439.672	-16.62
439.798	33.38
439.924	14.38
440.05	15.38
440.177	13.38
440.303	0.38
440.429	9.38
440.555	24.38
440.681	37.38
440.807	26.38
440.934	7.38
441.06	16.38
441.186	9.38
441.312	8.38
441.438	22.38
441.564	34.38
441.69	40.38
441.816	24.38
441.943	7.38
442.069	12.38
442.195	21.38
442.321	19.38
442.447	-15.62
442.573	-13.62
442.699	-18.62
442.825	-4.62
442.951	17.38
443.077	21.38
443.203	16.38
443.33	6.38
443.456	-3.62
443.582	-0.62
443.708	1.38
443.834	7.38
443.96	10.38
444.086	-6.62
444.212	32.38
444.338	21.38
444.464	25.38
444.59	21.38
444.716	16.38
444.842	4.38
444.968	7.38
445.094	-6.62
445.22	7.38
445.346	-5.62
445.472	6.38
445.598	7.38
445.724	0.38
445.85	8.38
445.976	-2.62
446.102	26.38
446.228	19.38
446.354	7.38
446.48	-15.62
446.605	4.38
446.731	1.38
446.857	7.38
446.983	7.38
447.109	11.38
447.235	12.38
447.361	-8.62
447.487	4.38
447.613	9.38
447.739	9.38
447.865	25.38
447.99	1.38
448.116	1.38
448.242	11.38
448.368	11.38
448.494	-15.62
448.62	22.38
448.746	8.38
448.872	13.38
448.997	-8.62
449.123	15.38
449.249	25.38
449.375	42.38
449.501	-2.62
449.627	16.38
449.752	32.38
449.878	-3.62
450.004	1.38
450.13	0.38
450.256	-4.62
450.381	22.38
450.507	11.38
450.633	10.38
450.759	21.38
450.884	-4.62
451.01	16.38
451.136	9.38
451.262	5.38
451.388	8.38
451.513	0.38
451.639	2.38
451.765	16.38
451.89	4.38
452.016	2.38
452.142	2.38
452.268	10.38
452.393	7.38
452.519	-0.62
452.645	4.38
452.771	-9.62
452.896	-6.62
453.022	-8.62
453.148	14.38
453.273	5.38
453.399	3.38
453.525	-9.62
453.65	16.38
453.776	25.38
453.902	36.38
454.027	41.38
454.153	22.38
454.279	7.38
454.404	7.38
454.53	21.38
454.656	33.38
454.781	0.38
454.907	-9.62
455.032	-0.62
455.158	18.38
455.284	4.38
455.409	13.38
455.535	9.38
455.66	14.38
455.786	5.38
455.912	4.38
456.037	-4.62
456.163	14.38
456.288	15.38
456.414	-0.62
456.539	7.38
456.665	35.38
456.791	-4.62
456.916	-1.62
457.042	9.38
457.167	2.38
457.293	16.38
457.418	2.38
457.544	0.38
457.669	-5.62
457.795	1.38
457.92	5.38
458.046	-6.62
458.171	35.38
458.297	-2.62
458.422	-0.62
458.548	-5.62
458.673	20.38
458.799	3.38
458.924	-4.62
459.05	21.38
459.175	6.38
459.301	28.38
459.426	23.38
459.552	13.38
459.677	12.38
459.803	32.38
459.928	-7.62
460.053	3.38
460.179	12.38
460.304	25.38
460.43	-4.62
460.555	7.38
460.681	18.38
460.806	8.38
460.931	26.38
461.057	27.38
461.182	7.38
461.308	29.38
461.433	32.38
461.558	-11.62
461.684	24.38
461.809	13.38
461.934	-21.62
462.06	16.38
462.185	4.38
462.311	10.38
462.436	5.38
462.561	16.38
462.687	3.38
462.812	5.38
462.937	-2.62
463.063	0.38
463.188	3.38
463.313	5.38
463.439	11.38
463.564	3.38
463.689	22.38
463.814	23.38
463.94	31.38
464.065	27.38
464.19	14.38
464.316	-5.62
464.441	-1.62
464.566	5.38
464.692	9.38
464.817	19.38
464.942	5.38
465.067	17.38
465.193	-22.62
465.318	14.38
465.443	13.38
465.568	2.38
465.694	16.38
465.819	28.38
465.944	3.38
466.069	15.38
466.194	19.38
466.32	22.38
466.445	7.38
466.57	-8.62
466.695	5.38
466.82	22.38
466.946	36.38
467.071	6.38
467.196	7.38
467.321	11.38
467.446	5.38
467.572	4.38
467.697	-7.62
467.822	7.38
467.947	25.38
468.072	5.38
468.197	-5.62
468.323	-12.62
468.448	-12.62
468.573	4.38
468.698	19.38
468.823	17.38
468.948	23.38
469.073	15.38
469.198	37.38
469.324	31.38
469.449	7.38
469.574	14.38
469.699	30.38
469.824	22.38
469.949	9.38
470.074	17.38
470.199	35.38
470.324	26.38
470.449	14.38
470.574	-1.62
470.7	10.38
470.825	23.38
470.95	31.38
471.075	-6.62
471.2	14.38
471.325	24.38
471.45	19.38
471.575	-11.62
471.7	33.38
471.825	8.38
471.95	-4.62
472.075	4.38
472.2	5.38
472.325	12.38
472.45	6.38
472.575	-0.62
472.7	12.38
472.825	20.38
472.95	4.38
473.075	9.38
473.2	-11.62
473.325	22.38
473.45	0.38
473.575	-2.62
473.7	6.38
473.825	-2.62
473.95	16.38
474.075	17.38
474.2	12.38
474.325	0.38
474.45	23.38
474.574	19.38
474.699	16.38
474.824	23.38
474.949	8.38
475.074	7.38
475.199	20.38
475.324	22.38
475.449	13.38
475.574	19.38
475.699	9.38
475.824	11.38
475.949	11.38
476.073	-12.62
476.198	5.38
476.323	13.38
476.448	-3.62
476.573	9.38
476.698	7.38
476.823	-11.62
476.947	4.38
477.072	5.38
477.197	17.38
477.322	11.38
477.447	3.38
477.572	23.38
477.697	-11.62
477.821	6.38
477.946	15.38
478.071	14.38
478.196	31.38
478.321	8.38
478.445	8.38
478.57	14.38
478.695	-3.62
478.82	13.38
478.945	12.38
479.069	1.38
479.194	9.38
479.319	18.38
479.444	16.38
479.569	-17.62
479.693	2.38
479.818	9.38
479.943	15.38
480.068	29.38
480.192	-0.62
480.317	4.38
480.442	17.38
480.567	7.38
480.691	36.38
480.816	2.38
480.941	26.38
481.066	20.38
481.19	23.38
481.315	38.38
481.44	1.38
481.564	-5.62
481.689	16.38
481.814	10.38
481.938	17.38
482.063	14.38
482.188	17.38
482.313	30.38
482.437	23.38
482.562	24.38
482.687	18.38
482.811	35.38
482.936	25.38
483.061	28.38
483.185	23.38
483.31	24.38
483.435	19.38
483.559	25.38
483.684	9.38
483.808	36.38
483.933	20.38
484.058	13.38
484.182	20.38
484.307	16.38
484.432	16.38
484.556	10.38
484.681	11.38
484.805	25.38
484.93	35.38
485.055	53.38
485.179	80.38
485.304	100.38
485.428	355.38
485.553	1277.38
485.678	1746.38
485.802	1687.38
485.927	1825.38
486.051	2671.38
486.176	1599.38
486.3	443.38
486.425	129.38
486.549	77.38
486.674	60.38
486.799	44.38
486.923	22.38
487.048	31.38
487.172	34.38
487.297	36.38
487.421	41.38
487.546	9.38
487.67	23.38
487.795	5.38
487.919	22.38
488.044	27.38
488.168	25.38
488.293	4.38
488.417	15.38
488.542	21.38
488.666	16.38
488.791	22.38
488.915	27.38
489.04	20.38
489.164	35.38
489.289	42.38
489.413	-0.62
489.538	27.38
489.662	31.38
489.786	10.38
489.911	3.38
490.035	10.38
490.16	28.38
490.284	-9.62
490.409	5.38
490.533	8.38
490.658	41.38
490.782	7.38
490.906	9.38
491.031	7.38
491.155	16.38
491.28	34.38
491.404	5.38
491.528	21.38
491.653	25.38
491.777	27.38
491.902	11.38
492.026	30.38
492.15	29.38
492.275	45.38
492.399	12.38
492.524	5.38
492.648	20.38
492.772	21.38
492.897	25.38
493.021	17.38
493.145	17.38
493.27	20.38
493.394	11.38
493.518	8.38
493.643	-4.62
493.767	25.38
493.891	17.38
494.016	11.38
494.14	20.38
494.264	21.38
494.389	34.38
494.513	0.38
494.637	3.38
494.762	23.38
494.886	21.38
495.01	13.38
495.134	15.38
495.259	33.38
495.383	10.38
495.507	13.38
495.632	30.38
495.756	35.38
495.88	12.38
496.004	15.38
496.129	-11.62
496.253	24.38
496.377	24.38
496.501	18.38
496.626	-7.62
496.75	19.38
496.874	29.38
496.998	9.38
497.123	28.38
497.247	-2.62
497.371	9.38
497.495	4.38
497.62	12.38
497.744	12.38
497.868	12.38
497.992	2.38
498.116	16.38
498.241	10.38
498.365	9.38
498.489	5.38
498.613	14.38
498.737	-2.62
498.862	8.38
498.986	15.38
499.11	16.38
499.234	11.38
499.358	8.38
499.482	-0.62
499.607	7.38
499.731	33.38
499.855	15.38
499.979	13.38
500.103	26.38
500.227	19.38
500.351	5.38
500.476	4.38
500.6	18.38
500.724	12.38
500.848	9.38
500.972	24.38
501.096	21.38
501.22	19.38
501.344	-3.62
501.469	14.38
501.593	10.38
501.717	30.38
501.841	12.38
501.965	23.38
502.089	3.38
502.213	22.38
502.337	16.38
502.461	3.38
502.585	-8.62
502.709	21.38
502.834	8.38
502.958	5.38
503.082	10.38
503.206	5.38
503.33	22.38
503.454	21.38
503.578	19.38
503.702	40.38
503.826	16.38
503.95	18.38
504.074	23.38
504.198	12.38
504.322	-2.62
504.446	1.38
504.57	9.38
504.694	20.38
504.818	23.38
504.942	17.38
505.066	-0.62
505.19	22.38
505.314	14.38
505.438	15.38
505.562	-3.62
505.686	12.38
505.81	3.38
505.934	28.38
506.058	17.38
506.182	19.38
506.306	24.38
506.43	-1.62
506.554	12.38
506.678	4.38
506.802	2.38
506.926	25.38
507.05	45.38
507.174	15.38
507.298	35.38
507.422	15.38
507.546	35.38
507.67	14.38
507.794	-12.62
507.918	17.38
508.042	8.38
508.165	7.38
508.289	3.38
508.413	15.38
508.537	2.38
508.661	30.38
508.785	20.38
508.909	9.38
509.033	23.38
509.157	13.38
509.281	1.38
509.405	3.38
509.528	23.38
509.652	22.38
509.776	8.38
509.9	26.38
510.024	3.38
510.148	-2.62
510.272	10.38
510.396	14.38
510.519	-4.62
510.643	15.38
510.767	13.38
510.891	15.38
511.015	-0.62
511.139	4.38
511.263	32.38
511.386	21.38
511.51	20.38
511.634	18.38
511.758	5.38
511.882	11.38
512.006	22.38
512.129	28.38
512.253	37.38
512.377	10.38
512.501	18.38
512.625	7.38
512.748	-6.62
512.872	20.38
512.996	5.38
513.12	8.38
513.244	7.38
513.367	14.38
513.491	2.38
513.615	18.38
513.739	8.38
513.862	8.38
513.986	20.38
514.11	23.38
514.234	6.38
514.358	25.38
514.481	29.38
514.605	19.38
514.729	29.38
514.853	27.38
514.976	-5.62
515.1	22.38
515.224	49.38
515.348	28.38
515.471	-0.62
515.595	10.38
515.719	9.38
515.842	29.38
515.966	6.38
516.09	24.38
516.214	11.38
516.337	33.38
516.461	9.38
516.585	8.38
516.708	23.38
516.832	11.38
516.956	17.38
517.08	19.38
517.203	0.38
517.327	11.38
517.451	43.38
517.574	39.38
517.698	5.38
517.822	41.38
517.945	27.38
518.069	40.38
518.193	49.38
518.316	43.38
518.44	34.38
518.564	34.38
518.687	24.38
518.811	33.38
518.935	63.38
519.058	15.38
519.182	37.38
519.306	47.38
519.429	35.38
519.553	58.38
519.676	40.38
519.8	13.38
519.924	1.38
520.047	10.38
520.171	-9.62
520.294	4.38
520.418	6.38
520.542	-2.62
520.665	12.38
520.789	20.38
520.913	7.38
521.036	-6.62
521.16	0.38
521.283	20.38
521.407	26.38
521.53	-6.62
521.654	-16.62
521.778	21.38
521.901	17.38
522.025	9.38
522.148	5.38
522.272	31.38
522.395	12.38
522.519	17.38
522.643	-5.62
522.766	12.38
522.89	21.38
523.013	25.38
523.137	3.38
523.26	7.38
523.384	6.38
523.507	-4.62
523.631	15.38
523.754	10.38
523.878	17.38
524.002	10.38
524.125	9.38
524.249	5.38
524.372	13.38
524.496	14.38
524.619	24.38
524.743	20.38
524.866	12.38
524.99	8.38
525.113	-0.62
525.237	29.38
525.36	12.38
525.484	10.38
525.607	-3.62
525.731	-14.62
525.854	28.38
525.978	31.38
526.101	6.38
526.224	-0.62
526.348	10.38
526.471	21.38
526.595	16.38
526.718	8.38
526.842	-0.62
526.965	20.38
527.089	1.38
527.212	18.38
527.336	11.38
527.459	20.38
527.582	10.38
527.706	19.38
527.829	3.38
527.953	8.38
528.076	-16.62
528.2	4.38
528.323	13.38
528.446	22.38
528.57	25.38
528.693	28.38
528.817	1.38
528.94	38.38
529.064	36.38
529.187	25.38
529.31	17.38
529.434	13.38
529.557	22.38
529.68	20.38
529.804	-0.62
529.927	20.38
530.051	14.38
530.174	-1.62
530.297	17.38
530.421	28.38
530.544	28.38
530.668	12.38
530.791	-1.62
530.914	31.38
531.038	7.38
531.161	8.38
531.284	21.38
531.408	18.38
531.531	-0.62
531.654	5.38
531.778	18.38
531.901	-5.62
532.024	8.38
532.148	16.38
532.271	36.38
532.394	11.38
532.518	24.38
532.641	8.38
532.764	26.38
532.888	22.38
533.011	-0.62
533.134	-10.62
533.258	38.38
533.381	20.38
533.504	23.38
533.628	-5.62
533.751	7.38
533.874	3.38
533.997	16.38
534.121	9.38
534.244	4.38
534.367	14.38
534.491	13.38
534.614	17.38
534.737	20.38
534.86	23.38
534.984	11.38
535.107	-2.62
535.23	16.38
535.354	17.38
535.477	10.38
535.6	16.38
535.723	19.38
535.847	15.38
535.97	2.38
536.093	21.38
536.216	2.38
536.34	23.38
536.463	-3.62
536.586	21.38
536.709	18.38
536.833	10.38
536.956	4.38
537.079	0.38
537.202	27.38
537.325	13.38
537.449	-2.62
537.572	5.38
537.695	6.38
537.818	7.38
537.941	18.38
538.065	9.38
538.188	-2.62
538.311	4.38
538.434	22.38
538.558	-0.62
538.681	5.38
538.804	11.38
538.927	18.38
539.05	3.38
539.173	5.38
539.297	3.38
539.42	15.38
539.543	15.38
539.666	21.38
539.789	6.38
539.913	7.38
540.036	14.38
540.159	18.38
540.282	3.38
540.405	-10.62
540.528	-0.62
540.651	18.38
540.775	15.38
540.898	10.38
541.021	-14.62
541.144	19.38
541.267	17.38
541.39	6.38
541.513	28.38
541.637	-0.62
541.76	5.38
541.883	6.38
542.006	5.38
542.129	7.38
542.252	19.38
542.375	21.38
542.498	6.38
542.622	13.38
542.745	24.38
542.868	16.38
542.991	25.38
543.114	4.38
543.237	35.38
543.36	21.38
543.483	14.38
543.606	24.38
543.73	18.38
543.853	-15.62
543.976	-0.62
544.099	20.38
544.222	16.38
544.345	5.38
544.468	13.38
544.591	18.38
544.714	12.38
544.837	19.38
544.96	7.38
545.083	28.38
545.206	13.38
545.329	24.38
545.453	12.38
545.576	10.38
545.699	3.38
545.822	3.38
545.945	8.38
546.068	9.38
546.191	19.38
546.314	21.38
546.437	17.38
546.56	22.38
546.683	17.38
546.806	23.38
546.929	16.38
547.052	12.38
547.175	2.38
547.298	17.38
547.421	-2.62
547.544	-0.62
547.667	15.38
547.79	16.38
547.913	-15.62
548.036	-2.62
548.159	15.38
548.282	8.38
548.405	-14.62
548.528	12.38
548.651	6.38
548.774	4.38
548.897	16.38
549.02	38.38
549.143	27.38
549.266	20.38
549.389	18.38
549.512	4.38
549.635	23.38
549.758	37.38
549.881	6.38
550.004	9.38
550.127	16.38
550.25	-2.62
550.373	5.38
550.496	15.38
550.619	1.38
550.742	-23.62
550.865	-6.62
550.988	8.38
551.111	32.38
551.234	17.38
551.356	-9.62
551.479	-4.62
551.602	-10.62
551.725	7.38
551.848	29.38
551.971	26.38
552.094	24.38
552.217	9.38
552.34	13.38
552.463	-3.62
552.586	18.38
552.709	6.38
552.832	16.38
552.955	16.38
553.077	19.38
553.2	18.38
553.323	-14.62
553.446	17.38
553.569	8.38
553.692	9.38
553.815	1.38
553.938	13.38
554.061	24.38
554.184	9.38
554.306	22.38
554.429	18.38
554.552	0.38
554.675	4.38
554.798	2.38
554.921	18.38
555.044	8.38
555.167	-4.62
555.29	0.38
555.412	11.38
555.535	18.38
555.658	13.38
555.781	19.38
555.904	21.38
556.027	6.38
556.15	12.38
556.272	13.38
556.395	16.38
556.518	3.38
556.641	17.38
556.764	21.38
556.887	16.38
557.01	5.38
557.132	-11.62
557.255	13.38
557.378	24.38
557.501	2.38
557.624	12.38
557.747	-3.62
557.869	8.38
557.992	3.38
558.115	19.38
558.238	9.38
558.361	8.38
558.483	40.38
558.606	18.38
558.729	-8.62
558.852	41.38
558.975	42.38
559.098	25.38
559.22	19.38
559.343	8.38
559.466	4.38
559.589	16.38
559.712	25.38
559.834	9.38
559.957	3.38
560.08	26.38
560.203	10.38
560.325	23.38
560.448	27.38
560.571	17.38
560.694	12.38
560.817	39.38
560.939	17.38
561.062	3.38
561.185	11.38
561.308	18.38
561.43	5.38
561.553	-4.62
561.676	9.38
561.799	22.38
561.921	7.38
562.044	3.38
562.167	-15.62
562.29	26.38
562.413	9.38
562.535	16.38
562.658	-3.62
562.781	2.38
562.903	2.38
563.026	6.38
563.149	35.38
563.272	6.38
563.394	13.38
563.517	3.38
563.64	-11.62
563.763	2.38
563.885	27.38
564.008	36.38
564.131	17.38
564.254	-6.62
564.376	9.38
564.499	-9.62
564.622	16.38
564.744	14.38
564.867	3.38
564.99	6.38
565.113	19.38
565.235	4.38
565.358	-15.62
565.481	-14.62
565.603	10.38
565.726	-2.62
565.849	14.38
565.971	12.38
566.094	-7.62
566.217	-11.62
566.34	3.38
566.462	18.38
566.585	20.38
566.708	13.38
566.83	10.38
566.953	16.38
567.076	17.38
567.198	10.38
567.321	2.38
567.444	2.38
567.566	7.38
567.689	1.38
567.812	13.38
567.934	25.38
568.057	15.38
568.18	21.38
568.302	13.38
568.425	-3.62
568.548	18.38
568.67	8.38
568.793	16.38
568.916	11.38
569.038	-2.62
569.161	10.38
569.283	15.38
569.406	11.38
569.529	0.38
569.651	-11.62
569.774	9.38
569.897	-2.62
570.019	16.38
570.142	31.38
570.265	11.38
570.387	-1.62
570.51	10.38
570.632	23.38
570.755	9.38
570.878	10.38
571	6.38
571.123	-1.62
571.246	10.38
571.368	-9.62
571.491	17.38
571.613	19.38
571.736	-3.62
571.859	2.38
571.981	0.38
572.104	-4.62
572.226	-1.62
572.349	-2.62
572.472	-1.62
572.594	18.38
572.717	9.38
572.839	21.38
572.962	9.38
573.085	8.38
573.207	10.38
573.33	19.38
573.452	12.38
573.575	16.38
573.697	17.38
573.82	16.38
573.943	8.38
574.065	8.38
574.188	-3.62
574.31	20.38
574.433	2.38
574.555	24.38
574.678	11.38
574.801	7.38
574.923	-4.62
575.046	-4.62
575.168	3.38
575.291	0.38
575.413	-2.62
575.536	6.38
575.659	4.38
575.781	-3.62
575.904	6.38
576.026	-0.62
576.149	-4.62
576.271	34.38
576.394	26.38
576.516	8.38
576.639	7.38
576.761	5.38
576.884	-3.62
577.007	2.38
577.129	27.38
577.252	17.38
577.374	27.38
577.497	12.38
577.619	8.38
577.742	-0.62
577.864	35.38
577.987	27.38
578.109	29.38
578.232	26.38
578.354	14.38
578.477	5.38
578.599	0.38
578.722	9.38
578.844	5.38
578.967	14.38
579.089	7.38
579.212	-13.62
579.334	4.38
579.457	9.38
579.579	20.38
579.702	-7.62
579.824	10.38
579.947	-2.62
580.069	1.38
580.192	-2.62
580.314	15.38
580.437	8.38
580.559	49.38
580.682	10.38
580.804	17.38
580.927	19.38
581.049	41.38
581.172	39.38
581.294	25.38
581.417	23.38
581.539	24.38
581.662	24.38
581.784	21.38
581.907	28.38
582.029	19.38
582.152	-8.62
582.274	31.38
582.396	25.38
582.519	21.38
582.641	-3.62
582.764	18.38
582.886	25.38
583.009	21.38
583.131	-6.62
583.254	7.38
583.376	17.38
583.499	9.38
583.621	9.38
583.743	21.38
583.866	15.38
583.988	8.38
584.111	23.38
584.233	-5.62
584.356	12.38
584.478	19.38
584.601	-11.62
584.723	1.38
584.845	26.38
584.968	-7.62
585.09	-11.62
585.213	32.38
585.335	-2.62
585.458	1.38
585.58	-0.62
585.702	16.38
585.825	11.38
585.947	5.38
586.07	-12.62
586.192	7.38
586.315	23.38
586.437	3.38
586.559	18.38
586.682	-7.62
586.804	8.38
586.927	15.38
587.049	-4.62
587.171	23.38
587.294	0.38
587.416	31.38
587.539	5.38
587.661	12.38
587.783	25.38
587.906	21.38
588.028	16.38
588.151	13.38
588.273	24.38
588.395	12.38
588.518	7.38
588.64	11.38
588.763	23.38
588.885	27.38
589.007	19.38
589.13	4.38
589.252	-11.62
589.375	17.38
589.497	11.38
589.619	-2.62
589.742	10.38
589.864	27.38
589.986	8.38
590.109	3.38
590.231	10.38
590.354	29.38
590.476	-5.62
590.598	-3.62
590.721	-16.62
590.843	16.38
590.965	21.38
591.088	15.38
591.21	13.38
591.332	15.38
591.455	-9.62
591.577	-0.62
591.7	8.38
591.822	1.38
591.944	5.38
592.067	3.38
592.189	16.38
592.311	24.38
592.434	25.38
592.556	7.38
592.678	10.38
592.801	3.38
592.923	12.38
593.045	1.38
593.168	26.38
593.29	15.38
593.412	17.38
593.535	5.38
593.657	7.38
593.779	8.38
593.902	23.38
594.024	2.38
594.146	16.38
594.269	7.38
594.391	9.38
594.513	28.38
594.636	3.38
594.758	10.38
594.88	19.38
595.003	19.38
595.125	13.38
595.247	17.38
595.37	32.38
595.492	7.38
595.614	24.38
595.737	20.38
595.859	17.38
595.981	25.38
596.104	-0.62
596.226	11.38
596.348	13.38
596.471	13.38
596.593	29.38
596.715	11.38
596.838	-6.62
596.96	-6.62
597.082	14.38
597.204	26.38
597.327	7.38
597.449	4.38
597.571	20.38
597.694	33.38
597.816	16.38
597.938	-12.62
598.061	-0.62
598.183	3.38
598.305	30.38
598.427	28.38
598.55	19.38
598.672	27.38
598.794	30.38
598.917	7.38
599.039	24.38
599.161	33.38
599.283	-0.62
599.406	27.38
599.528	15.38
599.65	32.38
599.773	20.38
599.895	42.38
600.017	9.38
600.139	0.38
600.262	0.38
600.384	7.38
600.506	3.38
600.628	34.38
600.751	18.38
600.873	8.38
600.995	-7.62
601.118	27.38
601.24	7.38
601.362	35.38
601.484	27.38
601.607	17.38
601.729	9.38
601.851	0.38
601.973	16.38
602.096	18.38
602.218	38.38
602.34	4.38
602.462	19.38
602.585	20.38
602.707	5.38
602.829	13.38
602.951	13.38
603.074	-3.62
603.196	16.38
603.318	0.38
603.44	20.38
603.563	3.38
603.685	-4.62
603.807	12.38
603.929	3.38
604.052	20.38
604.174	26.38
604.296	3.38
604.418	14.38
604.541	29.38
604.663	11.38
604.785	13.38
604.907	16.38
605.03	6.38
605.152	51.38
605.274	16.38
605.396	5.38
605.519	-1.62
605.641	-6.62
605.763	14.38
605.885	17.38
606.008	5.38
606.13	3.38
606.252	24.38
606.374	-12.62
606.496	8.38
606.619	3.38
606.741	19.38
606.863	24.38
606.985	20.38
607.108	31.38
607.23	25.38
607.352	3.38
607.474	16.38
607.596	8.38
607.719	11.38
607.841	16.38
607.963	8.38
608.085	-0.62
608.207	43.38
608.33	28.38
608.452	-4.62
608.574	14.38
608.696	27.38
608.819	9.38
608.941	11.38
609.063	14.38
609.185	7.38
609.307	21.38
609.43	20.38
609.552	13.38
609.674	-10.62
609.796	28.38
609.918	31.38
610.041	3.38
610.163	9.38
610.285	20.38
610.407	22.38
610.529	7.38
610.652	6.38
610.774	0.38
610.896	6.38
611.018	11.38
611.14	12.38
611.263	-4.62
611.385	7.38
611.507	7.38
611.629	7.38
611.751	17.38
611.873	43.38
611.996	16.38
612.118	15.38
612.24	11.38
612.362	28.38
612.484	9.38
612.607	22.38
612.729	23.38
612.851	5.38
612.973	12.38
613.095	11.38
613.218	9.38
613.34	28.38
613.462	13.38
613.584	11.38
613.706	20.38
613.828	29.38
613.951	12.38
614.073	7.38
614.195	-9.62
614.317	30.38
614.439	21.38
614.561	14.38
614.684	21.38
614.806	31.38
614.928	24.38
615.05	9.38
615.172	21.38
615.294	21.38
615.417	0.38
615.539	3.38
615.661	3.38
615.783	31.38
615.905	37.38
616.027	61.38
616.15	114.38
616.272	89.38
616.394	50.38
616.516	36.38
616.638	16.38
616.76	11.38
616.883	21.38
617.005	0.38
617.127	3.38
617.249	16.38
617.371	8.38
617.493	15.38
617.615	10.38
617.738	4.38
617.86	3.38
617.982	0.38
618.104	15.38
618.226	0.38
618.348	-5.62
618.471	14.38
618.593	17.38
618.715	14.38
618.837	9.38
618.959	11.38
619.081	18.38
619.203	8.38
619.326	12.38
619.448	16.38
619.57	12.38
619.692	14.38
619.814	19.38
619.936	20.38
620.058	14.38
620.181	16.38
620.303	9.38
620.425	15.38
620.547	10.38
620.669	12.38
620.791	2.38
620.913	5.38
621.036	-9.62
621.158	27.38
621.28	21.38
621.402	5.38
621.524	3.38
621.646	13.38
621.768	1.38
621.891	5.38
622.013	15.38
622.135	16.38
622.257	15.38
622.379	12.38
622.501	29.38
622.623	0.38
622.745	8.38
622.868	2.38
622.99	-4.62
623.112	9.38
623.234	7.38
623.356	17.38
623.478	-8.62
623.6	9.38
623.722	3.38
623.845	3.38
623.967	13.38
624.089	19.38
624.211	11.38
624.333	-7.62
624.455	6.38
624.577	11.38
624.699	5.38
624.822	16.38
624.944	1.38
625.066	-7.62
625.188	3.38
625.31	-6.62
625.432	23.38
625.554	6.38
625.676	35.38
625.799	10.38
625.921	15.38
626.043	4.38
626.165	10.38
626.287	-4.62
626.409	27.38
626.531	8.38
626.653	6.38
626.775	3.38
626.898	14.38
627.02	7.38
627.142	28.38
627.264	18.38
627.386	-5.62
627.508	-0.62
627.63	-7.62
627.752	17.38
627.874	3.38
627.997	19.38
628.119	27.38
628.241	28.38
628.363	26.38
628.485	4.38
628.607	3.38
628.729	-12.62
628.851	7.38
628.973	3.38
629.096	-10.62
629.218	1.38
629.34	25.38
629.462	-2.62
629.584	-7.62
629.706	-4.62
629.828	25.38
629.95	31.38
630.072	6.38
630.195	23.38
630.317	17.38
630.439	16.38
630.561	20.38
630.683	-8.62
630.805	10.38
630.927	17.38
631.049	17.38
631.171	-4.62
631.293	16.38
631.416	17.38
631.538	-1.62
631.66	13.38
631.782	22.38
631.904	19.38
632.026	20.38
632.148	-2.62
632.27	-3.62
632.392	-0.62
632.514	20.38
632.637	13.38
632.759	5.38
632.881	2.38
633.003	0.38
633.125	-6.62
633.247	-11.62
633.369	5.38
633.491	3.38
633.613	20.38
633.735	-8.62
633.858	6.38
633.98	4.38
634.102	-15.62
634.224	5.38
634.346	10.38
634.468	10.38
634.59	6.38
634.712	0.38
634.834	8.38
634.956	-0.62
635.078	-6.62
635.201	-6.62
635.323	14.38
635.445	-1.62
635.567	6.38
635.689	14.38
635.811	22.38
635.933	20.38
636.055	8.38
636.177	7.38
636.299	9.38
636.421	-13.62
636.544	0.38
636.666	9.38
636.788	15.38
636.91	4.38
637.032	8.38
637.154	16.38
637.276	29.38
637.398	35.38
637.52	15.38
637.642	33.38
637.764	2.38
637.887	7.38
638.009	3.38
638.131	3.38
638.253	1.38
638.375	12.38
638.497	15.38
638.619	-2.62
638.741	-0.62
638.863	2.38
638.985	-6.62
639.107	-0.62
639.23	7.38
639.352	25.38
639.474	12.38
639.596	6.38
639.718	16.38
639.84	15.38
639.962	17.38
640.084	15.38
640.206	19.38
640.328	-2.62
640.45	17.38
640.573	2.38
640.695	10.38
640.817	15.38
640.939	33.38
641.061	4.38
641.183	-3.62
641.305	0.38
641.427	-3.62
641.549	7.38
641.671	17.38
641.793	14.38
641.915	16.38
642.038	-3.62
642.16	15.38
642.282	-2.62
642.404	8.38
642.526	3.38
642.648	1.38
642.77	-1.62
642.892	4.38
643.014	11.38
643.136	25.38
643.258	-0.62
643.381	13.38
643.503	12.38
643.625	3.38
643.747	13.38
643.869	-6.62
643.991	20.38
644.113	15.38
644.235	4.38
644.357	0.38
644.479	13.38
644.601	15.38
644.723	-1.62
644.846	12.38
644.968	2.38
645.09	15.38
645.212	8.38
645.334	33.38
645.456	23.38
645.578	15.38
645.7	9.38
645.822	13.38
645.944	14.38
646.066	3.38
646.188	-3.62
646.311	22.38
646.433	18.38
646.555	52.38
646.677	43.38
646.799	35.38
646.921	20.38
647.043	30.38
647.165	-4.62
647.287	3.38
647.409	3.38
647.531	20.38
647.654	-0.62
647.776	13.38
647.898	23.38
648.02	3.38
648.142	3.38
648.264	12.38
648.386	8.38
648.508	5.38
648.63	-0.62
648.752	12.38
648.874	-3.62
648.997	3.38
649.119	12.38
649.241	11.38
649.363	32.38
649.485	13.38
649.607	6.38
649.729	6.38
649.851	4.38
649.973	1.38
650.095	-2.62
650.217	-6.62
650.34	4.38
650.462	9.38
650.584	20.38
650.706	7.38
650.828	-3.62
650.95	-13.62
651.072	0.38
651.194	6.38
651.316	7.38
651.438	5.38
651.56	1.38
651.683	3.38
651.805	10.38
651.927	21.38
652.049	3.38
652.171	1.38
652.293	3.38
652.415	-2.62
652.537	-9.62
652.659	-2.62
652.781	2.38
652.903	22.38
653.026	16.38
653.148	10.38
653.27	0.38
653.392	17.38
653.514	24.38
653.636	7.38
653.758	3.38
653.88	8.38
654.002	-4.62
654.124	9.38
654.247	12.38
654.369	20.38
654.491	13.38
654.613	12.38
654.735	-4.62
654.857	24.38
654.979	9.38
655.101	32.38
655.223	39.38
655.345	24.38
655.468	37.38
655.59	26.38
655.712	39.38
655.834	31.38
655.956	34.38
656.078	37.38
656.2	51.38
656.322	45.38
656.444	24.38
656.566	37.38
656.689	35.38
656.811	51.38
656.933	97.38
657.055	99.38
657.177	156.38
657.299	250.38
657.421	498.38
657.543	1882.38
657.665	12616.38
657.787	15174.38
657.91	15305.38
658.032	15662.38
658.154	4687.38
658.276	3964.38
658.398	1258.38
658.52	1053.38
658.642	496.38
658.764	599.38
658.886	288.38
659.009	439.38
659.131	235.38
659.253	331.38
659.375	171.38
659.497	231.38
659.619	144.38
659.741	212.38
659.863	112.38
659.985	171.38
660.108	98.38
660.23	147.38
660.352	86.38
660.474	141.38
660.596	83.38
660.718	132.38
660.84	73.38
660.962	112.38
661.084	59.38
661.207	85.38
661.329	61.38
661.451	90.38
661.573	49.38
661.695	93.38
661.817	56.38
661.939	102.38
662.061	59.38
662.184	76.38
662.306	37.38
662.428	84.38
662.55	58.38
662.672	48.38
662.794	50.38
662.916	57.38
663.038	30.38
663.161	71.38
663.283	40.38
663.405	74.38
663.527	29.38
663.649	49.38
663.771	23.38
663.893	49.38
664.015	29.38
664.138	62.38
664.26	15.38
664.382	42.38
664.504	14.38
664.626	31.38
664.748	31.38
664.87	59.38
664.992	49.38
665.115	61.38
665.237	35.38
665.359	47.38
665.481	45.38
665.603	47.38
665.725	13.38
665.847	44.38
665.97	22.38
666.092	25.38
666.214	16.38
666.336	42.38
666.458	29.38
666.58	52.38
666.702	20.38
666.825	36.38
666.947	23.38
667.069	40.38
667.191	17.38
667.313	41.38
667.435	21.38
667.557	9.38
667.68	2.38
667.802	7.38
667.924	15.38
668.046	37.38
668.168	17.38
668.29	48.38
668.412	23.38
668.535	42.38
668.657	28.38
668.779	31.38
668.901	31.38
669.023	50.38
669.145	17.38
669.267	51.38
669.39	23.38
669.512	23.38
669.634	20.38
669.756	26.38
669.878	18.38
670	38.38
670.123	-2.62
670.245	39.38
670.367	24.38
670.489	34.38
670.611	10.38
670.733	20.38
670.856	7.38
670.978	22.38
671.1	22.38
671.222	36.38
671.344	19.38
671.466	15.38
671.589	11.38
671.711	10.38
671.833	15.38
671.955	12.38
672.077	14.38
672.199	39.38
672.322	38.38
672.444	31.38
672.566	24.38
672.688	29.38
672.81	21.38
672.932	11.38
673.055	25.38
673.177	-4.62
673.299	32.38
673.421	17.38
673.543	9.38
673.665	21.38
673.788	18.38
673.91	18.38
674.032	4.38
674.154	9.38
674.276	19.38
674.399	10.38
674.521	5.38
674.643	22.38
674.765	5.38
674.887	25.38
675.009	1.38
675.132	19.38
675.254	5.38
675.376	33.38
675.498	10.38
675.62	33.38
675.743	9.38
675.865	20.38
675.987	14.38
676.109	17.38
676.231	38.38
676.354	41.38
676.476	10.38
676.598	21.38
676.72	21.38
676.842	24.38
676.965	8.38
677.087	13.38
677.209	6.38
677.331	31.38
677.453	17.38
677.576	13.38
677.698	18.38
677.82	27.38
677.942	-0.62
678.064	4.38
678.187	17.38
678.309	4.38
678.431	11.38
678.553	8.38
678.675	31.38
678.798	32.38
678.92	-4.62
679.042	-2.62
679.164	10.38
679.286	34.38
679.409	9.38
679.531	-8.62
679.653	2.38
679.775	13.38
679.898	8.38
680.02	1.38
680.142	0.38
680.264	20.38
680.386	-0.62
680.509	32.38
680.631	-0.62
680.753	11.38
680.875	-5.62
680.998	17.38
681.12	-3.62
681.242	10.38
681.364	4.38
681.486	0.38
681.609	-3.62
681.731	-2.62
681.853	3.38
681.975	18.38
682.098	17.38
682.22	31.38
682.342	-3.62
682.464	29.38
682.587	9.38
682.709	30.38
682.831	-22.62
682.953	8.38
683.076	12.38
683.198	11.38
683.32	6.38
683.442	28.38
683.565	30.38
683.687	18.38
683.809	14.38
683.931	3.38
684.054	16.38
684.176	11.38
684.298	6.38
684.42	13.38
684.543	14.38
684.665	22.38
684.787	-2.62
684.909	-6.62
685.032	22.38
685.154	7.38
685.276	23.38
685.398	7.38
685.521	5.38
685.643	38.38
685.765	16.38
685.887	12.38
686.01	19.38
686.132	25.38
686.254	-0.62
686.377	19.38
686.499	12.38
686.621	16.38
686.743	13.38
686.866	13.38
686.988	31.38
687.11	22.38
687.232	8.38
687.355	19.38
687.477	-5.62
687.599	32.38
687.722	10.38
687.844	15.38
687.966	9.38
688.088	16.38
688.211	18.38
688.333	21.38
688.455	19.38
688.578	16.38
688.7	5.38
688.822	16.38
688.944	-2.62
689.067	39.38
689.189	12.38
689.311	15.38
689.434	7.38
689.556	22.38
689.678	25.38
689.801	0.38
689.923	-2.62
690.045	7.38
690.167	30.38
690.29	32.38
690.412	-2.62
690.534	21.38
690.657	17.38
690.779	2.38
690.901	10.38
691.024	23.38
691.146	2.38
691.268	-4.62
691.391	20.38
691.513	12.38
691.635	20.38
691.758	26.38
691.88	19.38
692.002	-1.62
692.125	19.38
692.247	17.38
692.369	9.38
692.492	-2.62
692.614	-0.62
692.736	6.38
692.859	6.38
692.981	-3.62
693.103	-2.62
693.226	10.38
693.348	30.38
693.47	18.38
693.593	6.38
693.715	8.38
693.837	-6.62
693.96	-0.62
694.082	-3.62
694.204	8.38
694.327	8.38
694.449	-8.62
694.571	-4.62
694.694	9.38
694.816	37.38
694.938	1.38
695.061	4.38
695.183	15.38
695.305	31.38
695.428	10.38
695.55	-22.62
695.672	18.38
695.795	34.38
695.917	29.38
696.04	-0.62
696.162	-0.62
696.284	17.38
696.407	4.38
696.529	1.38
696.651	41.38
696.774	3.38
696.896	27.38
697.019	27.38
697.141	0.38
697.263	11.38
697.386	13.38
697.508	21.38
697.63	13.38
697.753	34.38
697.875	12.38
697.998	0.38
698.12	13.38
698.242	-0.62
698.365	5.38
698.487	-2.62
698.61	16.38
698.732	18.38
698.854	10.38
698.977	8.38
699.099	33.38
699.221	-3.62
699.344	-2.62
699.466	3.38
699.589	2.38
699.711	4.38
699.834	-4.62
699.956	5.38
700.078	9.38
700.201	-5.62
700.323	31.38
700.446	8.38
700.568	3.38
700.69	0.38
700.813	20.38
700.935	6.38
701.058	13.38
701.18	8.38
701.302	31.38
701.425	3.38
701.547	9.38
701.67	10.38
701.792	33.38
701.915	-7.62
702.037	-11.62
702.159	17.38
702.282	15.38
702.404	1.38
702.527	24.38
702.649	28.38
702.772	17.38
702.894	12.38
703.017	30.38
703.139	20.38
703.261	21.38
703.384	9.38
703.506	-9.62
703.629	-3.62
703.751	16.38
703.874	15.38
703.996	11.38
704.119	-6.62
704.241	16.38
704.364	-6.62
704.486	-0.62
704.608	3.38
704.731	5.38
704.853	9.38
704.976	8.38
705.098	9.38
705.221	6.38
705.343	8.38
705.466	10.38
705.588	21.38
705.711	14.38
705.833	11.38
705.956	-2.62
706.078	19.38
706.201	5.38
706.323	7.38
706.446	10.38
