Data from LowRes_H2_15_26_11_07_2024_HR4C61881__30__15-28-16-637.txt Node

Date: Thu Nov 07 15:28:16 EST 2024
User: crc00042
Spectrometer: HR4C6188
Trigger mode: 4
Integration Time (sec): 1.000000E-1
Scans to average: 1
Electric dark correction enabled: true
Nonlinearity correction enabled: false
Boxcar width: 0
XAxis mode: Wavelengths
Number of Pixels in Spectrum: 3648
>>>>>Begin Spectral Data<<<<<
245.66	-110.92
245.797	-110.92
245.934	-110.92
246.071	-73.92
246.208	18.08
246.344	7.08
246.481	8.08
246.618	11.08
246.755	10.08
246.892	6.08
247.029	-24.92
247.165	-21.92
247.302	5.08
247.439	-7.92
247.576	1.08
247.713	-15.92
247.849	30.08
247.986	-7.92
248.123	-8.92
248.26	-11.92
248.396	10.08
248.533	2.08
248.67	-16.92
248.806	2.08
248.943	7.08
249.08	4.08
249.216	-2.92
249.353	-37.92
249.49	-0.92
249.626	-4.92
249.763	-6.92
249.9	-10.92
250.036	1.08
250.173	12.08
250.309	19.08
250.446	14.08
250.582	2.08
250.719	-13.92
250.856	-0.92
250.992	-2.92
251.129	12.08
251.265	-3.92
251.402	19.08
251.538	8.08
251.675	3.08
251.811	16.08
251.948	22.08
252.084	6.08
252.221	-3.92
252.357	-3.92
252.493	25.08
252.63	-6.92
252.766	29.08
252.903	6.08
253.039	-4.92
253.175	8.08
253.312	14.08
253.448	-12.92
253.585	-29.92
253.721	4.08
253.857	-12.92
253.994	2.08
254.13	-5.92
254.266	0.08
254.403	22.08
254.539	19.08
254.675	8.08
254.811	-0.92
254.948	12.08
255.084	14.08
255.22	-0.92
255.356	-16.92
255.493	9.08
255.629	7.08
255.765	13.08
255.901	22.08
256.037	2.08
256.174	11.08
256.31	6.08
256.446	-1.92
256.582	6.08
256.718	21.08
256.854	28.08
256.991	11.08
257.127	15.08
257.263	12.08
257.399	15.08
257.535	2.08
257.671	-9.92
257.807	5.08
257.943	-4.92
258.079	-3.92
258.215	23.08
258.351	38.08
258.487	6.08
258.623	18.08
258.759	7.08
258.895	15.08
259.031	4.08
259.167	-15.92
259.303	26.08
259.439	11.08
259.575	8.08
259.711	-1.92
259.847	-1.92
259.983	5.08
260.119	-2.92
260.255	6.08
260.391	2.08
260.527	19.08
260.663	-2.92
260.799	16.08
260.934	13.08
261.07	11.08
261.206	-1.92
261.342	-12.92
261.478	8.08
261.614	23.08
261.749	4.08
261.885	-5.92
262.021	-8.92
262.157	25.08
262.293	-2.92
262.428	1.08
262.564	2.08
262.7	18.08
262.836	-5.92
262.971	11.08
263.107	5.08
263.243	17.08
263.378	-16.92
263.514	-17.92
263.65	6.08
263.785	-15.92
263.921	-9.92
264.057	-11.92
264.192	0.08
264.328	26.08
264.464	-13.92
264.599	-5.92
264.735	6.08
264.871	-2.92
265.006	-0.92
265.142	-3.92
265.277	7.08
265.413	3.08
265.548	5.08
265.684	27.08
265.819	-2.92
265.955	-10.92
266.091	-5.92
266.226	-0.92
266.362	13.08
266.497	11.08
266.633	11.08
266.768	-1.92
266.903	15.08
267.039	10.08
267.174	19.08
267.31	-16.92
267.445	-19.92
267.581	-8.92
267.716	26.08
267.851	13.08
267.987	10.08
268.122	15.08
268.258	9.08
268.393	-7.92
268.528	1.08
268.664	-2.92
268.799	-1.92
268.934	-10.92
269.07	-18.92
269.205	11.08
269.34	17.08
269.476	24.08
269.611	-3.92
269.746	19.08
269.881	2.08
270.017	21.08
270.152	-0.92
270.287	7.08
270.422	9.08
270.558	0.08
270.693	19.08
270.828	-12.92
270.963	-7.92
271.098	-5.92
271.234	-10.92
271.369	28.08
271.504	13.08
271.639	-4.92
271.774	-1.92
271.909	7.08
272.045	-3.92
272.18	-3.92
272.315	-10.92
272.45	-0.92
272.585	-9.92
272.72	1.08
272.855	19.08
272.99	24.08
273.125	4.08
273.26	-9.92
273.395	-18.92
273.53	-17.92
273.665	19.08
273.8	8.08
273.935	21.08
274.07	15.08
274.205	7.08
274.34	-2.92
274.475	-8.92
274.61	15.08
274.745	-5.92
274.88	4.08
275.015	-3.92
275.15	3.08
275.285	3.08
275.42	0.08
275.555	13.08
275.69	20.08
275.825	-2.92
275.959	17.08
276.094	-13.92
276.229	9.08
276.364	-9.92
276.499	6.08
276.634	11.08
276.768	12.08
276.903	-6.92
277.038	4.08
277.173	3.08
277.308	-3.92
277.442	-5.92
277.577	-7.92
277.712	1.08
277.847	1.08
277.981	8.08
278.116	-22.92
278.251	-0.92
278.386	12.08
278.52	-5.92
278.655	-6.92
278.79	-7.92
278.924	3.08
279.059	4.08
279.194	-13.92
279.328	43.08
279.463	10.08
279.598	21.08
279.732	21.08
279.867	11.08
280.001	16.08
280.136	-5.92
280.271	1.08
280.405	18.08
280.54	-2.92
280.674	-10.92
280.809	14.08
280.943	-5.92
281.078	7.08
281.213	26.08
281.347	18.08
281.482	-1.92
281.616	8.08
281.751	0.08
281.885	-3.92
282.02	18.08
282.154	-1.92
282.288	2.08
282.423	-10.92
282.557	-10.92
282.692	1.08
282.826	-7.92
282.961	7.08
283.095	-9.92
283.229	-12.92
283.364	-20.92
283.498	7.08
283.633	5.08
283.767	4.08
283.901	1.08
284.036	-1.92
284.17	-13.92
284.304	-5.92
284.439	8.08
284.573	-1.92
284.707	24.08
284.842	5.08
284.976	3.08
285.11	-4.92
285.244	21.08
285.379	33.08
285.513	2.08
285.647	-3.92
285.781	-4.92
285.916	2.08
286.05	-24.92
286.184	26.08
286.318	5.08
286.453	-1.92
286.587	-19.92
286.721	-8.92
286.855	5.08
286.989	6.08
287.123	13.08
287.258	-12.92
287.392	3.08
287.526	22.08
287.66	-1.92
287.794	7.08
287.928	-10.92
288.062	6.08
288.196	-12.92
288.33	3.08
288.464	12.08
288.598	22.08
288.733	-3.92
288.867	29.08
289.001	2.08
289.135	12.08
289.269	1.08
289.403	16.08
289.537	9.08
289.671	8.08
289.805	-20.92
289.939	11.08
290.073	7.08
290.207	18.08
290.34	-8.92
290.474	28.08
290.608	24.08
290.742	-1.92
290.876	2.08
291.01	16.08
291.144	38.08
291.278	21.08
291.412	12.08
291.546	-13.92
291.679	-1.92
291.813	-9.92
291.947	3.08
292.081	6.08
292.215	-5.92
292.349	13.08
292.482	25.08
292.616	14.08
292.75	18.08
292.884	-0.92
293.018	6.08
293.151	-16.92
293.285	21.08
293.419	-2.92
293.553	-2.92
293.686	6.08
293.82	3.08
293.954	16.08
294.088	16.08
294.221	-9.92
294.355	-16.92
294.489	1.08
294.622	-3.92
294.756	5.08
294.89	-11.92
295.023	2.08
295.157	6.08
295.291	11.08
295.424	28.08
295.558	-0.92
295.691	10.08
295.825	2.08
295.959	0.08
296.092	-4.92
296.226	6.08
296.359	15.08
296.493	23.08
296.627	10.08
296.76	2.08
296.894	-4.92
297.027	-11.92
297.161	5.08
297.294	-9.92
297.428	8.08
297.561	30.08
297.695	10.08
297.828	-0.92
297.962	10.08
298.095	-8.92
298.229	-5.92
298.362	1.08
298.495	-8.92
298.629	-9.92
298.762	2.08
298.896	-1.92
299.029	-5.92
299.162	-1.92
299.296	-0.92
299.429	4.08
299.563	-2.92
299.696	8.08
299.829	0.08
299.963	10.08
300.096	9.08
300.229	-5.92
300.363	3.08
300.496	9.08
300.629	-10.92
300.763	-3.92
300.896	-3.92
301.029	-5.92
301.162	-8.92
301.296	-6.92
301.429	6.08
301.562	-19.92
301.695	5.08
301.829	11.08
301.962	27.08
302.095	7.08
302.228	1.08
302.362	5.08
302.495	-19.92
302.628	-5.92
302.761	-1.92
302.894	-13.92
303.027	18.08
303.161	1.08
303.294	-6.92
303.427	11.08
303.56	-3.92
303.693	-4.92
303.826	15.08
303.959	0.08
304.092	3.08
304.225	7.08
304.359	-2.92
304.492	14.08
304.625	1.08
304.758	-1.92
304.891	-15.92
305.024	-5.92
305.157	-3.92
305.29	-12.92
305.423	-2.92
305.556	-9.92
305.689	11.08
305.822	-9.92
305.955	-10.92
306.088	8.08
306.221	5.08
306.354	1.08
306.487	5.08
306.62	-9.92
306.752	-5.92
306.885	12.08
307.018	8.08
307.151	15.08
307.284	-2.92
307.417	-21.92
307.55	5.08
307.683	6.08
307.816	-1.92
307.948	11.08
308.081	10.08
308.214	4.08
308.347	17.08
308.48	-9.92
308.613	-2.92
308.745	6.08
308.878	5.08
309.011	-10.92
309.144	13.08
309.277	8.08
309.409	9.08
309.542	-9.92
309.675	14.08
309.808	2.08
309.94	11.08
310.073	-8.92
310.206	-2.92
310.339	0.08
310.471	-29.92
310.604	1.08
310.737	12.08
310.869	-11.92
311.002	4.08
311.135	-9.92
311.267	-22.92
311.4	-7.92
311.533	22.08
311.665	-10.92
311.798	3.08
311.93	0.08
312.063	15.08
312.196	-6.92
312.328	8.08
312.461	-5.92
312.593	-0.92
312.726	3.08
312.859	12.08
312.991	13.08
313.124	-16.92
313.256	-8.92
313.389	4.08
313.521	6.08
313.654	-0.92
313.786	-2.92
313.919	-6.92
314.051	7.08
314.184	13.08
314.316	12.08
314.449	-4.92
314.581	-1.92
314.714	-7.92
314.846	-2.92
314.978	5.08
315.111	-13.92
315.243	5.08
315.376	26.08
315.508	27.08
315.641	14.08
315.773	22.08
315.905	-6.92
316.038	-8.92
316.17	7.08
316.302	8.08
316.435	-5.92
316.567	3.08
316.699	13.08
316.832	-9.92
316.964	-6.92
317.096	10.08
317.229	18.08
317.361	-31.92
317.493	5.08
317.625	-14.92
317.758	2.08
317.89	-2.92
318.022	-6.92
318.155	7.08
318.287	5.08
318.419	12.08
318.551	16.08
318.683	15.08
318.816	2.08
318.948	7.08
319.08	-4.92
319.212	7.08
319.344	-3.92
319.477	-8.92
319.609	28.08
319.741	26.08
319.873	-2.92
320.005	-6.92
320.137	2.08
320.269	15.08
320.401	19.08
320.534	8.08
320.666	-31.92
320.798	-21.92
320.93	0.08
321.062	-6.92
321.194	-15.92
321.326	-5.92
321.458	12.08
321.59	24.08
321.722	5.08
321.854	-2.92
321.986	-0.92
322.118	3.08
322.25	-10.92
322.382	12.08
322.514	2.08
322.646	11.08
322.778	24.08
322.91	13.08
323.042	5.08
323.174	19.08
323.306	-10.92
323.438	-16.92
323.57	8.08
323.702	6.08
323.834	-0.92
323.966	9.08
324.097	3.08
324.229	13.08
324.361	24.08
324.493	23.08
324.625	-1.92
324.757	9.08
324.889	-2.92
325.021	-0.92
325.152	15.08
325.284	31.08
325.416	-18.92
325.548	10.08
325.68	1.08
325.811	23.08
325.943	16.08
326.075	4.08
326.207	9.08
326.339	17.08
326.47	-9.92
326.602	10.08
326.734	5.08
326.866	24.08
326.997	-10.92
327.129	2.08
327.261	-29.92
327.392	-12.92
327.524	-8.92
327.656	0.08
327.787	8.08
327.919	1.08
328.051	5.08
328.182	5.08
328.314	12.08
328.446	-2.92
328.577	20.08
328.709	-1.92
328.841	2.08
328.972	12.08
329.104	-9.92
329.235	-9.92
329.367	-13.92
329.499	-1.92
329.63	6.08
329.762	-5.92
329.893	12.08
330.025	21.08
330.156	0.08
330.288	14.08
330.419	13.08
330.551	32.08
330.683	23.08
330.814	8.08
330.946	30.08
331.077	1.08
331.208	0.08
331.34	8.08
331.471	1.08
331.603	2.08
331.734	-10.92
331.866	19.08
331.997	-2.92
332.129	-4.92
332.26	4.08
332.392	40.08
332.523	17.08
332.654	-5.92
332.786	3.08
332.917	-7.92
333.048	5.08
333.18	18.08
333.311	-6.92
333.443	-10.92
333.574	10.08
333.705	31.08
333.837	-5.92
333.968	16.08
334.099	14.08
334.231	15.08
334.362	6.08
334.493	16.08
334.624	25.08
334.756	-2.92
334.887	-7.92
335.018	0.08
335.15	2.08
335.281	7.08
335.412	26.08
335.543	15.08
335.675	38.08
335.806	7.08
335.937	-4.92
336.068	17.08
336.199	33.08
336.331	5.08
336.462	1.08
336.593	8.08
336.724	-0.92
336.855	9.08
336.986	25.08
337.118	11.08
337.249	-4.92
337.38	-4.92
337.511	2.08
337.642	24.08
337.773	13.08
337.904	10.08
338.035	0.08
338.166	21.08
338.298	13.08
338.429	-8.92
338.56	22.08
338.691	1.08
338.822	8.08
338.953	11.08
339.084	17.08
339.215	12.08
339.346	-6.92
339.477	3.08
339.608	-5.92
339.739	-3.92
339.87	7.08
340.001	-1.92
340.132	9.08
340.263	7.08
340.394	8.08
340.525	13.08
340.656	11.08
340.787	-4.92
340.918	18.08
341.049	12.08
341.179	-7.92
341.31	2.08
341.441	13.08
341.572	-3.92
341.703	7.08
341.834	-10.92
341.965	24.08
342.096	11.08
342.227	1.08
342.357	-5.92
342.488	14.08
342.619	10.08
342.75	14.08
342.881	-9.92
343.012	35.08
343.142	31.08
343.273	11.08
343.404	14.08
343.535	38.08
343.666	17.08
343.796	16.08
343.927	3.08
344.058	12.08
344.189	10.08
344.319	12.08
344.45	7.08
344.581	2.08
344.712	-10.92
344.842	5.08
344.973	3.08
345.104	1.08
345.234	27.08
345.365	5.08
345.496	1.08
345.626	9.08
345.757	18.08
345.888	2.08
346.018	25.08
346.149	-2.92
346.28	17.08
346.41	-6.92
346.541	9.08
346.672	-4.92
346.802	25.08
346.933	-1.92
347.063	4.08
347.194	7.08
347.325	22.08
347.455	24.08
347.586	2.08
347.716	-10.92
347.847	13.08
347.977	8.08
348.108	9.08
348.238	8.08
348.369	13.08
348.499	6.08
348.63	-19.92
348.76	2.08
348.891	15.08
349.021	13.08
349.152	3.08
349.282	13.08
349.413	-9.92
349.543	23.08
349.674	-8.92
349.804	19.08
349.935	0.08
350.065	13.08
350.196	-7.92
350.326	-5.92
350.456	4.08
350.587	13.08
350.717	7.08
350.848	15.08
350.978	5.08
351.108	-16.92
351.239	13.08
351.369	8.08
351.499	-4.92
351.63	14.08
351.76	12.08
351.89	-5.92
352.021	20.08
352.151	-0.92
352.281	-0.92
352.412	26.08
352.542	16.08
352.672	23.08
352.803	10.08
352.933	22.08
353.063	16.08
353.193	-12.92
353.324	-6.92
353.454	-9.92
353.584	15.08
353.714	2.08
353.845	6.08
353.975	-0.92
354.105	-1.92
354.235	6.08
354.365	-2.92
354.496	7.08
354.626	12.08
354.756	25.08
354.886	4.08
355.016	10.08
355.146	16.08
355.277	30.08
355.407	25.08
355.537	13.08
355.667	14.08
355.797	6.08
355.927	-0.92
356.057	4.08
356.187	-14.92
356.318	-2.92
356.448	20.08
356.578	3.08
356.708	11.08
356.838	10.08
356.968	7.08
357.098	1.08
357.228	-0.92
357.358	-11.92
357.488	13.08
357.618	31.08
357.748	22.08
357.878	2.08
358.008	-6.92
358.138	-3.92
358.268	15.08
358.398	21.08
358.528	-10.92
358.658	11.08
358.788	5.08
358.918	1.08
359.048	11.08
359.178	18.08
359.308	10.08
359.438	14.08
359.568	12.08
359.698	9.08
359.827	2.08
359.957	1.08
360.087	15.08
360.217	8.08
360.347	2.08
360.477	18.08
360.607	-5.92
360.737	17.08
360.866	-9.92
360.996	5.08
361.126	-0.92
361.256	23.08
361.386	23.08
361.516	20.08
361.645	-7.92
361.775	7.08
361.905	-36.92
362.035	26.08
362.165	15.08
362.294	4.08
362.424	28.08
362.554	31.08
362.684	-16.92
362.813	11.08
362.943	-0.92
363.073	2.08
363.203	-1.92
363.332	14.08
363.462	23.08
363.592	6.08
363.721	-18.92
363.851	3.08
363.981	4.08
364.111	2.08
364.24	-9.92
364.37	2.08
364.5	17.08
364.629	-6.92
364.759	-27.92
364.888	-13.92
365.018	6.08
365.148	17.08
365.277	26.08
365.407	14.08
365.537	11.08
365.666	2.08
365.796	3.08
365.925	11.08
366.055	20.08
366.184	6.08
366.314	-17.92
366.444	17.08
366.573	4.08
366.703	16.08
366.832	9.08
366.962	-3.92
367.091	23.08
367.221	12.08
367.35	6.08
367.48	31.08
367.609	13.08
367.739	11.08
367.868	-7.92
367.998	14.08
368.127	21.08
368.257	13.08
368.386	20.08
368.516	9.08
368.645	1.08
368.775	3.08
368.904	6.08
369.033	16.08
369.163	9.08
369.292	18.08
369.422	18.08
369.551	9.08
369.68	19.08
369.81	29.08
369.939	-14.92
370.069	8.08
370.198	11.08
370.327	-6.92
370.457	6.08
370.586	17.08
370.715	18.08
370.845	2.08
370.974	13.08
371.103	28.08
371.233	18.08
371.362	10.08
371.491	8.08
371.621	7.08
371.75	14.08
371.879	-7.92
372.008	7.08
372.138	3.08
372.267	23.08
372.396	9.08
372.525	14.08
372.655	10.08
372.784	-7.92
372.913	9.08
373.042	18.08
373.172	14.08
373.301	-0.92
373.43	-24.92
373.559	21.08
373.688	4.08
373.818	7.08
373.947	17.08
374.076	-4.92
374.205	17.08
374.334	0.08
374.463	9.08
374.593	8.08
374.722	7.08
374.851	24.08
374.98	23.08
375.109	23.08
375.238	18.08
375.367	26.08
375.496	-9.92
375.625	-7.92
375.755	15.08
375.884	40.08
376.013	16.08
376.142	-3.92
376.271	1.08
376.4	8.08
376.529	25.08
376.658	7.08
376.787	7.08
376.916	15.08
377.045	-1.92
377.174	10.08
377.303	5.08
377.432	23.08
377.561	16.08
377.69	9.08
377.819	10.08
377.948	3.08
378.077	-11.92
378.206	-4.92
378.335	-6.92
378.464	3.08
378.593	29.08
378.722	-2.92
378.851	0.08
378.98	26.08
379.108	1.08
379.237	-2.92
379.366	15.08
379.495	26.08
379.624	19.08
379.753	3.08
379.882	9.08
380.011	2.08
380.14	1.08
380.268	3.08
380.397	1.08
380.526	30.08
380.655	-17.92
380.784	-8.92
380.913	-9.92
381.041	-13.92
381.17	-9.92
381.299	1.08
381.428	25.08
381.557	24.08
381.685	13.08
381.814	17.08
381.943	14.08
382.072	1.08
382.2	17.08
382.329	-3.92
382.458	8.08
382.587	34.08
382.715	27.08
382.844	14.08
382.973	7.08
383.102	5.08
383.23	-7.92
383.359	-10.92
383.488	13.08
383.616	11.08
383.745	12.08
383.874	-6.92
384.003	-0.92
384.131	3.08
384.26	5.08
384.389	6.08
384.517	-9.92
384.646	-15.92
384.774	-6.92
384.903	19.08
385.032	21.08
385.16	4.08
385.289	15.08
385.418	5.08
385.546	8.08
385.675	14.08
385.803	19.08
385.932	14.08
386.06	-13.92
386.189	-7.92
386.318	-13.92
386.446	8.08
386.575	11.08
386.703	20.08
386.832	2.08
386.96	-26.92
387.089	22.08
387.217	12.08
387.346	7.08
387.474	-4.92
387.603	11.08
387.731	11.08
387.86	38.08
387.988	32.08
388.117	24.08
388.245	22.08
388.374	10.08
388.502	32.08
388.631	3.08
388.759	7.08
388.888	23.08
389.016	7.08
389.144	12.08
389.273	-6.92
389.401	7.08
389.53	-16.92
389.658	6.08
389.786	-14.92
389.915	-12.92
390.043	-11.92
390.172	3.08
390.3	25.08
390.428	4.08
390.557	6.08
390.685	21.08
390.813	25.08
390.942	22.08
391.07	2.08
391.198	3.08
391.327	-1.92
391.455	2.08
391.583	9.08
391.712	19.08
391.84	19.08
391.968	17.08
392.096	8.08
392.225	-11.92
392.353	21.08
392.481	9.08
392.609	27.08
392.738	7.08
392.866	9.08
392.994	-13.92
393.122	33.08
393.251	-6.92
393.379	-11.92
393.507	-0.92
393.635	-9.92
393.764	8.08
393.892	31.08
394.02	5.08
394.148	4.08
394.276	10.08
394.404	25.08
394.533	-5.92
394.661	7.08
394.789	33.08
394.917	16.08
395.045	1.08
395.173	-0.92
395.302	-10.92
395.43	20.08
395.558	14.08
395.686	16.08
395.814	9.08
395.942	-10.92
396.07	32.08
396.198	9.08
396.326	12.08
396.454	5.08
396.582	19.08
396.711	19.08
396.839	11.08
396.967	-11.92
397.095	-5.92
397.223	23.08
397.351	19.08
397.479	24.08
397.607	29.08
397.735	26.08
397.863	14.08
397.991	25.08
398.119	-3.92
398.247	3.08
398.375	-9.92
398.503	-4.92
398.631	17.08
398.759	-6.92
398.887	12.08
399.015	4.08
399.143	9.08
399.271	19.08
399.399	26.08
399.526	17.08
399.654	21.08
399.782	-9.92
399.91	27.08
400.038	39.08
400.166	5.08
400.294	-11.92
400.422	-4.92
400.55	10.08
400.678	25.08
400.805	6.08
400.933	6.08
401.061	-2.92
401.189	12.08
401.317	26.08
401.445	-0.92
401.573	22.08
401.7	1.08
401.828	-4.92
401.956	12.08
402.084	17.08
402.212	13.08
402.34	2.08
402.467	-5.92
402.595	18.08
402.723	6.08
402.851	10.08
402.978	2.08
403.106	0.08
403.234	2.08
403.362	21.08
403.489	18.08
403.617	7.08
403.745	16.08
403.873	-6.92
404	13.08
404.128	23.08
404.256	13.08
404.384	23.08
404.511	19.08
404.639	5.08
404.767	9.08
404.894	15.08
405.022	8.08
405.15	13.08
405.277	7.08
405.405	4.08
405.533	3.08
405.66	-3.92
405.788	-19.92
405.916	-10.92
406.043	-15.92
406.171	-2.92
406.299	14.08
406.426	1.08
406.554	11.08
406.681	14.08
406.809	12.08
406.937	2.08
407.064	15.08
407.192	14.08
407.319	6.08
407.447	0.08
407.574	29.08
407.702	6.08
407.83	10.08
407.957	-15.92
408.085	10.08
408.212	11.08
408.34	4.08
408.467	1.08
408.595	2.08
408.722	26.08
408.85	19.08
408.977	-18.92
409.105	16.08
409.232	17.08
409.36	24.08
409.487	18.08
409.615	11.08
409.742	47.08
409.87	34.08
409.997	35.08
410.125	43.08
410.252	56.08
410.379	45.08
410.507	32.08
410.634	16.08
410.762	8.08
410.889	19.08
411.017	11.08
411.144	28.08
411.271	2.08
411.399	2.08
411.526	11.08
411.653	25.08
411.781	21.08
411.908	15.08
412.036	3.08
412.163	21.08
412.29	31.08
412.418	6.08
412.545	25.08
412.672	-3.92
412.8	39.08
412.927	16.08
413.054	13.08
413.182	30.08
413.309	7.08
413.436	-13.92
413.564	1.08
413.691	12.08
413.818	26.08
413.945	18.08
414.073	-8.92
414.2	10.08
414.327	10.08
414.454	7.08
414.582	-2.92
414.709	-0.92
414.836	-10.92
414.963	2.08
415.091	10.08
415.218	-15.92
415.345	11.08
415.472	8.08
415.6	-17.92
415.727	24.08
415.854	6.08
415.981	6.08
416.108	1.08
416.236	8.08
416.363	21.08
416.49	-0.92
416.617	-2.92
416.744	5.08
416.871	1.08
416.998	24.08
417.126	12.08
417.253	3.08
417.38	16.08
417.507	12.08
417.634	9.08
417.761	14.08
417.888	20.08
418.015	30.08
418.143	21.08
418.27	25.08
418.397	-0.92
418.524	1.08
418.651	10.08
418.778	5.08
418.905	13.08
419.032	2.08
419.159	11.08
419.286	32.08
419.413	27.08
419.54	18.08
419.667	1.08
419.794	-2.92
419.921	17.08
420.048	15.08
420.175	20.08
420.302	-2.92
420.429	13.08
420.556	-1.92
420.683	-14.92
420.81	5.08
420.937	21.08
421.064	37.08
421.191	7.08
421.318	3.08
421.445	37.08
421.572	-5.92
421.699	31.08
421.826	11.08
421.953	15.08
422.08	12.08
422.207	-9.92
422.334	5.08
422.461	14.08
422.588	12.08
422.714	25.08
422.841	19.08
422.968	29.08
423.095	5.08
423.222	-10.92
423.349	18.08
423.476	20.08
423.603	-2.92
423.729	-3.92
423.856	-6.92
423.983	11.08
424.11	-9.92
424.237	6.08
424.364	4.08
424.491	5.08
424.617	-13.92
424.744	2.08
424.871	26.08
424.998	2.08
425.125	1.08
425.251	16.08
425.378	1.08
425.505	17.08
425.632	22.08
425.758	4.08
425.885	25.08
426.012	19.08
426.139	20.08
426.266	0.08
426.392	8.08
426.519	12.08
426.646	9.08
426.772	32.08
426.899	5.08
427.026	15.08
427.153	14.08
427.279	17.08
427.406	-0.92
427.533	7.08
427.659	22.08
427.786	14.08
427.913	37.08
428.039	22.08
428.166	15.08
428.293	-9.92
428.419	7.08
428.546	9.08
428.673	-11.92
428.799	10.08
428.926	3.08
429.053	27.08
429.179	25.08
429.306	10.08
429.433	29.08
429.559	27.08
429.686	0.08
429.812	7.08
429.939	9.08
430.066	20.08
430.192	6.08
430.319	16.08
430.445	13.08
430.572	3.08
430.699	-4.92
430.825	-4.92
430.952	27.08
431.078	20.08
431.205	19.08
431.331	4.08
431.458	11.08
431.584	5.08
431.711	19.08
431.837	9.08
431.964	13.08
432.09	14.08
432.217	6.08
432.343	16.08
432.47	23.08
432.596	17.08
432.723	-8.92
432.849	-3.92
432.976	6.08
433.102	17.08
433.229	2.08
433.355	23.08
433.482	70.08
433.608	146.08
433.735	144.08
433.861	137.08
433.987	156.08
434.114	230.08
434.24	196.08
434.367	67.08
434.493	13.08
434.62	38.08
434.746	14.08
434.872	3.08
434.999	6.08
435.125	2.08
435.252	14.08
435.378	9.08
435.504	13.08
435.631	21.08
435.757	8.08
435.883	0.08
436.01	22.08
436.136	13.08
436.262	13.08
436.389	6.08
436.515	29.08
436.641	12.08
436.768	28.08
436.894	26.08
437.02	15.08
437.147	42.08
437.273	35.08
437.399	-5.92
437.526	12.08
437.652	-10.92
437.778	24.08
437.904	13.08
438.031	19.08
438.157	30.08
438.283	11.08
438.409	-6.92
438.536	7.08
438.662	31.08
438.788	7.08
438.914	11.08
439.041	19.08
439.167	25.08
439.293	6.08
439.419	23.08
439.546	13.08
439.672	14.08
439.798	10.08
439.924	18.08
440.05	34.08
440.177	27.08
440.303	25.08
440.429	-6.92
440.555	25.08
440.681	30.08
440.807	20.08
440.934	-5.92
441.06	4.08
441.186	19.08
441.312	-1.92
441.438	30.08
441.564	47.08
441.69	14.08
441.816	9.08
441.943	10.08
442.069	22.08
442.195	16.08
442.321	26.08
442.447	-1.92
442.573	14.08
442.699	-7.92
442.825	-8.92
442.951	33.08
443.077	8.08
443.203	3.08
443.33	19.08
443.456	-1.92
443.582	25.08
443.708	7.08
443.834	18.08
443.96	20.08
444.086	-9.92
444.212	28.08
444.338	35.08
444.464	34.08
444.59	43.08
444.716	17.08
444.842	17.08
444.968	9.08
445.094	18.08
445.22	10.08
445.346	13.08
445.472	-4.92
445.598	8.08
445.724	-1.92
445.85	8.08
445.976	3.08
446.102	22.08
446.228	21.08
446.354	7.08
446.48	15.08
446.605	11.08
446.731	16.08
446.857	3.08
446.983	11.08
447.109	12.08
447.235	10.08
447.361	14.08
447.487	7.08
447.613	9.08
447.739	6.08
447.865	-0.92
447.99	-3.92
448.116	11.08
448.242	19.08
448.368	3.08
448.494	11.08
448.62	16.08
448.746	3.08
448.872	13.08
448.997	0.08
449.123	19.08
449.249	11.08
449.375	22.08
449.501	-2.92
449.627	5.08
449.752	41.08
449.878	18.08
450.004	1.08
450.13	22.08
450.256	3.08
450.381	14.08
450.507	19.08
450.633	12.08
450.759	7.08
450.884	1.08
451.01	29.08
451.136	2.08
451.262	8.08
451.388	1.08
451.513	-0.92
451.639	10.08
451.765	24.08
451.89	30.08
452.016	16.08
452.142	16.08
452.268	32.08
452.393	23.08
452.519	-4.92
452.645	7.08
452.771	2.08
452.896	7.08
453.022	4.08
453.148	29.08
453.273	15.08
453.399	8.08
453.525	8.08
453.65	19.08
453.776	28.08
453.902	22.08
454.027	32.08
454.153	14.08
454.279	7.08
454.404	10.08
454.53	28.08
454.656	37.08
454.781	15.08
454.907	15.08
455.032	12.08
455.158	29.08
455.284	28.08
455.409	31.08
455.535	30.08
455.66	11.08
455.786	24.08
455.912	7.08
456.037	7.08
456.163	13.08
456.288	7.08
456.414	3.08
456.539	2.08
456.665	31.08
456.791	10.08
456.916	23.08
457.042	12.08
457.167	-2.92
457.293	6.08
457.418	9.08
457.544	21.08
457.669	20.08
457.795	13.08
457.92	12.08
458.046	18.08
458.171	13.08
458.297	-0.92
458.422	-15.92
458.548	-13.92
458.673	17.08
458.799	11.08
458.924	2.08
459.05	5.08
459.175	-3.92
459.301	6.08
459.426	36.08
459.552	16.08
459.677	-6.92
459.803	45.08
459.928	25.08
460.053	11.08
460.179	11.08
460.304	29.08
460.43	-8.92
460.555	3.08
460.681	30.08
460.806	6.08
460.931	11.08
461.057	7.08
461.182	11.08
461.308	18.08
461.433	15.08
461.558	3.08
461.684	20.08
461.809	33.08
461.934	24.08
462.06	38.08
462.185	-7.92
462.311	3.08
462.436	8.08
462.561	19.08
462.687	7.08
462.812	26.08
462.937	10.08
463.063	-0.92
463.188	8.08
463.313	29.08
463.439	-0.92
463.564	12.08
463.689	5.08
463.814	12.08
463.94	13.08
464.065	9.08
464.19	30.08
464.316	1.08
464.441	-3.92
464.566	-12.92
464.692	9.08
464.817	-3.92
464.942	24.08
465.067	11.08
465.193	-9.92
465.318	-4.92
465.443	4.08
465.568	11.08
465.694	15.08
465.819	35.08
465.944	10.08
466.069	19.08
466.194	14.08
466.32	13.08
466.445	12.08
466.57	10.08
466.695	9.08
466.82	-4.92
466.946	17.08
467.071	10.08
467.196	9.08
467.321	27.08
467.446	11.08
467.572	9.08
467.697	-0.92
467.822	11.08
467.947	11.08
468.072	1.08
468.197	-3.92
468.323	-9.92
468.448	7.08
468.573	17.08
468.698	-3.92
468.823	7.08
468.948	12.08
469.073	17.08
469.198	22.08
469.324	17.08
469.449	6.08
469.574	14.08
469.699	29.08
469.824	15.08
469.949	19.08
470.074	26.08
470.199	47.08
470.324	42.08
470.449	30.08
470.574	4.08
470.7	15.08
470.825	5.08
470.95	28.08
471.075	-2.92
471.2	12.08
471.325	10.08
471.45	16.08
471.575	-2.92
471.7	18.08
471.825	0.08
471.95	7.08
472.075	5.08
472.2	-10.92
472.325	-1.92
472.45	13.08
472.575	-7.92
472.7	1.08
472.825	22.08
472.95	27.08
473.075	8.08
473.2	19.08
473.325	5.08
473.45	4.08
473.575	-1.92
473.7	0.08
473.825	-2.92
473.95	11.08
474.075	31.08
474.2	-8.92
474.325	-2.92
474.45	15.08
474.574	10.08
474.699	31.08
474.824	35.08
474.949	3.08
475.074	10.08
475.199	23.08
475.324	10.08
475.449	3.08
475.574	25.08
475.699	10.08
475.824	5.08
475.949	7.08
476.073	4.08
476.198	17.08
476.323	17.08
476.448	5.08
476.573	7.08
476.698	21.08
476.823	13.08
476.947	16.08
477.072	10.08
477.197	27.08
477.322	14.08
477.447	17.08
477.572	20.08
477.697	24.08
477.821	18.08
477.946	13.08
478.071	11.08
478.196	28.08
478.321	18.08
478.445	8.08
478.57	11.08
478.695	-8.92
478.82	17.08
478.945	19.08
479.069	14.08
479.194	28.08
479.319	23.08
479.444	24.08
479.569	11.08
479.693	32.08
479.818	13.08
479.943	38.08
480.068	15.08
480.192	23.08
480.317	25.08
480.442	8.08
480.567	9.08
480.691	14.08
480.816	23.08
480.941	1.08
481.066	-2.92
481.19	25.08
481.315	47.08
481.44	17.08
481.564	14.08
481.689	16.08
481.814	8.08
481.938	27.08
482.063	9.08
482.188	21.08
482.313	27.08
482.437	10.08
482.562	21.08
482.687	23.08
482.811	21.08
482.936	11.08
483.061	31.08
483.185	21.08
483.31	27.08
483.435	6.08
483.559	13.08
483.684	15.08
483.808	34.08
483.933	14.08
484.058	15.08
484.182	21.08
484.307	30.08
484.432	20.08
484.556	21.08
484.681	17.08
484.805	30.08
484.93	22.08
485.055	32.08
485.179	75.08
485.304	122.08
485.428	375.08
485.553	1269.08
485.678	1758.08
485.802	1618.08
485.927	1771.08
486.051	2633.08
486.176	1602.08
486.3	452.08
486.425	169.08
486.549	83.08
486.674	69.08
486.799	39.08
486.923	33.08
487.048	26.08
487.172	36.08
487.297	34.08
487.421	21.08
487.546	19.08
487.67	25.08
487.795	20.08
487.919	30.08
488.044	29.08
488.168	40.08
488.293	29.08
488.417	9.08
488.542	20.08
488.666	21.08
488.791	33.08
488.915	1.08
489.04	20.08
489.164	34.08
489.289	35.08
489.413	-0.92
489.538	28.08
489.662	30.08
489.786	8.08
489.911	4.08
490.035	18.08
490.16	2.08
490.284	12.08
490.409	-1.92
490.533	9.08
490.658	38.08
490.782	22.08
490.906	17.08
491.031	39.08
491.155	19.08
491.28	36.08
491.404	8.08
491.528	34.08
491.653	3.08
491.777	19.08
491.902	8.08
492.026	19.08
492.15	12.08
492.275	35.08
492.399	7.08
492.524	15.08
492.648	18.08
492.772	45.08
492.897	17.08
493.021	-3.92
493.145	22.08
493.27	35.08
493.394	6.08
493.518	2.08
493.643	8.08
493.767	22.08
493.891	5.08
494.016	7.08
494.14	6.08
494.264	22.08
494.389	23.08
494.513	3.08
494.637	10.08
494.762	19.08
494.886	26.08
495.01	15.08
495.134	10.08
495.259	22.08
495.383	13.08
495.507	10.08
495.632	41.08
495.756	51.08
495.88	29.08
496.004	20.08
496.129	9.08
496.253	29.08
496.377	3.08
496.501	26.08
496.626	2.08
496.75	21.08
496.874	22.08
496.998	2.08
497.123	32.08
497.247	3.08
497.371	-1.92
497.495	6.08
497.62	11.08
497.744	8.08
497.868	6.08
497.992	16.08
498.116	1.08
498.241	17.08
498.365	-1.92
498.489	2.08
498.613	29.08
498.737	12.08
498.862	10.08
498.986	8.08
499.11	4.08
499.234	27.08
499.358	4.08
499.482	25.08
499.607	24.08
499.731	12.08
499.855	39.08
499.979	-2.92
500.103	13.08
500.227	32.08
500.351	17.08
500.476	32.08
500.6	11.08
500.724	18.08
500.848	3.08
500.972	28.08
501.096	16.08
501.22	31.08
501.344	20.08
501.469	10.08
501.593	27.08
501.717	15.08
501.841	19.08
501.965	7.08
502.089	6.08
502.213	12.08
502.337	19.08
502.461	19.08
502.585	4.08
502.709	21.08
502.834	13.08
502.958	5.08
503.082	22.08
503.206	38.08
503.33	20.08
503.454	24.08
503.578	25.08
503.702	34.08
503.826	19.08
503.95	31.08
504.074	22.08
504.198	18.08
504.322	7.08
504.446	15.08
504.57	23.08
504.694	18.08
504.818	12.08
504.942	20.08
505.066	13.08
505.19	30.08
505.314	16.08
505.438	39.08
505.562	13.08
505.686	25.08
505.81	-0.92
505.934	29.08
506.058	23.08
506.182	4.08
506.306	6.08
506.43	9.08
506.554	-0.92
506.678	-3.92
506.802	2.08
506.926	25.08
507.05	30.08
507.174	24.08
507.298	16.08
507.422	5.08
507.546	26.08
507.67	26.08
507.794	3.08
507.918	2.08
508.042	3.08
508.165	1.08
508.289	7.08
508.413	18.08
508.537	3.08
508.661	35.08
508.785	7.08
508.909	21.08
509.033	27.08
509.157	20.08
509.281	1.08
509.405	23.08
509.528	35.08
509.652	22.08
509.776	7.08
509.9	20.08
510.024	4.08
510.148	15.08
510.272	9.08
510.396	13.08
510.519	9.08
510.643	29.08
510.767	29.08
510.891	12.08
511.015	0.08
511.139	29.08
511.263	36.08
511.386	12.08
511.51	12.08
511.634	33.08
511.758	22.08
511.882	-0.92
512.006	24.08
512.129	24.08
512.253	30.08
512.377	11.08
512.501	18.08
512.625	14.08
512.748	3.08
512.872	3.08
512.996	3.08
513.12	11.08
513.244	13.08
513.367	45.08
513.491	19.08
513.615	29.08
513.739	6.08
513.862	11.08
513.986	1.08
514.11	35.08
514.234	27.08
514.358	15.08
514.481	27.08
514.605	11.08
514.729	14.08
514.853	24.08
514.976	-0.92
515.1	2.08
515.224	26.08
515.348	19.08
515.471	17.08
515.595	24.08
515.719	6.08
515.842	45.08
515.966	0.08
516.09	29.08
516.214	13.08
516.337	22.08
516.461	29.08
516.585	37.08
516.708	29.08
516.832	30.08
516.956	19.08
517.08	13.08
517.203	-10.92
517.327	15.08
517.451	39.08
517.574	41.08
517.698	7.08
517.822	22.08
517.945	17.08
518.069	20.08
518.193	52.08
518.316	37.08
518.44	49.08
518.564	36.08
518.687	17.08
518.811	14.08
518.935	62.08
519.058	28.08
519.182	18.08
519.306	15.08
519.429	16.08
519.553	44.08
519.676	45.08
519.8	28.08
519.924	-5.92
520.047	13.08
520.171	9.08
520.294	7.08
520.418	28.08
520.542	6.08
520.665	24.08
520.789	29.08
520.913	7.08
521.036	-13.92
521.16	-0.92
521.283	-2.92
521.407	-1.92
521.53	-14.92
521.654	-15.92
521.778	17.08
521.901	34.08
522.025	21.08
522.148	18.08
522.272	11.08
522.395	14.08
522.519	15.08
522.643	-3.92
522.766	-5.92
522.89	10.08
523.013	28.08
523.137	9.08
523.26	10.08
523.384	22.08
523.507	26.08
523.631	14.08
523.754	27.08
523.878	32.08
524.002	21.08
524.125	-7.92
524.249	-6.92
524.372	13.08
524.496	13.08
524.619	11.08
524.743	4.08
524.866	6.08
524.99	27.08
525.113	17.08
525.237	21.08
525.36	7.08
525.484	17.08
525.607	11.08
525.731	-5.92
525.854	10.08
525.978	34.08
526.101	12.08
526.224	-6.92
526.348	16.08
526.471	21.08
526.595	31.08
526.718	5.08
526.842	8.08
526.965	26.08
527.089	15.08
527.212	26.08
527.336	11.08
527.459	17.08
527.582	7.08
527.706	23.08
527.829	24.08
527.953	5.08
528.076	15.08
528.2	15.08
528.323	37.08
528.446	26.08
528.57	21.08
528.693	34.08
528.817	-2.92
528.94	18.08
529.064	49.08
529.187	4.08
529.31	4.08
529.434	24.08
529.557	12.08
529.68	17.08
529.804	9.08
529.927	23.08
530.051	5.08
530.174	9.08
530.297	21.08
530.421	29.08
530.544	22.08
530.668	9.08
530.791	-9.92
530.914	24.08
531.038	32.08
531.161	7.08
531.284	23.08
531.408	5.08
531.531	6.08
531.654	2.08
531.778	13.08
531.901	-5.92
532.024	9.08
532.148	4.08
532.271	16.08
532.394	33.08
532.518	32.08
532.641	37.08
532.764	40.08
532.888	29.08
533.011	13.08
533.134	5.08
533.258	20.08
533.381	0.08
533.504	2.08
533.628	12.08
533.751	20.08
533.874	13.08
533.997	-2.92
534.121	-4.92
534.244	11.08
534.367	-5.92
534.491	6.08
534.614	17.08
534.737	20.08
534.86	19.08
534.984	5.08
535.107	18.08
535.23	11.08
535.354	10.08
535.477	17.08
535.6	10.08
535.723	7.08
535.847	-3.92
535.97	6.08
536.093	10.08
536.216	6.08
536.34	29.08
536.463	8.08
536.586	16.08
536.709	24.08
536.833	11.08
536.956	9.08
537.079	2.08
537.202	18.08
537.325	13.08
537.449	7.08
537.572	4.08
537.695	5.08
537.818	-2.92
537.941	-14.92
538.065	4.08
538.188	7.08
538.311	4.08
538.434	10.08
538.558	-1.92
538.681	15.08
538.804	10.08
538.927	33.08
539.05	11.08
539.173	15.08
539.297	10.08
539.42	18.08
539.543	11.08
539.666	25.08
539.789	30.08
539.913	10.08
540.036	6.08
540.159	3.08
540.282	3.08
540.405	3.08
540.528	5.08
540.651	20.08
540.775	7.08
540.898	21.08
541.021	24.08
541.144	18.08
541.267	15.08
541.39	8.08
541.513	6.08
541.637	5.08
541.76	5.08
541.883	-2.92
542.006	27.08
542.129	35.08
542.252	4.08
542.375	18.08
542.498	4.08
542.622	15.08
542.745	4.08
542.868	16.08
542.991	8.08
543.114	39.08
543.237	28.08
543.36	26.08
543.483	9.08
543.606	8.08
543.73	22.08
543.853	1.08
543.976	25.08
544.099	24.08
544.222	-8.92
544.345	4.08
544.468	0.08
544.591	22.08
544.714	13.08
544.837	24.08
544.96	4.08
545.083	41.08
545.206	24.08
545.329	42.08
545.453	22.08
545.576	21.08
545.699	15.08
545.822	15.08
545.945	18.08
546.068	6.08
546.191	5.08
546.314	7.08
546.437	21.08
546.56	12.08
546.683	5.08
546.806	26.08
546.929	2.08
547.052	16.08
547.175	2.08
547.298	15.08
547.421	6.08
547.544	-1.92
547.667	24.08
547.79	18.08
547.913	8.08
548.036	2.08
548.159	10.08
548.282	0.08
548.405	-2.92
548.528	11.08
548.651	18.08
548.774	14.08
548.897	21.08
549.02	26.08
549.143	10.08
549.266	10.08
549.389	11.08
549.512	-8.92
549.635	34.08
549.758	35.08
549.881	7.08
550.004	17.08
550.127	6.08
550.25	14.08
550.373	-2.92
550.496	24.08
550.619	12.08
550.742	-4.92
550.865	-7.92
550.988	21.08
551.111	23.08
551.234	6.08
551.356	-5.92
551.479	-9.92
551.602	5.08
551.725	17.08
551.848	13.08
551.971	31.08
552.094	34.08
552.217	14.08
552.34	7.08
552.463	-13.92
552.586	20.08
552.709	15.08
552.832	14.08
552.955	17.08
553.077	33.08
553.2	14.08
553.323	-2.92
553.446	7.08
553.569	-5.92
553.692	4.08
553.815	26.08
553.938	5.08
554.061	21.08
554.184	19.08
554.306	25.08
554.429	15.08
554.552	19.08
554.675	4.08
554.798	-2.92
554.921	14.08
555.044	6.08
555.167	-4.92
555.29	19.08
555.412	7.08
555.535	-1.92
555.658	9.08
555.781	24.08
555.904	28.08
556.027	22.08
556.15	18.08
556.272	-1.92
556.395	36.08
556.518	3.08
556.641	22.08
556.764	31.08
556.887	23.08
557.01	12.08
557.132	6.08
557.255	19.08
557.378	17.08
557.501	13.08
557.624	33.08
557.747	23.08
557.869	8.08
557.992	28.08
558.115	18.08
558.238	14.08
558.361	26.08
558.483	21.08
558.606	12.08
558.729	0.08
558.852	34.08
558.975	22.08
559.098	23.08
559.22	13.08
559.343	-7.92
559.466	16.08
559.589	18.08
559.712	16.08
559.834	20.08
559.957	14.08
560.08	4.08
560.203	30.08
560.325	34.08
560.448	18.08
560.571	10.08
560.694	13.08
560.817	17.08
560.939	12.08
561.062	10.08
561.185	5.08
561.308	15.08
561.43	1.08
561.553	11.08
561.676	-0.92
561.799	5.08
561.921	11.08
562.044	-5.92
562.167	-11.92
562.29	14.08
562.413	10.08
562.535	5.08
562.658	-6.92
562.781	7.08
562.903	-5.92
563.026	23.08
563.149	38.08
563.272	24.08
563.394	22.08
563.517	26.08
563.64	-5.92
563.763	-14.92
563.885	19.08
564.008	15.08
564.131	16.08
564.254	6.08
564.376	18.08
564.499	-10.92
564.622	-4.92
564.744	9.08
564.867	5.08
564.99	11.08
565.113	25.08
565.235	13.08
565.358	5.08
565.481	-7.92
565.603	11.08
565.726	-11.92
565.849	22.08
565.971	24.08
566.094	-0.92
566.217	13.08
566.34	24.08
566.462	19.08
566.585	16.08
566.708	30.08
566.83	23.08
566.953	25.08
567.076	1.08
567.198	-0.92
567.321	0.08
567.444	11.08
567.566	-4.92
567.689	-7.92
567.812	-1.92
567.934	23.08
568.057	25.08
568.18	22.08
568.302	9.08
568.425	-1.92
568.548	-0.92
568.67	22.08
568.793	6.08
568.916	17.08
569.038	17.08
569.161	14.08
569.283	26.08
569.406	15.08
569.529	9.08
569.651	15.08
569.774	-3.92
569.897	6.08
570.019	23.08
570.142	16.08
570.265	14.08
570.387	18.08
570.51	28.08
570.632	33.08
570.755	11.08
570.878	-7.92
571	11.08
571.123	13.08
571.246	11.08
571.368	11.08
571.491	6.08
571.613	-0.92
571.736	10.08
571.859	-4.92
571.981	5.08
572.104	-2.92
572.226	18.08
572.349	3.08
572.472	26.08
572.594	19.08
572.717	4.08
572.839	-6.92
572.962	21.08
573.085	31.08
573.207	30.08
573.33	6.08
573.452	34.08
573.575	23.08
573.697	18.08
573.82	21.08
573.943	-0.92
574.065	11.08
574.188	22.08
574.31	30.08
574.433	31.08
574.555	29.08
574.678	22.08
574.801	26.08
574.923	11.08
575.046	1.08
575.168	9.08
575.291	2.08
575.413	7.08
575.536	-2.92
575.659	18.08
575.781	7.08
575.904	8.08
576.026	34.08
576.149	3.08
576.271	10.08
576.394	9.08
576.516	19.08
576.639	10.08
576.761	10.08
576.884	2.08
577.007	-8.92
577.129	28.08
577.252	3.08
577.374	25.08
577.497	19.08
577.619	3.08
577.742	5.08
577.864	21.08
577.987	3.08
578.109	21.08
578.232	33.08
578.354	21.08
578.477	18.08
578.599	18.08
578.722	2.08
578.844	-16.92
578.967	11.08
579.089	15.08
579.212	-4.92
579.334	13.08
579.457	9.08
579.579	15.08
579.702	3.08
579.824	10.08
579.947	8.08
580.069	-12.92
580.192	-17.92
580.314	8.08
580.437	7.08
580.559	38.08
580.682	30.08
580.804	22.08
580.927	22.08
581.049	36.08
581.172	8.08
581.294	13.08
581.417	17.08
581.539	23.08
581.662	19.08
581.784	9.08
581.907	13.08
582.029	24.08
582.152	11.08
582.274	19.08
582.396	27.08
582.519	20.08
582.641	-2.92
582.764	15.08
582.886	25.08
583.009	17.08
583.131	13.08
583.254	8.08
583.376	27.08
583.499	5.08
583.621	24.08
583.743	22.08
583.866	17.08
583.988	7.08
584.111	31.08
584.233	27.08
584.356	20.08
584.478	21.08
584.601	-1.92
584.723	10.08
584.845	45.08
584.968	12.08
585.09	14.08
585.213	22.08
585.335	-15.92
585.458	8.08
585.58	15.08
585.702	24.08
585.825	35.08
585.947	17.08
586.07	6.08
586.192	14.08
586.315	24.08
586.437	-13.92
586.559	2.08
586.682	2.08
586.804	18.08
586.927	20.08
587.049	5.08
587.171	28.08
587.294	23.08
587.416	38.08
587.539	6.08
587.661	-4.92
587.783	1.08
587.906	5.08
588.028	27.08
588.151	14.08
588.273	16.08
588.395	5.08
588.518	9.08
588.64	6.08
588.763	26.08
588.885	32.08
589.007	49.08
589.13	-2.92
589.252	-2.92
589.375	11.08
589.497	4.08
589.619	17.08
589.742	19.08
589.864	19.08
589.986	25.08
590.109	3.08
590.231	11.08
590.354	16.08
590.476	-0.92
590.598	-1.92
590.721	-13.92
590.843	-1.92
590.965	5.08
591.088	36.08
591.21	16.08
591.332	22.08
591.455	-2.92
591.577	-6.92
591.7	1.08
591.822	28.08
591.944	16.08
592.067	10.08
592.189	12.08
592.311	27.08
592.434	11.08
592.556	17.08
592.678	15.08
592.801	18.08
592.923	24.08
593.045	-1.92
593.168	23.08
593.29	13.08
593.412	32.08
593.535	13.08
593.657	3.08
593.779	19.08
593.902	15.08
594.024	8.08
594.146	23.08
594.269	18.08
594.391	-0.92
594.513	13.08
594.636	4.08
594.758	-5.92
594.88	24.08
595.003	15.08
595.125	8.08
595.247	17.08
595.37	11.08
595.492	12.08
595.614	35.08
595.737	20.08
595.859	0.08
595.981	10.08
596.104	9.08
596.226	4.08
596.348	6.08
596.471	6.08
596.593	13.08
596.715	1.08
596.838	21.08
596.96	0.08
597.082	12.08
597.204	14.08
597.327	25.08
597.449	20.08
597.571	27.08
597.694	23.08
597.816	14.08
597.938	5.08
598.061	-1.92
598.183	15.08
598.305	18.08
598.427	10.08
598.55	19.08
598.672	20.08
598.794	7.08
598.917	-3.92
599.039	17.08
599.161	7.08
599.283	0.08
599.406	24.08
599.528	35.08
599.65	33.08
599.773	14.08
599.895	37.08
600.017	21.08
600.139	3.08
600.262	6.08
600.384	9.08
600.506	12.08
600.628	12.08
600.751	19.08
600.873	7.08
600.995	12.08
601.118	29.08
601.24	-0.92
601.362	17.08
601.484	15.08
601.607	1.08
601.729	11.08
601.851	-5.92
601.973	13.08
602.096	28.08
602.218	19.08
602.34	26.08
602.462	22.08
602.585	29.08
602.707	0.08
602.829	17.08
602.951	16.08
603.074	4.08
603.196	23.08
603.318	2.08
603.44	32.08
603.563	19.08
603.685	9.08
603.807	24.08
603.929	30.08
604.052	14.08
604.174	23.08
604.296	2.08
604.418	20.08
604.541	30.08
604.663	22.08
604.785	12.08
604.907	24.08
605.03	19.08
605.152	45.08
605.274	9.08
605.396	31.08
605.519	15.08
605.641	11.08
605.763	14.08
605.885	6.08
606.008	15.08
606.13	25.08
606.252	25.08
606.374	-0.92
606.496	-4.92
606.619	18.08
606.741	-4.92
606.863	22.08
606.985	19.08
607.108	5.08
607.23	-2.92
607.352	1.08
607.474	2.08
607.596	3.08
607.719	-9.92
607.841	24.08
607.963	14.08
608.085	15.08
608.207	52.08
608.33	21.08
608.452	13.08
608.574	15.08
608.696	17.08
608.819	14.08
608.941	10.08
609.063	14.08
609.185	6.08
609.307	6.08
609.43	22.08
609.552	2.08
609.674	-10.92
609.796	19.08
609.918	17.08
610.041	1.08
610.163	25.08
610.285	3.08
610.407	10.08
610.529	17.08
610.652	7.08
610.774	28.08
610.896	9.08
611.018	22.08
611.14	7.08
611.263	-4.92
611.385	-5.92
611.507	31.08
611.629	5.08
611.751	20.08
611.873	40.08
611.996	34.08
612.118	37.08
612.24	7.08
612.362	26.08
612.484	34.08
612.607	38.08
612.729	27.08
612.851	13.08
612.973	9.08
613.095	7.08
613.218	1.08
613.34	15.08
613.462	19.08
613.584	14.08
613.706	3.08
613.828	45.08
613.951	19.08
614.073	-4.92
614.195	-11.92
614.317	22.08
614.439	11.08
614.561	-1.92
614.684	21.08
614.806	23.08
614.928	11.08
615.05	11.08
615.172	18.08
615.294	23.08
615.417	5.08
615.539	4.08
615.661	23.08
615.783	29.08
615.905	28.08
616.027	64.08
616.15	87.08
616.272	79.08
616.394	52.08
616.516	41.08
616.638	34.08
616.76	17.08
616.883	10.08
617.005	10.08
617.127	24.08
617.249	22.08
617.371	9.08
617.493	4.08
617.615	19.08
617.738	6.08
617.86	21.08
617.982	17.08
618.104	16.08
618.226	-13.92
618.348	-6.92
618.471	17.08
618.593	19.08
618.715	10.08
618.837	7.08
618.959	1.08
619.081	18.08
619.203	7.08
619.326	19.08
619.448	19.08
619.57	17.08
619.692	5.08
619.814	6.08
619.936	18.08
620.058	27.08
620.181	19.08
620.303	20.08
620.425	24.08
620.547	15.08
620.669	11.08
620.791	6.08
620.913	7.08
621.036	-10.92
621.158	18.08
621.28	16.08
621.402	2.08
621.524	1.08
621.646	15.08
621.768	7.08
621.891	-11.92
622.013	15.08
622.135	12.08
622.257	-6.92
622.379	2.08
622.501	20.08
622.623	18.08
622.745	24.08
622.868	21.08
622.99	-2.92
623.112	7.08
623.234	11.08
623.356	22.08
623.478	39.08
623.6	19.08
623.722	4.08
623.845	15.08
623.967	18.08
624.089	17.08
624.211	13.08
624.333	21.08
624.455	11.08
624.577	-8.92
624.699	5.08
624.822	5.08
624.944	6.08
625.066	12.08
625.188	4.08
625.31	17.08
625.432	35.08
625.554	1.08
625.676	28.08
625.799	7.08
625.921	6.08
626.043	22.08
626.165	13.08
626.287	-7.92
626.409	19.08
626.531	-2.92
626.653	10.08
626.775	19.08
626.898	-3.92
627.02	11.08
627.142	16.08
627.264	7.08
627.386	13.08
627.508	30.08
627.63	9.08
627.752	18.08
627.874	19.08
627.997	19.08
628.119	19.08
628.241	7.08
628.363	26.08
628.485	25.08
628.607	25.08
628.729	2.08
628.851	2.08
628.973	4.08
629.096	3.08
629.218	9.08
629.34	26.08
629.462	7.08
629.584	1.08
629.706	6.08
629.828	30.08
629.95	16.08
630.072	12.08
630.195	10.08
630.317	10.08
630.439	17.08
630.561	25.08
630.683	-3.92
630.805	16.08
630.927	29.08
631.049	10.08
631.171	7.08
631.293	14.08
631.416	27.08
631.538	16.08
631.66	2.08
631.782	11.08
631.904	44.08
632.026	17.08
632.148	3.08
632.27	-2.92
632.392	19.08
632.514	13.08
632.637	28.08
632.759	20.08
632.881	14.08
633.003	9.08
633.125	9.08
633.247	-7.92
633.369	-2.92
633.491	12.08
633.613	17.08
633.735	21.08
633.858	7.08
633.98	0.08
634.102	-12.92
634.224	6.08
634.346	0.08
634.468	15.08
634.59	7.08
634.712	15.08
634.834	16.08
634.956	7.08
635.078	-4.92
635.201	11.08
635.323	15.08
635.445	1.08
635.567	-22.92
635.689	2.08
635.811	5.08
635.933	6.08
636.055	0.08
636.177	2.08
636.299	25.08
636.421	8.08
636.544	4.08
636.666	24.08
636.788	29.08
636.91	22.08
637.032	13.08
637.154	17.08
637.276	30.08
637.398	25.08
637.52	16.08
637.642	33.08
637.764	13.08
637.887	5.08
638.009	1.08
638.131	12.08
638.253	2.08
638.375	29.08
638.497	9.08
638.619	7.08
638.741	11.08
638.863	-5.92
638.985	-4.92
639.107	12.08
639.23	3.08
639.352	25.08
639.474	15.08
639.596	15.08
639.718	6.08
639.84	17.08
639.962	12.08
640.084	33.08
640.206	35.08
640.328	-5.92
640.45	12.08
640.573	-1.92
640.695	6.08
640.817	17.08
640.939	31.08
641.061	16.08
641.183	17.08
641.305	-1.92
641.427	11.08
641.549	24.08
641.671	15.08
641.793	6.08
641.915	15.08
642.038	10.08
642.16	-7.92
642.282	14.08
642.404	17.08
642.526	7.08
642.648	9.08
642.77	1.08
642.892	17.08
643.014	29.08
643.136	10.08
643.258	1.08
643.381	22.08
643.503	28.08
643.625	-0.92
643.747	-13.92
643.869	6.08
643.991	21.08
644.113	9.08
644.235	-0.92
644.357	17.08
644.479	17.08
644.601	10.08
644.723	3.08
644.846	14.08
644.968	7.08
645.09	11.08
645.212	0.08
645.334	9.08
645.456	13.08
645.578	6.08
645.7	7.08
645.822	26.08
645.944	20.08
646.066	18.08
646.188	5.08
646.311	26.08
646.433	9.08
646.555	62.08
646.677	44.08
646.799	33.08
646.921	21.08
647.043	38.08
647.165	-0.92
647.287	1.08
647.409	-1.92
647.531	27.08
647.654	-6.92
647.776	37.08
647.898	16.08
648.02	10.08
648.142	19.08
648.264	9.08
648.386	10.08
648.508	1.08
648.63	-10.92
648.752	10.08
648.874	6.08
648.997	9.08
649.119	21.08
649.241	1.08
649.363	45.08
649.485	36.08
649.607	2.08
649.729	-14.92
649.851	2.08
649.973	8.08
650.095	26.08
650.217	1.08
650.34	9.08
650.462	11.08
650.584	10.08
650.706	17.08
650.828	25.08
650.95	7.08
651.072	8.08
651.194	13.08
651.316	8.08
651.438	18.08
651.56	3.08
651.683	6.08
651.805	11.08
651.927	11.08
652.049	15.08
652.171	8.08
652.293	1.08
652.415	8.08
652.537	-2.92
652.659	2.08
652.781	-0.92
652.903	18.08
653.026	34.08
653.148	11.08
653.27	10.08
653.392	9.08
653.514	2.08
653.636	24.08
653.758	12.08
653.88	3.08
654.002	8.08
654.124	3.08
654.247	2.08
654.369	33.08
654.491	17.08
654.613	13.08
654.735	-0.92
654.857	22.08
654.979	26.08
655.101	27.08
655.223	57.08
655.345	34.08
655.468	24.08
655.59	22.08
655.712	36.08
655.834	30.08
655.956	31.08
656.078	38.08
656.2	43.08
656.322	54.08
656.444	23.08
656.566	50.08
656.689	60.08
656.811	61.08
656.933	93.08
657.055	89.08
657.177	145.08
657.299	258.08
657.421	504.08
657.543	1850.08
657.665	12506.08
657.787	15171.08
657.91	15256.08
658.032	15664.08
658.154	4629.08
658.276	3317.08
658.398	1145.08
658.52	1033.08
658.642	486.08
658.764	563.08
658.886	258.08
659.009	403.08
659.131	206.08
659.253	327.08
659.375	168.08
659.497	241.08
659.619	138.08
659.741	201.08
659.863	98.08
659.985	166.08
660.108	115.08
660.23	140.08
660.352	89.08
660.474	155.08
660.596	87.08
660.718	131.08
660.84	55.08
660.962	117.08
661.084	50.08
661.207	99.08
661.329	63.08
661.451	88.08
661.573	54.08
661.695	113.08
661.817	65.08
661.939	108.08
662.061	76.08
662.184	93.08
662.306	41.08
662.428	63.08
662.55	55.08
662.672	59.08
662.794	40.08
662.916	61.08
663.038	35.08
663.161	89.08
663.283	46.08
663.405	67.08
663.527	35.08
663.649	73.08
663.771	28.08
663.893	49.08
664.015	35.08
664.138	58.08
664.26	22.08
664.382	66.08
664.504	11.08
664.626	31.08
664.748	20.08
664.87	32.08
664.992	19.08
665.115	49.08
665.237	23.08
665.359	36.08
665.481	26.08
665.603	49.08
665.725	11.08
665.847	30.08
665.97	11.08
666.092	51.08
666.214	14.08
666.336	31.08
666.458	35.08
666.58	42.08
666.702	3.08
666.825	30.08
666.947	11.08
667.069	37.08
667.191	32.08
667.313	39.08
667.435	11.08
667.557	36.08
667.68	5.08
667.802	20.08
667.924	-0.92
668.046	31.08
668.168	28.08
668.29	49.08
668.412	11.08
668.535	17.08
668.657	13.08
668.779	15.08
668.901	22.08
669.023	44.08
669.145	16.08
669.267	59.08
669.39	41.08
669.512	38.08
669.634	12.08
669.756	24.08
669.878	23.08
670	34.08
670.123	5.08
670.245	30.08
670.367	13.08
670.489	21.08
670.611	9.08
670.733	18.08
670.856	1.08
670.978	22.08
671.1	26.08
671.222	29.08
671.344	4.08
671.466	5.08
671.589	3.08
671.711	11.08
671.833	6.08
671.955	1.08
672.077	9.08
672.199	40.08
672.322	33.08
672.444	15.08
672.566	30.08
672.688	6.08
672.81	6.08
672.932	18.08
673.055	-0.92
673.177	1.08
673.299	19.08
673.421	14.08
673.543	7.08
673.665	26.08
673.788	4.08
673.91	7.08
674.032	4.08
674.154	28.08
674.276	23.08
674.399	9.08
674.521	0.08
674.643	23.08
674.765	5.08
674.887	33.08
675.009	9.08
675.132	25.08
675.254	26.08
675.376	14.08
675.498	2.08
675.62	35.08
675.743	6.08
675.865	17.08
675.987	-4.92
676.109	31.08
676.231	27.08
676.354	44.08
676.476	14.08
676.598	32.08
676.72	15.08
676.842	45.08
676.965	-0.92
677.087	10.08
677.209	16.08
677.331	27.08
677.453	8.08
677.576	10.08
677.698	25.08
677.82	13.08
677.942	-12.92
678.064	14.08
678.187	8.08
678.309	15.08
678.431	17.08
678.553	11.08
678.675	25.08
678.798	31.08
678.92	14.08
679.042	7.08
679.164	16.08
679.286	25.08
679.409	8.08
679.531	6.08
679.653	6.08
679.775	12.08
679.898	-5.92
680.02	-13.92
680.142	1.08
680.264	15.08
680.386	-7.92
680.509	25.08
680.631	14.08
680.753	-0.92
680.875	1.08
680.998	-5.92
681.12	-4.92
681.242	26.08
681.364	-2.92
681.486	15.08
681.609	0.08
681.731	5.08
681.853	-5.92
681.975	12.08
682.098	25.08
682.22	11.08
682.342	-12.92
682.464	26.08
682.587	7.08
682.709	21.08
682.831	-5.92
682.953	7.08
683.076	-5.92
683.198	22.08
683.32	7.08
683.442	7.08
683.565	5.08
683.687	9.08
683.809	12.08
683.931	-6.92
684.054	4.08
684.176	19.08
684.298	4.08
684.42	13.08
684.543	5.08
684.665	6.08
684.787	2.08
684.909	0.08
685.032	13.08
685.154	-9.92
685.276	6.08
685.398	24.08
685.521	1.08
685.643	14.08
685.765	15.08
685.887	17.08
686.01	14.08
686.132	3.08
686.254	21.08
686.377	5.08
686.499	16.08
686.621	17.08
686.743	9.08
686.866	9.08
686.988	36.08
687.11	24.08
687.232	4.08
687.355	-2.92
687.477	12.08
687.599	9.08
687.722	-4.92
687.844	13.08
687.966	23.08
688.088	29.08
688.211	38.08
688.333	26.08
688.455	20.08
688.578	26.08
688.7	15.08
688.822	11.08
688.944	-4.92
689.067	50.08
689.189	23.08
689.311	-10.92
689.434	0.08
689.556	25.08
689.678	22.08
689.801	23.08
689.923	0.08
690.045	34.08
690.167	4.08
690.29	11.08
690.412	-1.92
690.534	3.08
690.657	8.08
690.779	24.08
690.901	17.08
691.024	11.08
691.146	4.08
691.268	3.08
691.391	3.08
691.513	11.08
691.635	16.08
691.758	46.08
691.88	30.08
692.002	14.08
692.125	26.08
692.247	3.08
692.369	1.08
692.492	-0.92
692.614	-0.92
692.736	7.08
692.859	11.08
692.981	13.08
693.103	6.08
693.226	13.08
693.348	26.08
693.47	16.08
693.593	-2.92
693.715	-2.92
693.837	-0.92
693.96	21.08
694.082	-4.92
694.204	9.08
694.327	5.08
694.449	-1.92
694.571	10.08
694.694	16.08
694.816	9.08
694.938	-0.92
695.061	2.08
695.183	20.08
695.305	21.08
695.428	19.08
695.55	-3.92
695.672	16.08
695.795	40.08
695.917	26.08
696.04	23.08
696.162	3.08
696.284	2.08
696.407	19.08
696.529	8.08
696.651	26.08
696.774	2.08
696.896	17.08
697.019	-0.92
697.141	-0.92
697.263	7.08
697.386	10.08
697.508	7.08
697.63	17.08
697.753	6.08
697.875	1.08
697.998	-3.92
698.12	25.08
698.242	-1.92
698.365	10.08
698.487	3.08
698.61	12.08
698.732	11.08
698.854	17.08
698.977	-0.92
699.099	18.08
699.221	7.08
699.344	13.08
699.466	1.08
699.589	10.08
699.711	21.08
699.834	6.08
699.956	-1.92
700.078	7.08
700.201	-6.92
700.323	21.08
700.446	21.08
700.568	2.08
700.69	5.08
700.813	13.08
700.935	-3.92
701.058	1.08
701.18	12.08
701.302	-1.92
701.425	-5.92
701.547	-0.92
701.67	-0.92
701.792	7.08
701.915	5.08
702.037	3.08
702.159	6.08
702.282	19.08
702.404	5.08
702.527	18.08
702.649	39.08
702.772	7.08
702.894	3.08
703.017	21.08
703.139	9.08
703.261	15.08
703.384	30.08
703.506	-1.92
703.629	17.08
703.751	25.08
703.874	-2.92
703.996	-14.92
704.119	19.08
704.241	26.08
704.364	1.08
704.486	9.08
704.608	8.08
704.731	13.08
704.853	-4.92
704.976	-7.92
705.098	4.08
705.221	-10.92
705.343	13.08
705.466	12.08
705.588	19.08
705.711	16.08
705.833	21.08
705.956	4.08
706.078	21.08
706.201	9.08
706.323	23.08
706.446	-19.92
