Data from LowRes_H2_15_26_11_07_2024_HR4C61881__28__15-28-16-437.txt Node

Date: Thu Nov 07 15:28:16 EST 2024
User: crc00042
Spectrometer: HR4C6188
Trigger mode: 4
Integration Time (sec): 1.000000E-1
Scans to average: 1
Electric dark correction enabled: true
Nonlinearity correction enabled: false
Boxcar width: 0
XAxis mode: Wavelengths
Number of Pixels in Spectrum: 3648
>>>>>Begin Spectral Data<<<<<
245.66	-135.92
245.797	-135.92
245.934	-135.92
246.071	-89.92
246.208	11.08
246.344	4.08
246.481	-17.92
246.618	-23.92
246.755	0.08
246.892	-11.92
247.029	-14.92
247.165	-15.92
247.302	8.08
247.439	23.08
247.576	10.08
247.713	7.08
247.849	30.08
247.986	2.08
248.123	10.08
248.26	-12.92
248.396	-3.92
248.533	5.08
248.67	-10.92
248.806	9.08
248.943	-5.92
249.08	0.08
249.216	28.08
249.353	-6.92
249.49	9.08
249.626	-1.92
249.763	5.08
249.9	5.08
250.036	-6.92
250.173	-2.92
250.309	13.08
250.446	3.08
250.582	9.08
250.719	-10.92
250.856	-1.92
250.992	3.08
251.129	-14.92
251.265	-23.92
251.402	-7.92
251.538	-2.92
251.675	3.08
251.811	21.08
251.948	20.08
252.084	-6.92
252.221	-9.92
252.357	-8.92
252.493	21.08
252.63	-16.92
252.766	5.08
252.903	4.08
253.039	-7.92
253.175	0.08
253.312	-0.92
253.448	-19.92
253.585	-19.92
253.721	14.08
253.857	-14.92
253.994	10.08
254.13	-10.92
254.266	-10.92
254.403	-6.92
254.539	-1.92
254.675	5.08
254.811	-2.92
254.948	9.08
255.084	2.08
255.22	-0.92
255.356	-5.92
255.493	5.08
255.629	-13.92
255.765	20.08
255.901	20.08
256.037	-6.92
256.174	10.08
256.31	-22.92
256.446	0.08
256.582	1.08
256.718	19.08
256.854	27.08
256.991	16.08
257.127	8.08
257.263	3.08
257.399	16.08
257.535	-17.92
257.671	-0.92
257.807	0.08
257.943	-13.92
258.079	-15.92
258.215	-22.92
258.351	7.08
258.487	-1.92
258.623	29.08
258.759	-1.92
258.895	0.08
259.031	-10.92
259.167	-25.92
259.303	18.08
259.439	8.08
259.575	-10.92
259.711	-15.92
259.847	-27.92
259.983	13.08
260.119	-0.92
260.255	9.08
260.391	1.08
260.527	11.08
260.663	9.08
260.799	13.08
260.934	-4.92
261.07	4.08
261.206	-15.92
261.342	-25.92
261.478	25.08
261.614	5.08
261.749	7.08
261.885	-5.92
262.021	-18.92
262.157	11.08
262.293	21.08
262.428	-12.92
262.564	-17.92
262.7	-6.92
262.836	-9.92
262.971	2.08
263.107	9.08
263.243	17.08
263.378	9.08
263.514	0.08
263.65	0.08
263.785	-8.92
263.921	-2.92
264.057	-2.92
264.192	9.08
264.328	16.08
264.464	-20.92
264.599	7.08
264.735	7.08
264.871	-12.92
265.006	-7.92
265.142	-0.92
265.277	-21.92
265.413	6.08
265.548	0.08
265.684	13.08
265.819	1.08
265.955	-10.92
266.091	-5.92
266.226	-12.92
266.362	10.08
266.497	9.08
266.633	4.08
266.768	-0.92
266.903	0.08
267.039	5.08
267.174	15.08
267.31	7.08
267.445	3.08
267.581	-18.92
267.716	18.08
267.851	-0.92
267.987	0.08
268.122	18.08
268.258	-7.92
268.393	-0.92
268.528	18.08
268.664	-0.92
268.799	-5.92
268.934	0.08
269.07	-12.92
269.205	-3.92
269.34	6.08
269.476	3.08
269.611	-9.92
269.746	11.08
269.881	1.08
270.017	-2.92
270.152	25.08
270.287	17.08
270.422	25.08
270.558	-10.92
270.693	10.08
270.828	-0.92
270.963	-10.92
271.098	-11.92
271.234	-6.92
271.369	16.08
271.504	-5.92
271.639	-14.92
271.774	-5.92
271.909	-2.92
272.045	-9.92
272.18	-11.92
272.315	-10.92
272.45	18.08
272.585	-12.92
272.72	-6.92
272.855	-10.92
272.99	-2.92
273.125	-10.92
273.26	-25.92
273.395	-18.92
273.53	2.08
273.665	9.08
273.8	11.08
273.935	-0.92
274.07	8.08
274.205	22.08
274.34	1.08
274.475	7.08
274.61	18.08
274.745	-7.92
274.88	14.08
275.015	-18.92
275.15	-6.92
275.285	12.08
275.42	0.08
275.555	17.08
275.69	10.08
275.825	4.08
275.959	15.08
276.094	-4.92
276.229	13.08
276.364	3.08
276.499	-6.92
276.634	-5.92
276.768	15.08
276.903	10.08
277.038	17.08
277.173	28.08
277.308	0.08
277.442	-9.92
277.577	-26.92
277.712	0.08
277.847	-4.92
277.981	2.08
278.116	-19.92
278.251	-3.92
278.386	0.08
278.52	10.08
278.655	-6.92
278.79	25.08
278.924	1.08
279.059	-0.92
279.194	-15.92
279.328	34.08
279.463	18.08
279.598	26.08
279.732	11.08
279.867	16.08
280.001	11.08
280.136	-4.92
280.271	-3.92
280.405	7.08
280.54	7.08
280.674	-11.92
280.809	23.08
280.943	17.08
281.078	22.08
281.213	38.08
281.347	17.08
281.482	4.08
281.616	1.08
281.751	-3.92
281.885	-10.92
282.02	0.08
282.154	4.08
282.288	-25.92
282.423	-6.92
282.557	-6.92
282.692	-2.92
282.826	-1.92
282.961	20.08
283.095	4.08
283.229	-7.92
283.364	-6.92
283.498	-8.92
283.633	0.08
283.767	1.08
283.901	5.08
284.036	-1.92
284.17	6.08
284.304	9.08
284.439	-10.92
284.573	-10.92
284.707	21.08
284.842	-1.92
284.976	-10.92
285.11	-4.92
285.244	-4.92
285.379	43.08
285.513	-6.92
285.647	1.08
285.781	19.08
285.916	26.08
286.05	-3.92
286.184	18.08
286.318	19.08
286.453	-13.92
286.587	-23.92
286.721	-8.92
286.855	11.08
286.989	14.08
287.123	3.08
287.258	-11.92
287.392	-5.92
287.526	9.08
287.66	-14.92
287.794	-6.92
287.928	-3.92
288.062	-8.92
288.196	-5.92
288.33	-7.92
288.464	12.08
288.598	-2.92
288.733	-4.92
288.867	6.08
289.001	6.08
289.135	2.08
289.269	-4.92
289.403	-7.92
289.537	1.08
289.671	2.08
289.805	0.08
289.939	1.08
290.073	2.08
290.207	6.08
290.34	7.08
290.474	29.08
290.608	8.08
290.742	1.08
290.876	1.08
291.01	-11.92
291.144	31.08
291.278	10.08
291.412	6.08
291.546	8.08
291.679	-18.92
291.813	-17.92
291.947	4.08
292.081	-10.92
292.215	-0.92
292.349	11.08
292.482	6.08
292.616	0.08
292.75	5.08
292.884	13.08
293.018	1.08
293.151	-4.92
293.285	-3.92
293.419	3.08
293.553	8.08
293.686	-12.92
293.82	6.08
293.954	-0.92
294.088	27.08
294.221	-9.92
294.355	-5.92
294.489	10.08
294.622	-1.92
294.756	-15.92
294.89	5.08
295.023	-9.92
295.157	11.08
295.291	17.08
295.424	21.08
295.558	10.08
295.691	0.08
295.825	-13.92
295.959	3.08
296.092	-4.92
296.226	11.08
296.359	-6.92
296.493	6.08
296.627	16.08
296.76	17.08
296.894	4.08
297.027	-16.92
297.161	7.08
297.294	-23.92
297.428	-14.92
297.561	12.08
297.695	-1.92
297.828	-8.92
297.962	-4.92
298.095	-4.92
298.229	-0.92
298.362	-14.92
298.495	-10.92
298.629	-5.92
298.762	-6.92
298.896	8.08
299.029	3.08
299.162	4.08
299.296	4.08
299.429	-3.92
299.563	-5.92
299.696	7.08
299.829	5.08
299.963	4.08
300.096	19.08
300.229	12.08
300.363	11.08
300.496	14.08
300.629	-18.92
300.763	-6.92
300.896	-1.92
301.029	-4.92
301.162	2.08
301.296	-16.92
301.429	10.08
301.562	-13.92
301.695	19.08
301.829	8.08
301.962	24.08
302.095	8.08
302.228	-10.92
302.362	4.08
302.495	-7.92
302.628	-14.92
302.761	-20.92
302.894	2.08
303.027	15.08
303.161	-17.92
303.294	-15.92
303.427	16.08
303.56	2.08
303.693	8.08
303.826	-10.92
303.959	-6.92
304.092	3.08
304.225	-6.92
304.359	23.08
304.492	3.08
304.625	10.08
304.758	7.08
304.891	-20.92
305.024	1.08
305.157	-15.92
305.29	-11.92
305.423	9.08
305.556	20.08
305.689	23.08
305.822	-19.92
305.955	-6.92
306.088	14.08
306.221	-8.92
306.354	-7.92
306.487	-15.92
306.62	3.08
306.752	1.08
306.885	-2.92
307.018	1.08
307.151	16.08
307.284	4.08
307.417	-2.92
307.55	11.08
307.683	-5.92
307.816	35.08
307.948	16.08
308.081	14.08
308.214	16.08
308.347	17.08
308.48	-3.92
308.613	4.08
308.745	11.08
308.878	-6.92
309.011	10.08
309.144	15.08
309.277	-13.92
309.409	1.08
309.542	-10.92
309.675	11.08
309.808	-14.92
309.94	20.08
310.073	5.08
310.206	-9.92
310.339	3.08
310.471	-16.92
310.604	23.08
310.737	4.08
310.869	5.08
311.002	2.08
311.135	-2.92
311.267	-10.92
311.4	10.08
311.533	16.08
311.665	-11.92
311.798	-6.92
311.93	14.08
312.063	10.08
312.196	3.08
312.328	13.08
312.461	-7.92
312.593	-11.92
312.726	2.08
312.859	-0.92
312.991	19.08
313.124	-18.92
313.256	-4.92
313.389	0.08
313.521	0.08
313.654	-6.92
313.786	-16.92
313.919	-11.92
314.051	-0.92
314.184	0.08
314.316	4.08
314.449	-12.92
314.581	4.08
314.714	4.08
314.846	9.08
314.978	-29.92
315.111	-2.92
315.243	-2.92
315.376	-2.92
315.508	3.08
315.641	7.08
315.773	28.08
315.905	-4.92
316.038	-2.92
316.17	7.08
316.302	1.08
316.435	19.08
316.567	7.08
316.699	27.08
316.832	-20.92
316.964	-1.92
317.096	3.08
317.229	-6.92
317.361	-23.92
317.493	0.08
317.625	-10.92
317.758	-1.92
317.89	31.08
318.022	25.08
318.155	8.08
318.287	8.08
318.419	2.08
318.551	2.08
318.683	-18.92
318.816	1.08
318.948	-6.92
319.08	-5.92
319.212	9.08
319.344	-3.92
319.477	-1.92
319.609	-3.92
319.741	25.08
319.873	-2.92
320.005	-5.92
320.137	7.08
320.269	15.08
320.401	1.08
320.534	0.08
320.666	-30.92
320.798	-12.92
320.93	-7.92
321.062	1.08
321.194	6.08
321.326	12.08
321.458	8.08
321.59	-5.92
321.722	-20.92
321.854	5.08
321.986	7.08
322.118	9.08
322.25	-8.92
322.382	-5.92
322.514	-9.92
322.646	-8.92
322.778	31.08
322.91	5.08
323.042	-10.92
323.174	-0.92
323.306	-15.92
323.438	-28.92
323.57	-9.92
323.702	12.08
323.834	6.08
323.966	-7.92
324.097	3.08
324.229	11.08
324.361	13.08
324.493	-6.92
324.625	-7.92
324.757	11.08
324.889	-5.92
325.021	-12.92
325.152	28.08
325.284	37.08
325.416	-10.92
325.548	3.08
325.68	-12.92
325.811	20.08
325.943	15.08
326.075	-5.92
326.207	7.08
326.339	9.08
326.47	-4.92
326.602	8.08
326.734	16.08
326.866	14.08
326.997	-10.92
327.129	5.08
327.261	-8.92
327.392	6.08
327.524	-3.92
327.656	5.08
327.787	7.08
327.919	11.08
328.051	21.08
328.182	14.08
328.314	18.08
328.446	8.08
328.577	36.08
328.709	2.08
328.841	-19.92
328.972	-0.92
329.104	11.08
329.235	12.08
329.367	-10.92
329.499	9.08
329.63	9.08
329.762	0.08
329.893	14.08
330.025	4.08
330.156	-15.92
330.288	7.08
330.419	13.08
330.551	15.08
330.683	11.08
330.814	-7.92
330.946	5.08
331.077	-20.92
331.208	-25.92
331.34	-0.92
331.471	-4.92
331.603	-13.92
331.734	-9.92
331.866	2.08
331.997	19.08
332.129	-7.92
332.26	-13.92
332.392	24.08
332.523	13.08
332.654	-4.92
332.786	-2.92
332.917	-22.92
333.048	-3.92
333.18	18.08
333.311	11.08
333.443	7.08
333.574	-14.92
333.705	0.08
333.837	-19.92
333.968	-4.92
334.099	-3.92
334.231	-3.92
334.362	-4.92
334.493	10.08
334.624	13.08
334.756	5.08
334.887	1.08
335.018	22.08
335.15	16.08
335.281	2.08
335.412	20.08
335.543	7.08
335.675	-2.92
335.806	4.08
335.937	6.08
336.068	11.08
336.199	31.08
336.331	5.08
336.462	-4.92
336.593	19.08
336.724	17.08
336.855	-2.92
336.986	6.08
337.118	18.08
337.249	12.08
337.38	-0.92
337.511	13.08
337.642	10.08
337.773	-2.92
337.904	-8.92
338.035	-8.92
338.166	0.08
338.298	30.08
338.429	-3.92
338.56	21.08
338.691	33.08
338.822	23.08
338.953	26.08
339.084	22.08
339.215	6.08
339.346	4.08
339.477	-3.92
339.608	14.08
339.739	9.08
339.87	2.08
340.001	2.08
340.132	-5.92
340.263	20.08
340.394	3.08
340.525	18.08
340.656	-9.92
340.787	-19.92
340.918	5.08
341.049	7.08
341.179	14.08
341.31	-0.92
341.441	1.08
341.572	22.08
341.703	4.08
341.834	-13.92
341.965	18.08
342.096	6.08
342.227	-0.92
342.357	21.08
342.488	15.08
342.619	-16.92
342.75	9.08
342.881	-5.92
343.012	14.08
343.142	19.08
343.273	-8.92
343.404	19.08
343.535	23.08
343.666	15.08
343.796	10.08
343.927	2.08
344.058	13.08
344.189	19.08
344.319	23.08
344.45	4.08
344.581	18.08
344.712	-3.92
344.842	0.08
344.973	-22.92
345.104	8.08
345.234	-4.92
345.365	-15.92
345.496	-0.92
345.626	16.08
345.757	8.08
345.888	-25.92
346.018	5.08
346.149	5.08
346.28	10.08
346.41	-6.92
346.541	-3.92
346.672	0.08
346.802	8.08
346.933	8.08
347.063	6.08
347.194	-11.92
347.325	5.08
347.455	7.08
347.586	-2.92
347.716	-11.92
347.847	11.08
347.977	8.08
348.108	16.08
348.238	2.08
348.369	-1.92
348.499	18.08
348.63	-21.92
348.76	13.08
348.891	0.08
349.021	28.08
349.152	11.08
349.282	9.08
349.413	-0.92
349.543	6.08
349.674	0.08
349.804	-14.92
349.935	-6.92
350.065	1.08
350.196	6.08
350.326	2.08
350.456	-7.92
350.587	11.08
350.717	24.08
350.848	20.08
350.978	15.08
351.108	1.08
351.239	25.08
351.369	5.08
351.499	1.08
351.63	12.08
351.76	2.08
351.89	8.08
352.021	11.08
352.151	-14.92
352.281	12.08
352.412	4.08
352.542	-3.92
352.672	-1.92
352.803	-7.92
352.933	5.08
353.063	25.08
353.193	-0.92
353.324	-6.92
353.454	-1.92
353.584	6.08
353.714	-6.92
353.845	22.08
353.975	1.08
354.105	4.08
354.235	-10.92
354.365	1.08
354.496	8.08
354.626	17.08
354.756	5.08
354.886	-10.92
355.016	10.08
355.146	-6.92
355.277	-1.92
355.407	-12.92
355.537	5.08
355.667	-3.92
355.797	-15.92
355.927	-4.92
356.057	19.08
356.187	-22.92
356.318	-10.92
356.448	-0.92
356.578	-1.92
356.708	6.08
356.838	19.08
356.968	-6.92
357.098	-1.92
357.228	6.08
357.358	-3.92
357.488	-7.92
357.618	32.08
357.748	11.08
357.878	-3.92
358.008	12.08
358.138	-17.92
358.268	-4.92
358.398	10.08
358.528	-19.92
358.658	-0.92
358.788	8.08
358.918	-4.92
359.048	-2.92
359.178	15.08
359.308	-5.92
359.438	5.08
359.568	20.08
359.698	2.08
359.827	6.08
359.957	11.08
360.087	10.08
360.217	7.08
360.347	16.08
360.477	12.08
360.607	-1.92
360.737	28.08
360.866	5.08
360.996	-14.92
361.126	-4.92
361.256	15.08
361.386	21.08
361.516	18.08
361.645	-2.92
361.775	17.08
361.905	-3.92
362.035	13.08
362.165	1.08
362.294	6.08
362.424	8.08
362.554	17.08
362.684	-2.92
362.813	3.08
362.943	25.08
363.073	3.08
363.203	14.08
363.332	5.08
363.462	-3.92
363.592	17.08
363.721	-12.92
363.851	-12.92
363.981	10.08
364.111	4.08
364.24	-10.92
364.37	7.08
364.5	23.08
364.629	16.08
364.759	-11.92
364.888	-21.92
365.018	4.08
365.148	-7.92
365.277	3.08
365.407	3.08
365.537	1.08
365.666	1.08
365.796	3.08
365.925	3.08
366.055	-4.92
366.184	-11.92
366.314	8.08
366.444	3.08
366.573	-8.92
366.703	5.08
366.832	7.08
366.962	1.08
367.091	20.08
367.221	15.08
367.35	1.08
367.48	32.08
367.609	-5.92
367.739	10.08
367.868	-5.92
367.998	-11.92
368.127	13.08
368.257	15.08
368.386	25.08
368.516	12.08
368.645	9.08
368.775	20.08
368.904	5.08
369.033	-2.92
369.163	-17.92
369.292	24.08
369.422	22.08
369.551	7.08
369.68	18.08
369.81	5.08
369.939	14.08
370.069	9.08
370.198	8.08
370.327	-14.92
370.457	0.08
370.586	12.08
370.715	-2.92
370.845	11.08
370.974	4.08
371.103	34.08
371.233	12.08
371.362	9.08
371.491	-5.92
371.621	6.08
371.75	0.08
371.879	-12.92
372.008	14.08
372.138	10.08
372.267	19.08
372.396	11.08
372.525	1.08
372.655	-5.92
372.784	3.08
372.913	5.08
373.042	11.08
373.172	36.08
373.301	22.08
373.43	6.08
373.559	3.08
373.688	32.08
373.818	38.08
373.947	26.08
374.076	8.08
374.205	14.08
374.334	-7.92
374.463	13.08
374.593	24.08
374.722	21.08
374.851	36.08
374.98	-13.92
375.109	-8.92
375.238	0.08
375.367	24.08
375.496	0.08
375.625	-18.92
375.755	11.08
375.884	37.08
376.013	23.08
376.142	-8.92
376.271	0.08
376.4	15.08
376.529	16.08
376.658	29.08
376.787	23.08
376.916	19.08
377.045	6.08
377.174	11.08
377.303	-4.92
377.432	26.08
377.561	13.08
377.69	-0.92
377.819	8.08
377.948	13.08
378.077	18.08
378.206	8.08
378.335	3.08
378.464	5.08
378.593	21.08
378.722	4.08
378.851	12.08
378.98	23.08
379.108	-6.92
379.237	-11.92
379.366	9.08
379.495	27.08
379.624	9.08
379.753	4.08
379.882	7.08
380.011	0.08
380.14	-2.92
380.268	-5.92
380.397	2.08
380.526	29.08
380.655	5.08
380.784	-16.92
380.913	-8.92
381.041	1.08
381.17	-8.92
381.299	8.08
381.428	20.08
381.557	18.08
381.685	1.08
381.814	7.08
381.943	-0.92
382.072	-2.92
382.2	-8.92
382.329	11.08
382.458	13.08
382.587	26.08
382.715	27.08
382.844	8.08
382.973	16.08
383.102	17.08
383.23	-0.92
383.359	-1.92
383.488	16.08
383.616	-0.92
383.745	-0.92
383.874	5.08
384.003	7.08
384.131	1.08
384.26	9.08
384.389	26.08
384.517	-15.92
384.646	-12.92
384.774	-3.92
384.903	15.08
385.032	11.08
385.16	-0.92
385.289	-2.92
385.418	8.08
385.546	22.08
385.675	15.08
385.803	2.08
385.932	14.08
386.06	-4.92
386.189	9.08
386.318	12.08
386.446	-1.92
386.575	18.08
386.703	11.08
386.832	-0.92
386.96	-7.92
387.089	11.08
387.217	12.08
387.346	2.08
387.474	5.08
387.603	21.08
387.731	8.08
387.86	1.08
387.988	6.08
388.117	25.08
388.245	2.08
388.374	-0.92
388.502	5.08
388.631	2.08
388.759	-4.92
388.888	16.08
389.016	4.08
389.144	-4.92
389.273	3.08
389.401	-8.92
389.53	1.08
389.658	14.08
389.786	-20.92
389.915	-8.92
390.043	-5.92
390.172	-8.92
390.3	40.08
390.428	10.08
390.557	-7.92
390.685	1.08
390.813	19.08
390.942	26.08
391.07	10.08
391.198	8.08
391.327	-2.92
391.455	-9.92
391.583	13.08
391.712	26.08
391.84	2.08
391.968	4.08
392.096	-14.92
392.225	4.08
392.353	17.08
392.481	-9.92
392.609	15.08
392.738	3.08
392.866	6.08
392.994	-16.92
393.122	22.08
393.251	9.08
393.379	-10.92
393.507	-11.92
393.635	-11.92
393.764	3.08
393.892	10.08
394.02	-19.92
394.148	-1.92
394.276	5.08
394.404	42.08
394.533	4.08
394.661	13.08
394.789	27.08
394.917	47.08
395.045	13.08
395.173	-18.92
395.302	-2.92
395.43	-6.92
395.558	-3.92
395.686	19.08
395.814	3.08
395.942	-3.92
396.07	-7.92
396.198	13.08
396.326	9.08
396.454	28.08
396.582	3.08
396.711	6.08
396.839	22.08
396.967	13.08
397.095	7.08
397.223	13.08
397.351	15.08
397.479	14.08
397.607	2.08
397.735	17.08
397.863	22.08
397.991	22.08
398.119	-2.92
398.247	-8.92
398.375	-5.92
398.503	16.08
398.631	22.08
398.759	1.08
398.887	-3.92
399.015	3.08
399.143	4.08
399.271	15.08
399.399	20.08
399.526	17.08
399.654	14.08
399.782	-11.92
399.91	16.08
400.038	24.08
400.166	-12.92
400.294	-8.92
400.422	-14.92
400.55	4.08
400.678	4.08
400.805	13.08
400.933	11.08
401.061	13.08
401.189	-2.92
401.317	17.08
401.445	23.08
401.573	-4.92
401.7	-10.92
401.828	-5.92
401.956	12.08
402.084	13.08
402.212	1.08
402.34	11.08
402.467	25.08
402.595	16.08
402.723	11.08
402.851	9.08
402.978	2.08
403.106	14.08
403.234	-0.92
403.362	25.08
403.489	14.08
403.617	1.08
403.745	2.08
403.873	0.08
404	-1.92
404.128	13.08
404.256	24.08
404.384	28.08
404.511	4.08
404.639	10.08
404.767	-1.92
404.894	2.08
405.022	6.08
405.15	10.08
405.277	-0.92
405.405	-5.92
405.533	11.08
405.66	-9.92
405.788	-16.92
405.916	-15.92
406.043	-8.92
406.171	-2.92
406.299	7.08
406.426	16.08
406.554	49.08
406.681	20.08
406.809	13.08
406.937	2.08
407.064	-0.92
407.192	5.08
407.319	1.08
407.447	0.08
407.574	20.08
407.702	-1.92
407.83	-2.92
407.957	7.08
408.085	14.08
408.212	10.08
408.34	-3.92
408.467	-4.92
408.595	3.08
408.722	19.08
408.85	10.08
408.977	-15.92
409.105	-1.92
409.232	12.08
409.36	0.08
409.487	1.08
409.615	14.08
409.742	30.08
409.87	28.08
409.997	28.08
410.125	47.08
410.252	69.08
410.379	37.08
410.507	12.08
410.634	9.08
410.762	30.08
410.889	11.08
411.017	17.08
411.144	17.08
411.271	-0.92
411.399	-5.92
411.526	-6.92
411.653	1.08
411.781	25.08
411.908	12.08
412.036	10.08
412.163	35.08
412.29	17.08
412.418	15.08
412.545	16.08
412.672	15.08
412.8	31.08
412.927	29.08
413.054	33.08
413.182	10.08
413.309	0.08
413.436	-0.92
413.564	-11.92
413.691	3.08
413.818	7.08
413.945	-10.92
414.073	-2.92
414.2	5.08
414.327	13.08
414.454	13.08
414.582	13.08
414.709	4.08
414.836	-0.92
414.963	14.08
415.091	15.08
415.218	-0.92
415.345	0.08
415.472	4.08
415.6	3.08
415.727	10.08
415.854	1.08
415.981	-3.92
416.108	-15.92
416.236	22.08
416.363	12.08
416.49	-1.92
416.617	0.08
416.744	23.08
416.871	31.08
416.998	8.08
417.126	6.08
417.253	-12.92
417.38	17.08
417.507	28.08
417.634	7.08
417.761	22.08
417.888	9.08
418.015	7.08
418.143	4.08
418.27	11.08
418.397	6.08
418.524	-4.92
418.651	9.08
418.778	11.08
418.905	37.08
419.032	13.08
419.159	-9.92
419.286	24.08
419.413	17.08
419.54	21.08
419.667	1.08
419.794	6.08
419.921	13.08
420.048	11.08
420.175	18.08
420.302	-8.92
420.429	9.08
420.556	3.08
420.683	3.08
420.81	15.08
420.937	2.08
421.064	20.08
421.191	13.08
421.318	22.08
421.445	32.08
421.572	0.08
421.699	16.08
421.826	10.08
421.953	30.08
422.08	9.08
422.207	19.08
422.334	7.08
422.461	19.08
422.588	5.08
422.714	26.08
422.841	26.08
422.968	15.08
423.095	14.08
423.222	10.08
423.349	25.08
423.476	19.08
423.603	-2.92
423.729	1.08
423.856	17.08
423.983	13.08
424.11	6.08
424.237	14.08
424.364	17.08
424.491	1.08
424.617	-7.92
424.744	-3.92
424.871	11.08
424.998	-5.92
425.125	0.08
425.251	10.08
425.378	-4.92
425.505	16.08
425.632	4.08
425.758	-6.92
425.885	13.08
426.012	18.08
426.139	18.08
426.266	-1.92
426.392	11.08
426.519	35.08
426.646	8.08
426.772	7.08
426.899	8.08
427.026	5.08
427.153	7.08
427.279	15.08
427.406	9.08
427.533	22.08
427.659	7.08
427.786	-3.92
427.913	6.08
428.039	-5.92
428.166	2.08
428.293	-9.92
428.419	8.08
428.546	9.08
428.673	-6.92
428.799	-21.92
428.926	12.08
429.053	33.08
429.179	19.08
429.306	-0.92
429.433	28.08
429.559	25.08
429.686	1.08
429.812	10.08
429.939	-1.92
430.066	-0.92
430.192	9.08
430.319	5.08
430.445	-12.92
430.572	20.08
430.699	-14.92
430.825	-12.92
430.952	10.08
431.078	11.08
431.205	5.08
431.331	-8.92
431.458	13.08
431.584	14.08
431.711	-14.92
431.837	13.08
431.964	16.08
432.09	1.08
432.217	1.08
432.343	7.08
432.47	24.08
432.596	15.08
432.723	-6.92
432.849	-7.92
432.976	10.08
433.102	-0.92
433.229	9.08
433.355	34.08
433.482	75.08
433.608	153.08
433.735	140.08
433.861	130.08
433.987	141.08
434.114	217.08
434.24	183.08
434.367	59.08
434.493	18.08
434.62	11.08
434.746	20.08
434.872	1.08
434.999	13.08
435.125	-3.92
435.252	-9.92
435.378	-0.92
435.504	10.08
435.631	11.08
435.757	16.08
435.883	13.08
436.01	5.08
436.136	2.08
436.262	5.08
436.389	17.08
436.515	24.08
436.641	20.08
436.768	11.08
436.894	16.08
437.02	20.08
437.147	20.08
437.273	17.08
437.399	7.08
437.526	29.08
437.652	5.08
437.778	6.08
437.904	-0.92
438.031	8.08
438.157	3.08
438.283	11.08
438.409	9.08
438.536	10.08
438.662	2.08
438.788	14.08
438.914	18.08
439.041	18.08
439.167	21.08
439.293	4.08
439.419	2.08
439.546	10.08
439.672	1.08
439.798	7.08
439.924	25.08
440.05	13.08
440.177	12.08
440.303	3.08
440.429	-1.92
440.555	14.08
440.681	6.08
440.807	19.08
440.934	9.08
441.06	14.08
441.186	16.08
441.312	2.08
441.438	12.08
441.564	15.08
441.69	34.08
441.816	6.08
441.943	9.08
442.069	23.08
442.195	14.08
442.321	26.08
442.447	-8.92
442.573	-17.92
442.699	-11.92
442.825	-9.92
442.951	3.08
443.077	12.08
443.203	13.08
443.33	4.08
443.456	-5.92
443.582	-1.92
443.708	-7.92
443.834	30.08
443.96	20.08
444.086	13.08
444.212	21.08
444.338	26.08
444.464	17.08
444.59	19.08
444.716	12.08
444.842	-3.92
444.968	1.08
445.094	13.08
445.22	-4.92
445.346	-11.92
445.472	5.08
445.598	4.08
445.724	5.08
445.85	4.08
445.976	11.08
446.102	2.08
446.228	17.08
446.354	15.08
446.48	-2.92
446.605	11.08
446.731	13.08
446.857	4.08
446.983	1.08
447.109	-16.92
447.235	1.08
447.361	-15.92
447.487	20.08
447.613	0.08
447.739	-7.92
447.865	3.08
447.99	8.08
448.116	-1.92
448.242	-1.92
448.368	7.08
448.494	13.08
448.62	19.08
448.746	-7.92
448.872	5.08
448.997	4.08
449.123	4.08
449.249	30.08
449.375	30.08
449.501	8.08
449.627	-0.92
449.752	11.08
449.878	3.08
450.004	2.08
450.13	20.08
450.256	6.08
450.381	19.08
450.507	13.08
450.633	7.08
450.759	22.08
450.884	-9.92
451.01	11.08
451.136	22.08
451.262	22.08
451.388	18.08
451.513	0.08
451.639	6.08
451.765	21.08
451.89	24.08
452.016	15.08
452.142	-7.92
452.268	7.08
452.393	1.08
452.519	-3.92
452.645	9.08
452.771	-16.92
452.896	-5.92
453.022	-14.92
453.148	27.08
453.273	19.08
453.399	8.08
453.525	-0.92
453.65	17.08
453.776	10.08
453.902	26.08
454.027	21.08
454.153	14.08
454.279	28.08
454.404	16.08
454.53	27.08
454.656	48.08
454.781	15.08
454.907	10.08
455.032	15.08
455.158	36.08
455.284	20.08
455.409	9.08
455.535	20.08
455.66	18.08
455.786	4.08
455.912	7.08
456.037	-7.92
456.163	14.08
456.288	15.08
456.414	-12.92
456.539	4.08
456.665	27.08
456.791	11.08
456.916	11.08
457.042	4.08
457.167	-8.92
457.293	8.08
457.418	0.08
457.544	9.08
457.669	0.08
457.795	-16.92
457.92	12.08
458.046	11.08
458.171	20.08
458.297	-15.92
458.422	-3.92
458.548	-0.92
458.673	27.08
458.799	-2.92
458.924	-21.92
459.05	14.08
459.175	4.08
459.301	7.08
459.426	12.08
459.552	-5.92
459.677	11.08
459.803	26.08
459.928	4.08
460.053	15.08
460.179	24.08
460.304	35.08
460.43	15.08
460.555	11.08
460.681	9.08
460.806	-3.92
460.931	10.08
461.057	13.08
461.182	14.08
461.308	15.08
461.433	20.08
461.558	-7.92
461.684	27.08
461.809	4.08
461.934	8.08
462.06	25.08
462.185	-10.92
462.311	-4.92
462.436	2.08
462.561	27.08
462.687	0.08
462.812	3.08
462.937	-6.92
463.063	-13.92
463.188	-6.92
463.313	18.08
463.439	-1.92
463.564	-4.92
463.689	-3.92
463.814	10.08
463.94	6.08
464.065	18.08
464.19	40.08
464.316	1.08
464.441	-1.92
464.566	-0.92
464.692	-8.92
464.817	4.08
464.942	15.08
465.067	18.08
465.193	-14.92
465.318	3.08
465.443	13.08
465.568	-0.92
465.694	11.08
465.819	21.08
465.944	0.08
466.069	6.08
466.194	-3.92
466.32	26.08
466.445	6.08
466.57	-15.92
466.695	10.08
466.82	15.08
466.946	16.08
467.071	11.08
467.196	3.08
467.321	21.08
467.446	4.08
467.572	9.08
467.697	12.08
467.822	1.08
467.947	28.08
468.072	9.08
468.197	-4.92
468.323	-0.92
468.448	18.08
468.573	11.08
468.698	-4.92
468.823	19.08
468.948	29.08
469.073	12.08
469.198	10.08
469.324	31.08
469.449	8.08
469.574	17.08
469.699	8.08
469.824	15.08
469.949	3.08
470.074	15.08
470.199	46.08
470.324	31.08
470.449	29.08
470.574	14.08
470.7	24.08
470.825	30.08
470.95	27.08
471.075	3.08
471.2	9.08
471.325	23.08
471.45	3.08
471.575	-11.92
471.7	27.08
471.825	-4.92
471.95	3.08
472.075	11.08
472.2	9.08
472.325	4.08
472.45	5.08
472.575	3.08
472.7	2.08
472.825	21.08
472.95	24.08
473.075	-1.92
473.2	-0.92
473.325	17.08
473.45	-1.92
473.575	-2.92
473.7	6.08
473.825	3.08
473.95	8.08
474.075	17.08
474.2	-3.92
474.325	-23.92
474.45	14.08
474.574	21.08
474.699	35.08
474.824	24.08
474.949	-0.92
475.074	-9.92
475.199	15.08
475.324	17.08
475.449	13.08
475.574	20.08
475.699	3.08
475.824	12.08
475.949	4.08
476.073	5.08
476.198	5.08
476.323	5.08
476.448	8.08
476.573	9.08
476.698	32.08
476.823	17.08
476.947	22.08
477.072	11.08
477.197	-2.92
477.322	15.08
477.447	16.08
477.572	18.08
477.697	-5.92
477.821	10.08
477.946	34.08
478.071	26.08
478.196	37.08
478.321	21.08
478.445	0.08
478.57	2.08
478.695	-1.92
478.82	27.08
478.945	14.08
479.069	8.08
479.194	17.08
479.319	13.08
479.444	34.08
479.569	-2.92
479.693	10.08
479.818	-0.92
479.943	33.08
480.068	19.08
480.192	10.08
480.317	0.08
480.442	-3.92
480.567	-6.92
480.691	6.08
480.816	7.08
480.941	11.08
481.066	23.08
481.19	23.08
481.315	13.08
481.44	10.08
481.564	11.08
481.689	14.08
481.814	32.08
481.938	21.08
482.063	1.08
482.188	14.08
482.313	47.08
482.437	25.08
482.562	9.08
482.687	24.08
482.811	37.08
482.936	36.08
483.061	36.08
483.185	16.08
483.31	30.08
483.435	16.08
483.559	15.08
483.684	17.08
483.808	25.08
483.933	5.08
484.058	16.08
484.182	20.08
484.307	2.08
484.432	25.08
484.556	33.08
484.681	6.08
484.805	7.08
484.93	18.08
485.055	47.08
485.179	81.08
485.304	123.08
485.428	349.08
485.553	1197.08
485.678	1709.08
485.802	1615.08
485.927	1795.08
486.051	2621.08
486.176	1602.08
486.3	446.08
486.425	147.08
486.549	84.08
486.674	73.08
486.799	28.08
486.923	24.08
487.048	19.08
487.172	5.08
487.297	7.08
487.421	41.08
487.546	28.08
487.67	36.08
487.795	6.08
487.919	15.08
488.044	13.08
488.168	31.08
488.293	9.08
488.417	7.08
488.542	28.08
488.666	24.08
488.791	24.08
488.915	14.08
489.04	34.08
489.164	14.08
489.289	24.08
489.413	-5.92
489.538	9.08
489.662	35.08
489.786	1.08
489.911	22.08
490.035	24.08
490.16	-12.92
490.284	14.08
490.409	-0.92
490.533	3.08
490.658	33.08
490.782	20.08
490.906	27.08
491.031	34.08
491.155	21.08
491.28	20.08
491.404	8.08
491.528	27.08
491.653	25.08
491.777	30.08
491.902	8.08
492.026	6.08
492.15	7.08
492.275	24.08
492.399	32.08
492.524	20.08
492.648	27.08
492.772	25.08
492.897	0.08
493.021	3.08
493.145	17.08
493.27	31.08
493.394	14.08
493.518	3.08
493.643	-0.92
493.767	10.08
493.891	-2.92
494.016	-5.92
494.14	10.08
494.264	-8.92
494.389	10.08
494.513	-7.92
494.637	16.08
494.762	21.08
494.886	23.08
495.01	6.08
495.134	2.08
495.259	16.08
495.383	19.08
495.507	11.08
495.632	26.08
495.756	34.08
495.88	16.08
496.004	3.08
496.129	-4.92
496.253	10.08
496.377	17.08
496.501	19.08
496.626	7.08
496.75	27.08
496.874	30.08
496.998	14.08
497.123	30.08
497.247	24.08
497.371	12.08
497.495	6.08
497.62	14.08
497.744	8.08
497.868	-10.92
497.992	9.08
498.116	13.08
498.241	17.08
498.365	-2.92
498.489	-4.92
498.613	21.08
498.737	2.08
498.862	12.08
498.986	-1.92
499.11	10.08
499.234	4.08
499.358	5.08
499.482	9.08
499.607	8.08
499.731	21.08
499.855	40.08
499.979	9.08
500.103	17.08
500.227	17.08
500.351	3.08
500.476	6.08
500.6	0.08
500.724	12.08
500.848	2.08
500.972	8.08
501.096	13.08
501.22	35.08
501.344	24.08
501.469	8.08
501.593	11.08
501.717	13.08
501.841	8.08
501.965	18.08
502.089	12.08
502.213	12.08
502.337	22.08
502.461	5.08
502.585	-5.92
502.709	4.08
502.834	12.08
502.958	11.08
503.082	-2.92
503.206	13.08
503.33	33.08
503.454	33.08
503.578	24.08
503.702	1.08
503.826	-7.92
503.95	27.08
504.074	11.08
504.198	9.08
504.322	-3.92
504.446	3.08
504.57	13.08
504.694	14.08
504.818	-0.92
504.942	20.08
505.066	25.08
505.19	21.08
505.314	17.08
505.438	9.08
505.562	4.08
505.686	28.08
505.81	18.08
505.934	32.08
506.058	15.08
506.182	13.08
506.306	29.08
506.43	7.08
506.554	15.08
506.678	4.08
506.802	21.08
506.926	21.08
507.05	14.08
507.174	21.08
507.298	10.08
507.422	18.08
507.546	21.08
507.67	21.08
507.794	8.08
507.918	10.08
508.042	18.08
508.165	15.08
508.289	19.08
508.413	9.08
508.537	3.08
508.661	4.08
508.785	2.08
508.909	18.08
509.033	23.08
509.157	15.08
509.281	12.08
509.405	3.08
509.528	29.08
509.652	35.08
509.776	-2.92
509.9	17.08
510.024	4.08
510.148	4.08
510.272	2.08
510.396	8.08
510.519	12.08
510.643	33.08
510.767	7.08
510.891	5.08
511.015	-3.92
511.139	5.08
511.263	21.08
511.386	5.08
511.51	6.08
511.634	20.08
511.758	13.08
511.882	-12.92
512.006	11.08
512.129	24.08
512.253	47.08
512.377	17.08
512.501	22.08
512.625	21.08
512.748	6.08
512.872	10.08
512.996	5.08
513.12	8.08
513.244	-0.92
513.367	25.08
513.491	19.08
513.615	28.08
513.739	3.08
513.862	17.08
513.986	10.08
514.11	20.08
514.234	7.08
514.358	20.08
514.481	32.08
514.605	1.08
514.729	-0.92
514.853	20.08
514.976	9.08
515.1	16.08
515.224	19.08
515.348	5.08
515.471	3.08
515.595	8.08
515.719	9.08
515.842	11.08
515.966	-0.92
516.09	34.08
516.214	6.08
516.337	36.08
516.461	17.08
516.585	17.08
516.708	29.08
516.832	27.08
516.956	30.08
517.08	7.08
517.203	-0.92
517.327	1.08
517.451	27.08
517.574	43.08
517.698	16.08
517.822	4.08
517.945	23.08
518.069	29.08
518.193	49.08
518.316	11.08
518.44	33.08
518.564	16.08
518.687	12.08
518.811	42.08
518.935	49.08
519.058	34.08
519.182	41.08
519.306	19.08
519.429	20.08
519.553	47.08
519.676	29.08
519.8	12.08
519.924	11.08
520.047	24.08
520.171	16.08
520.294	13.08
520.418	20.08
520.542	25.08
520.665	26.08
520.789	12.08
520.913	0.08
521.036	-10.92
521.16	9.08
521.283	-0.92
521.407	17.08
521.53	6.08
521.654	-12.92
521.778	34.08
521.901	25.08
522.025	26.08
522.148	10.08
522.272	9.08
522.395	9.08
522.519	7.08
522.643	23.08
522.766	-4.92
522.89	-5.92
523.013	7.08
523.137	-16.92
523.26	11.08
523.384	22.08
523.507	3.08
523.631	17.08
523.754	0.08
523.878	-0.92
524.002	19.08
524.125	-2.92
524.249	-15.92
524.372	16.08
524.496	19.08
524.619	12.08
524.743	18.08
524.866	5.08
524.99	11.08
525.113	-1.92
525.237	21.08
525.36	8.08
525.484	6.08
525.607	-0.92
525.731	-0.92
525.854	12.08
525.978	37.08
526.101	17.08
526.224	8.08
526.348	15.08
526.471	-0.92
526.595	20.08
526.718	-2.92
526.842	15.08
526.965	21.08
527.089	21.08
527.212	9.08
527.336	-8.92
527.459	12.08
527.582	19.08
527.706	5.08
527.829	8.08
527.953	21.08
528.076	-0.92
528.2	-12.92
528.323	5.08
528.446	9.08
528.57	-3.92
528.693	20.08
528.817	11.08
528.94	21.08
529.064	30.08
529.187	-12.92
529.31	12.08
529.434	-13.92
529.557	-10.92
529.68	17.08
529.804	24.08
529.927	-4.92
530.051	2.08
530.174	5.08
530.297	11.08
530.421	32.08
530.544	6.08
530.668	5.08
530.791	-3.92
530.914	23.08
531.038	7.08
531.161	5.08
531.284	9.08
531.408	6.08
531.531	15.08
531.654	-0.92
531.778	36.08
531.901	-9.92
532.024	9.08
532.148	9.08
532.271	12.08
532.394	8.08
532.518	22.08
532.641	20.08
532.764	20.08
532.888	19.08
533.011	7.08
533.134	3.08
533.258	29.08
533.381	18.08
533.504	18.08
533.628	-1.92
533.751	18.08
533.874	5.08
533.997	3.08
534.121	-0.92
534.244	12.08
534.367	20.08
534.491	2.08
534.614	-11.92
534.737	18.08
534.86	9.08
534.984	7.08
535.107	4.08
535.23	29.08
535.354	-3.92
535.477	0.08
535.6	-7.92
535.723	20.08
535.847	10.08
535.97	-16.92
536.093	6.08
536.216	-0.92
536.34	4.08
536.463	-9.92
536.586	9.08
536.709	13.08
536.833	27.08
536.956	4.08
537.079	-4.92
537.202	10.08
537.325	5.08
537.449	-2.92
537.572	19.08
537.695	4.08
537.818	0.08
537.941	-7.92
538.065	0.08
538.188	12.08
538.311	35.08
538.434	21.08
538.558	-11.92
538.681	0.08
538.804	16.08
538.927	17.08
539.05	33.08
539.173	14.08
539.297	22.08
539.42	5.08
539.543	3.08
539.666	35.08
539.789	24.08
539.913	13.08
540.036	25.08
540.159	25.08
540.282	-5.92
540.405	-0.92
540.528	8.08
540.651	21.08
540.775	9.08
540.898	14.08
541.021	9.08
541.144	8.08
541.267	8.08
541.39	1.08
541.513	12.08
541.637	4.08
541.76	11.08
541.883	10.08
542.006	18.08
542.129	21.08
542.252	-6.92
542.375	33.08
542.498	16.08
542.622	23.08
542.745	10.08
542.868	12.08
542.991	12.08
543.114	16.08
543.237	30.08
543.36	24.08
543.483	19.08
543.606	18.08
543.73	7.08
543.853	5.08
543.976	4.08
544.099	12.08
544.222	0.08
544.345	-6.92
544.468	0.08
544.591	14.08
544.714	6.08
544.837	25.08
544.96	6.08
545.083	24.08
545.206	4.08
545.329	13.08
545.453	10.08
545.576	21.08
545.699	-6.92
545.822	-2.92
545.945	11.08
546.068	7.08
546.191	7.08
546.314	19.08
546.437	28.08
546.56	2.08
546.683	10.08
546.806	16.08
546.929	-2.92
547.052	4.08
547.175	-5.92
547.298	16.08
547.421	5.08
547.544	11.08
547.667	-1.92
547.79	6.08
547.913	-4.92
548.036	3.08
548.159	7.08
548.282	21.08
548.405	5.08
548.528	22.08
548.651	16.08
548.774	7.08
548.897	9.08
549.02	20.08
549.143	25.08
549.266	20.08
549.389	16.08
549.512	1.08
549.635	50.08
549.758	16.08
549.881	13.08
550.004	8.08
550.127	13.08
550.25	2.08
550.373	-2.92
550.496	26.08
550.619	22.08
550.742	15.08
550.865	-14.92
550.988	5.08
551.111	28.08
551.234	16.08
551.356	13.08
551.479	1.08
551.602	10.08
551.725	25.08
551.848	15.08
551.971	20.08
552.094	22.08
552.217	14.08
552.34	1.08
552.463	-4.92
552.586	25.08
552.709	4.08
552.832	13.08
552.955	26.08
553.077	18.08
553.2	10.08
553.323	7.08
553.446	18.08
553.569	3.08
553.692	21.08
553.815	15.08
553.938	18.08
554.061	12.08
554.184	-0.92
554.306	27.08
554.429	4.08
554.552	3.08
554.675	0.08
554.798	11.08
554.921	16.08
555.044	3.08
555.167	22.08
555.29	7.08
555.412	3.08
555.535	4.08
555.658	7.08
555.781	16.08
555.904	35.08
556.027	1.08
556.15	3.08
556.272	-3.92
556.395	19.08
556.518	10.08
556.641	12.08
556.764	12.08
556.887	-0.92
557.01	10.08
557.132	-15.92
557.255	0.08
557.378	8.08
557.501	-2.92
557.624	4.08
557.747	18.08
557.869	3.08
557.992	19.08
558.115	16.08
558.238	10.08
558.361	6.08
558.483	29.08
558.606	18.08
558.729	19.08
558.852	23.08
558.975	19.08
559.098	25.08
559.22	19.08
559.343	22.08
559.466	17.08
559.589	10.08
559.712	8.08
559.834	14.08
559.957	10.08
560.08	20.08
560.203	29.08
560.325	35.08
560.448	45.08
560.571	4.08
560.694	7.08
560.817	15.08
560.939	5.08
561.062	-1.92
561.185	13.08
561.308	14.08
561.43	-0.92
561.553	3.08
561.676	-12.92
561.799	23.08
561.921	6.08
562.044	4.08
562.167	14.08
562.29	51.08
562.413	27.08
562.535	7.08
562.658	0.08
562.781	14.08
562.903	9.08
563.026	-6.92
563.149	31.08
563.272	29.08
563.394	32.08
563.517	19.08
563.64	16.08
563.763	1.08
563.885	17.08
564.008	23.08
564.131	4.08
564.254	-3.92
564.376	15.08
564.499	-11.92
564.622	10.08
564.744	19.08
564.867	12.08
564.99	20.08
565.113	31.08
565.235	16.08
565.358	17.08
565.481	-1.92
565.603	8.08
565.726	7.08
565.849	15.08
565.971	17.08
566.094	-21.92
566.217	10.08
566.34	4.08
566.462	17.08
566.585	19.08
566.708	24.08
566.83	6.08
566.953	31.08
567.076	13.08
567.198	4.08
567.321	3.08
567.444	4.08
567.566	8.08
567.689	21.08
567.812	14.08
567.934	15.08
568.057	-4.92
568.18	7.08
568.302	4.08
568.425	2.08
568.548	19.08
568.67	19.08
568.793	16.08
568.916	1.08
569.038	0.08
569.161	-1.92
569.283	6.08
569.406	15.08
569.529	8.08
569.651	4.08
569.774	3.08
569.897	1.08
570.019	27.08
570.142	23.08
570.265	7.08
570.387	5.08
570.51	15.08
570.632	17.08
570.755	-8.92
570.878	-4.92
571	21.08
571.123	11.08
571.246	28.08
571.368	10.08
571.491	3.08
571.613	1.08
571.736	7.08
571.859	13.08
571.981	7.08
572.104	-6.92
572.226	2.08
572.349	-9.92
572.472	-3.92
572.594	9.08
572.717	18.08
572.839	11.08
572.962	5.08
573.085	17.08
573.207	10.08
573.33	10.08
573.452	17.08
573.575	26.08
573.697	20.08
573.82	9.08
573.943	16.08
574.065	14.08
574.188	17.08
574.31	36.08
574.433	7.08
574.555	17.08
574.678	7.08
574.801	10.08
574.923	12.08
575.046	4.08
575.168	12.08
575.291	2.08
575.413	10.08
575.536	4.08
575.659	11.08
575.781	4.08
575.904	3.08
576.026	19.08
576.149	8.08
576.271	21.08
576.394	10.08
576.516	-11.92
576.639	1.08
576.761	8.08
576.884	7.08
577.007	13.08
577.129	18.08
577.252	12.08
577.374	14.08
577.497	-0.92
577.619	23.08
577.742	-3.92
577.864	19.08
577.987	11.08
578.109	36.08
578.232	21.08
578.354	27.08
578.477	10.08
578.599	10.08
578.722	4.08
578.844	3.08
578.967	16.08
579.089	-5.92
579.212	-24.92
579.334	20.08
579.457	11.08
579.579	13.08
579.702	1.08
579.824	24.08
579.947	1.08
580.069	-1.92
580.192	13.08
580.314	27.08
580.437	29.08
580.559	22.08
580.682	5.08
580.804	16.08
580.927	18.08
581.049	24.08
581.172	17.08
581.294	18.08
581.417	23.08
581.539	11.08
581.662	9.08
581.784	21.08
581.907	27.08
582.029	8.08
582.152	-0.92
582.274	0.08
582.396	14.08
582.519	-2.92
582.641	-24.92
582.764	-4.92
582.886	48.08
583.009	11.08
583.131	11.08
583.254	20.08
583.376	21.08
583.499	20.08
583.621	17.08
583.743	16.08
583.866	8.08
583.988	-0.92
584.111	21.08
584.233	12.08
584.356	23.08
584.478	-0.92
584.601	2.08
584.723	27.08
584.845	31.08
584.968	2.08
585.09	-16.92
585.213	19.08
585.335	14.08
585.458	5.08
585.58	17.08
585.702	39.08
585.825	27.08
585.947	-6.92
586.07	-12.92
586.192	-12.92
586.315	23.08
586.437	9.08
586.559	7.08
586.682	8.08
586.804	18.08
586.927	0.08
587.049	3.08
587.171	24.08
587.294	15.08
587.416	27.08
587.539	-6.92
587.661	-9.92
587.783	-0.92
587.906	-5.92
588.028	0.08
588.151	8.08
588.273	14.08
588.395	-0.92
588.518	11.08
588.64	22.08
588.763	22.08
588.885	17.08
589.007	10.08
589.13	-14.92
589.252	-0.92
589.375	5.08
589.497	-0.92
589.619	7.08
589.742	10.08
589.864	23.08
589.986	21.08
590.109	4.08
590.231	12.08
590.354	12.08
590.476	-8.92
590.598	-2.92
590.721	5.08
590.843	22.08
590.965	6.08
591.088	11.08
591.21	5.08
591.332	15.08
591.455	6.08
591.577	5.08
591.7	5.08
591.822	-11.92
591.944	-2.92
592.067	11.08
592.189	13.08
592.311	21.08
592.434	-4.92
592.556	16.08
592.678	14.08
592.801	13.08
592.923	-3.92
593.045	-3.92
593.168	9.08
593.29	10.08
593.412	21.08
593.535	-4.92
593.657	11.08
593.779	7.08
593.902	16.08
594.024	19.08
594.146	37.08
594.269	16.08
594.391	7.08
594.513	9.08
594.636	8.08
594.758	-3.92
594.88	30.08
595.003	20.08
595.125	29.08
595.247	6.08
595.37	30.08
595.492	9.08
595.614	38.08
595.737	6.08
595.859	15.08
595.981	15.08
596.104	4.08
596.226	15.08
596.348	-5.92
596.471	9.08
596.593	13.08
596.715	3.08
596.838	7.08
596.96	-7.92
597.082	15.08
597.204	14.08
597.327	11.08
597.449	0.08
597.571	4.08
597.694	24.08
597.816	6.08
597.938	10.08
598.061	3.08
598.183	7.08
598.305	21.08
598.427	20.08
598.55	16.08
598.672	12.08
598.794	34.08
598.917	5.08
599.039	12.08
599.161	22.08
599.283	12.08
599.406	27.08
599.528	24.08
599.65	45.08
599.773	22.08
599.895	43.08
600.017	37.08
600.139	12.08
600.262	7.08
600.384	-0.92
600.506	22.08
600.628	15.08
600.751	29.08
600.873	10.08
600.995	-3.92
601.118	11.08
601.24	19.08
601.362	15.08
601.484	19.08
601.607	19.08
601.729	0.08
601.851	9.08
601.973	17.08
602.096	11.08
602.218	24.08
602.34	19.08
602.462	25.08
602.585	19.08
602.707	-3.92
602.829	24.08
602.951	3.08
603.074	-21.92
603.196	13.08
603.318	1.08
603.44	20.08
603.563	9.08
603.685	3.08
603.807	15.08
603.929	16.08
604.052	17.08
604.174	20.08
604.296	14.08
604.418	24.08
604.541	23.08
604.663	19.08
604.785	9.08
604.907	17.08
605.03	-0.92
605.152	38.08
605.274	5.08
605.396	9.08
605.519	8.08
605.641	16.08
605.763	5.08
605.885	21.08
606.008	-2.92
606.13	14.08
606.252	24.08
606.374	-5.92
606.496	-2.92
606.619	13.08
606.741	6.08
606.863	27.08
606.985	30.08
607.108	9.08
607.23	19.08
607.352	6.08
607.474	8.08
607.596	13.08
607.719	13.08
607.841	32.08
607.963	17.08
608.085	15.08
608.207	41.08
608.33	11.08
608.452	-4.92
608.574	-1.92
608.696	16.08
608.819	8.08
608.941	14.08
609.063	0.08
609.185	-2.92
609.307	11.08
609.43	12.08
609.552	21.08
609.674	-16.92
609.796	24.08
609.918	16.08
610.041	6.08
610.163	12.08
610.285	12.08
610.407	15.08
610.529	15.08
610.652	1.08
610.774	2.08
610.896	5.08
611.018	8.08
611.14	9.08
611.263	4.08
611.385	15.08
611.507	12.08
611.629	5.08
611.751	15.08
611.873	27.08
611.996	23.08
612.118	14.08
612.24	8.08
612.362	6.08
612.484	12.08
612.607	9.08
612.729	15.08
612.851	3.08
612.973	13.08
613.095	8.08
613.218	17.08
613.34	24.08
613.462	15.08
613.584	-1.92
613.706	5.08
613.828	35.08
613.951	15.08
614.073	13.08
614.195	-9.92
614.317	37.08
614.439	27.08
614.561	28.08
614.684	15.08
614.806	20.08
614.928	0.08
615.05	7.08
615.172	25.08
615.294	28.08
615.417	15.08
615.539	0.08
615.661	23.08
615.783	29.08
615.905	11.08
616.027	58.08
616.15	100.08
616.272	81.08
616.394	51.08
616.516	24.08
616.638	19.08
616.76	8.08
616.883	11.08
617.005	-0.92
617.127	-2.92
617.249	-0.92
617.371	17.08
617.493	5.08
617.615	21.08
617.738	8.08
617.86	11.08
617.982	6.08
618.104	6.08
618.226	-12.92
618.348	-15.92
618.471	5.08
618.593	9.08
618.715	-1.92
618.837	14.08
618.959	7.08
619.081	0.08
619.203	10.08
619.326	9.08
619.448	8.08
619.57	9.08
619.692	11.08
619.814	28.08
619.936	28.08
620.058	32.08
620.181	13.08
620.303	23.08
620.425	20.08
620.547	-0.92
620.669	2.08
620.791	8.08
620.913	-4.92
621.036	-0.92
621.158	16.08
621.28	17.08
621.402	-18.92
621.524	1.08
621.646	15.08
621.768	-0.92
621.891	-0.92
622.013	11.08
622.135	5.08
622.257	-5.92
622.379	0.08
622.501	15.08
622.623	-4.92
622.745	21.08
622.868	1.08
622.99	-4.92
623.112	21.08
623.234	17.08
623.356	17.08
623.478	6.08
623.6	27.08
623.722	18.08
623.845	23.08
623.967	6.08
624.089	21.08
624.211	6.08
624.333	29.08
624.455	28.08
624.577	18.08
624.699	15.08
624.822	-2.92
624.944	-0.92
625.066	14.08
625.188	8.08
625.31	-0.92
625.432	30.08
625.554	10.08
625.676	21.08
625.799	3.08
625.921	17.08
626.043	17.08
626.165	-21.92
626.287	-27.92
626.409	14.08
626.531	11.08
626.653	0.08
626.775	17.08
626.898	5.08
627.02	-3.92
627.142	16.08
627.264	-1.92
627.386	0.08
627.508	8.08
627.63	1.08
627.752	16.08
627.874	7.08
627.997	13.08
628.119	23.08
628.241	23.08
628.363	17.08
628.485	16.08
628.607	19.08
628.729	1.08
628.851	7.08
628.973	8.08
629.096	9.08
629.218	14.08
629.34	2.08
629.462	-4.92
629.584	11.08
629.706	13.08
629.828	16.08
629.95	13.08
630.072	6.08
630.195	-16.92
630.317	17.08
630.439	17.08
630.561	15.08
630.683	3.08
630.805	-3.92
630.927	18.08
631.049	5.08
631.171	2.08
631.293	20.08
631.416	17.08
631.538	11.08
631.66	5.08
631.782	26.08
631.904	20.08
632.026	-5.92
632.148	0.08
632.27	7.08
632.392	15.08
632.514	-4.92
632.637	15.08
632.759	19.08
632.881	-4.92
633.003	-12.92
633.125	-15.92
633.247	3.08
633.369	-12.92
633.491	1.08
633.613	16.08
633.735	12.08
633.858	1.08
633.98	2.08
634.102	-10.92
634.224	3.08
634.346	-4.92
634.468	1.08
634.59	1.08
634.712	18.08
634.834	16.08
634.956	-3.92
635.078	-2.92
635.201	4.08
635.323	-0.92
635.445	-7.92
635.567	-7.92
635.689	22.08
635.811	15.08
635.933	15.08
636.055	11.08
636.177	15.08
636.299	11.08
636.421	-6.92
636.544	-4.92
636.666	25.08
636.788	19.08
636.91	8.08
637.032	13.08
637.154	9.08
637.276	15.08
637.398	26.08
637.52	12.08
637.642	11.08
637.764	20.08
637.887	9.08
638.009	-0.92
638.131	9.08
638.253	12.08
638.375	8.08
638.497	13.08
638.619	11.08
638.741	13.08
638.863	-7.92
638.985	-0.92
639.107	3.08
639.23	1.08
639.352	26.08
639.474	11.08
639.596	24.08
639.718	26.08
639.84	-0.92
639.962	12.08
640.084	27.08
640.206	8.08
640.328	13.08
640.45	21.08
640.573	1.08
640.695	7.08
640.817	0.08
640.939	15.08
641.061	18.08
641.183	6.08
641.305	5.08
641.427	15.08
641.549	13.08
641.671	11.08
641.793	-7.92
641.915	7.08
642.038	15.08
642.16	5.08
642.282	7.08
642.404	-0.92
642.526	3.08
642.648	4.08
642.77	3.08
642.892	9.08
643.014	32.08
643.136	15.08
643.258	4.08
643.381	22.08
643.503	1.08
643.625	5.08
643.747	-8.92
643.869	1.08
643.991	20.08
644.113	7.08
644.235	17.08
644.357	3.08
644.479	24.08
644.601	6.08
644.723	0.08
644.846	-0.92
644.968	2.08
645.09	1.08
645.212	-6.92
645.334	16.08
645.456	28.08
645.578	21.08
645.7	18.08
645.822	-0.92
645.944	6.08
646.066	11.08
646.188	2.08
646.311	19.08
646.433	14.08
646.555	45.08
646.677	39.08
646.799	20.08
646.921	8.08
647.043	23.08
647.165	9.08
647.287	16.08
647.409	7.08
647.531	21.08
647.654	0.08
647.776	13.08
647.898	12.08
648.02	21.08
648.142	14.08
648.264	18.08
648.386	-2.92
648.508	-5.92
648.63	3.08
648.752	5.08
648.874	12.08
648.997	-7.92
649.119	4.08
649.241	17.08
649.363	20.08
649.485	12.08
649.607	11.08
649.729	10.08
649.851	-0.92
649.973	7.08
650.095	17.08
650.217	6.08
650.34	20.08
650.462	15.08
650.584	15.08
650.706	33.08
650.828	12.08
650.95	-3.92
651.072	15.08
651.194	-0.92
651.316	16.08
651.438	19.08
651.56	6.08
651.683	6.08
651.805	15.08
651.927	-6.92
652.049	-3.92
652.171	-8.92
652.293	-7.92
652.415	-5.92
652.537	-15.92
652.659	-4.92
652.781	18.08
652.903	10.08
653.026	28.08
653.148	12.08
653.27	15.08
653.392	12.08
653.514	23.08
653.636	8.08
653.758	3.08
653.88	8.08
654.002	8.08
654.124	18.08
654.247	-2.92
654.369	16.08
654.491	27.08
654.613	11.08
654.735	1.08
654.857	25.08
654.979	7.08
655.101	21.08
655.223	44.08
655.345	31.08
655.468	38.08
655.59	12.08
655.712	17.08
655.834	15.08
655.956	31.08
656.078	54.08
656.2	39.08
656.322	31.08
656.444	21.08
656.566	26.08
656.689	42.08
656.811	57.08
656.933	84.08
657.055	97.08
657.177	149.08
657.299	265.08
657.421	506.08
657.543	1858.08
657.665	12500.08
657.787	15161.08
657.91	15220.08
658.032	15662.08
658.154	4585.08
658.276	3272.08
658.398	1116.08
658.52	1005.08
658.642	464.08
658.764	570.08
658.886	253.08
659.009	400.08
659.131	235.08
659.253	320.08
659.375	172.08
659.497	257.08
659.619	122.08
659.741	196.08
659.863	105.08
659.985	158.08
660.108	99.08
660.23	144.08
660.352	63.08
660.474	162.08
660.596	86.08
660.718	129.08
660.84	63.08
660.962	111.08
661.084	59.08
661.207	95.08
661.329	61.08
661.451	92.08
661.573	61.08
661.695	116.08
661.817	64.08
661.939	112.08
662.061	68.08
662.184	63.08
662.306	52.08
662.428	72.08
662.55	47.08
662.672	77.08
662.794	39.08
662.916	48.08
663.038	18.08
663.161	73.08
663.283	33.08
663.405	62.08
663.527	36.08
663.649	68.08
663.771	49.08
663.893	67.08
664.015	38.08
664.138	53.08
664.26	23.08
664.382	31.08
664.504	15.08
664.626	39.08
664.748	8.08
664.87	37.08
664.992	49.08
665.115	59.08
665.237	25.08
665.359	28.08
665.481	28.08
665.603	61.08
665.725	13.08
665.847	19.08
665.97	11.08
666.092	49.08
666.214	36.08
666.336	35.08
666.458	27.08
666.58	43.08
666.702	22.08
666.825	51.08
666.947	22.08
667.069	34.08
667.191	30.08
667.313	43.08
667.435	13.08
667.557	19.08
667.68	5.08
667.802	21.08
667.924	17.08
668.046	32.08
668.168	16.08
668.29	41.08
668.412	18.08
668.535	31.08
668.657	20.08
668.779	29.08
668.901	23.08
669.023	49.08
669.145	19.08
669.267	42.08
669.39	16.08
669.512	28.08
669.634	16.08
669.756	33.08
669.878	17.08
670	40.08
670.123	12.08
670.245	20.08
670.367	15.08
670.489	25.08
670.611	17.08
670.733	19.08
670.856	6.08
670.978	43.08
671.1	35.08
671.222	26.08
671.344	24.08
671.466	7.08
671.589	-3.92
671.711	-20.92
671.833	6.08
671.955	34.08
672.077	9.08
672.199	42.08
672.322	32.08
672.444	18.08
672.566	26.08
672.688	22.08
672.81	17.08
672.932	40.08
673.055	15.08
673.177	3.08
673.299	9.08
673.421	3.08
673.543	-0.92
673.665	36.08
673.788	26.08
673.91	13.08
674.032	-3.92
674.154	22.08
674.276	13.08
674.399	23.08
674.521	8.08
674.643	13.08
674.765	1.08
674.887	13.08
675.009	17.08
675.132	0.08
675.254	-0.92
675.376	15.08
675.498	23.08
675.62	32.08
675.743	1.08
675.865	46.08
675.987	-10.92
676.109	1.08
676.231	11.08
676.354	36.08
676.476	3.08
676.598	18.08
676.72	13.08
676.842	20.08
676.965	7.08
677.087	22.08
677.209	12.08
677.331	32.08
677.453	7.08
677.576	22.08
677.698	23.08
677.82	23.08
677.942	6.08
678.064	5.08
678.187	15.08
678.309	15.08
678.431	6.08
678.553	-2.92
678.675	21.08
678.798	34.08
678.92	20.08
679.042	16.08
679.164	6.08
679.286	12.08
679.409	9.08
679.531	-6.92
679.653	3.08
679.775	9.08
679.898	11.08
680.02	-3.92
680.142	0.08
680.264	20.08
680.386	-4.92
680.509	-5.92
680.631	4.08
680.753	16.08
680.875	-6.92
680.998	15.08
681.12	16.08
681.242	16.08
681.364	-3.92
681.486	12.08
681.609	3.08
681.731	3.08
681.853	8.08
681.975	-3.92
682.098	18.08
682.22	31.08
682.342	16.08
682.464	9.08
682.587	2.08
682.709	6.08
682.831	0.08
682.953	-5.92
683.076	-15.92
683.198	11.08
683.32	-3.92
683.442	23.08
683.565	34.08
683.687	-11.92
683.809	3.08
683.931	-0.92
684.054	11.08
684.176	5.08
684.298	17.08
684.42	-8.92
684.543	-0.92
684.665	9.08
684.787	-4.92
684.909	-0.92
685.032	15.08
685.154	-2.92
685.276	16.08
685.398	12.08
685.521	11.08
685.643	27.08
685.765	17.08
685.887	32.08
686.01	8.08
686.132	16.08
686.254	19.08
686.377	4.08
686.499	9.08
686.621	8.08
686.743	0.08
686.866	11.08
686.988	27.08
687.11	31.08
687.232	19.08
687.355	9.08
687.477	19.08
687.599	22.08
687.722	4.08
687.844	15.08
687.966	14.08
688.088	23.08
688.211	27.08
688.333	24.08
688.455	12.08
688.578	30.08
688.7	17.08
688.822	18.08
688.944	-15.92
689.067	36.08
689.189	8.08
689.311	3.08
689.434	11.08
689.556	15.08
689.678	-3.92
689.801	6.08
689.923	11.08
690.045	39.08
690.167	17.08
690.29	30.08
690.412	12.08
690.534	25.08
690.657	5.08
690.779	11.08
690.901	-1.92
691.024	-5.92
691.146	-14.92
691.268	9.08
691.391	8.08
691.513	35.08
691.635	15.08
691.758	26.08
691.88	23.08
692.002	3.08
692.125	8.08
692.247	2.08
692.369	8.08
692.492	-11.92
692.614	-1.92
692.736	12.08
692.859	13.08
692.981	-4.92
693.103	-0.92
693.226	6.08
693.348	16.08
693.47	20.08
693.593	10.08
693.715	-15.92
693.837	-0.92
693.96	-5.92
694.082	-5.92
694.204	4.08
694.327	4.08
694.449	-8.92
694.571	9.08
694.694	3.08
694.816	10.08
694.938	5.08
695.061	-14.92
695.183	6.08
695.305	12.08
695.428	20.08
695.55	-2.92
695.672	-4.92
695.795	18.08
695.917	22.08
696.04	1.08
696.162	15.08
696.284	11.08
696.407	3.08
696.529	7.08
696.651	28.08
696.774	-2.92
696.896	21.08
697.019	8.08
697.141	-0.92
697.263	-7.92
697.386	-3.92
697.508	7.08
697.63	16.08
697.753	25.08
697.875	24.08
697.998	-8.92
698.12	5.08
698.242	2.08
698.365	6.08
698.487	0.08
698.61	19.08
698.732	4.08
698.854	33.08
698.977	8.08
699.099	26.08
699.221	-8.92
699.344	33.08
699.466	19.08
699.589	19.08
699.711	15.08
699.834	10.08
699.956	-0.92
700.078	5.08
700.201	7.08
700.323	31.08
700.446	9.08
700.568	3.08
700.69	7.08
700.813	27.08
700.935	-3.92
701.058	11.08
701.18	10.08
701.302	5.08
701.425	-14.92
701.547	7.08
701.67	9.08
701.792	22.08
701.915	3.08
702.037	-12.92
702.159	-3.92
702.282	5.08
702.404	1.08
702.527	-2.92
702.649	31.08
702.772	19.08
702.894	13.08
703.017	13.08
703.139	8.08
703.261	38.08
703.384	5.08
703.506	-12.92
703.629	18.08
703.751	2.08
703.874	3.08
703.996	-0.92
704.119	-10.92
704.241	12.08
704.364	2.08
704.486	11.08
704.608	14.08
704.731	1.08
704.853	9.08
704.976	1.08
705.098	16.08
705.221	3.08
705.343	6.08
705.466	20.08
705.588	12.08
705.711	27.08
705.833	11.08
705.956	5.08
706.078	14.08
706.201	14.08
706.323	-8.92
706.446	-6.92
