Data from LowRes_H2_15_26_11_07_2024_HR4C61881__1__15-28-13-737.txt Node

Date: Thu Nov 07 15:28:13 EST 2024
User: crc00042
Spectrometer: HR4C6188
Trigger mode: 4
Integration Time (sec): 1.000000E-1
Scans to average: 1
Electric dark correction enabled: true
Nonlinearity correction enabled: false
Boxcar width: 0
XAxis mode: Wavelengths
Number of Pixels in Spectrum: 3648
>>>>>Begin Spectral Data<<<<<
245.66	-98.92
245.797	-98.92
245.934	-98.92
246.071	-58.92
246.208	20.08
246.344	-6.92
246.481	-18.92
246.618	-23.92
246.755	12.08
246.892	9.08
247.029	-3.92
247.165	-16.92
247.302	12.08
247.439	2.08
247.576	12.08
247.713	-4.92
247.849	24.08
247.986	4.08
248.123	19.08
248.26	-7.92
248.396	9.08
248.533	0.08
248.67	13.08
248.806	3.08
248.943	-6.92
249.08	-4.92
249.216	29.08
249.353	-5.92
249.49	-12.92
249.626	9.08
249.763	0.08
249.9	-10.92
250.036	-4.92
250.173	18.08
250.309	-3.92
250.446	3.08
250.582	3.08
250.719	-19.92
250.856	-8.92
250.992	-6.92
251.129	-4.92
251.265	-20.92
251.402	-10.92
251.538	-6.92
251.675	-14.92
251.811	12.08
251.948	23.08
252.084	0.08
252.221	9.08
252.357	-8.92
252.493	16.08
252.63	1.08
252.766	11.08
252.903	-1.92
253.039	2.08
253.175	-13.92
253.312	10.08
253.448	-7.92
253.585	-19.92
253.721	3.08
253.857	3.08
253.994	23.08
254.13	-0.92
254.266	8.08
254.403	-3.92
254.539	16.08
254.675	13.08
254.811	25.08
254.948	7.08
255.084	-2.92
255.22	-3.92
255.356	12.08
255.493	3.08
255.629	4.08
255.765	8.08
255.901	9.08
256.037	7.08
256.174	3.08
256.31	-1.92
256.446	-12.92
256.582	2.08
256.718	27.08
256.854	21.08
256.991	14.08
257.127	19.08
257.263	10.08
257.399	8.08
257.535	-7.92
257.671	-16.92
257.807	6.08
257.943	-11.92
258.079	-19.92
258.215	0.08
258.351	29.08
258.487	-3.92
258.623	8.08
258.759	-8.92
258.895	-2.92
259.031	-6.92
259.167	-10.92
259.303	34.08
259.439	0.08
259.575	-14.92
259.711	-7.92
259.847	-17.92
259.983	8.08
260.119	2.08
260.255	-3.92
260.391	18.08
260.527	4.08
260.663	12.08
260.799	-6.92
260.934	3.08
261.07	-2.92
261.206	-3.92
261.342	-9.92
261.478	15.08
261.614	19.08
261.749	-2.92
261.885	-23.92
262.021	-2.92
262.157	-1.92
262.293	1.08
262.428	-16.92
262.564	-6.92
262.7	4.08
262.836	5.08
262.971	9.08
263.107	-7.92
263.243	14.08
263.378	1.08
263.514	-21.92
263.65	-12.92
263.785	-13.92
263.921	0.08
264.057	4.08
264.192	5.08
264.328	7.08
264.464	-4.92
264.599	6.08
264.735	14.08
264.871	-24.92
265.006	6.08
265.142	0.08
265.277	-19.92
265.413	17.08
265.548	16.08
265.684	21.08
265.819	7.08
265.955	-10.92
266.091	-12.92
266.226	-4.92
266.362	11.08
266.497	17.08
266.633	-26.92
266.768	-6.92
266.903	19.08
267.039	11.08
267.174	-3.92
267.31	1.08
267.445	10.08
267.581	-5.92
267.716	13.08
267.851	9.08
267.987	14.08
268.122	12.08
268.258	5.08
268.393	5.08
268.528	1.08
268.664	-5.92
268.799	-11.92
268.934	3.08
269.07	-6.92
269.205	-12.92
269.34	7.08
269.476	0.08
269.611	-7.92
269.746	3.08
269.881	11.08
270.017	19.08
270.152	-5.92
270.287	8.08
270.422	17.08
270.558	-0.92
270.693	30.08
270.828	-10.92
270.963	0.08
271.098	1.08
271.234	-16.92
271.369	14.08
271.504	9.08
271.639	-11.92
271.774	2.08
271.909	-5.92
272.045	-16.92
272.18	-1.92
272.315	-3.92
272.45	26.08
272.585	-14.92
272.72	-9.92
272.855	6.08
272.99	25.08
273.125	-10.92
273.26	-5.92
273.395	-7.92
273.53	-8.92
273.665	19.08
273.8	13.08
273.935	11.08
274.07	3.08
274.205	-6.92
274.34	4.08
274.475	-11.92
274.61	10.08
274.745	-0.92
274.88	20.08
275.015	-16.92
275.15	3.08
275.285	0.08
275.42	-5.92
275.555	6.08
275.69	-2.92
275.825	-9.92
275.959	4.08
276.094	-11.92
276.229	0.08
276.364	-11.92
276.499	-9.92
276.634	4.08
276.768	9.08
276.903	-2.92
277.038	16.08
277.173	-2.92
277.308	13.08
277.442	-5.92
277.577	14.08
277.712	1.08
277.847	7.08
277.981	2.08
278.116	-31.92
278.251	-12.92
278.386	17.08
278.52	17.08
278.655	1.08
278.79	1.08
278.924	4.08
279.059	5.08
279.194	-18.92
279.328	16.08
279.463	5.08
279.598	8.08
279.732	1.08
279.867	10.08
280.001	1.08
280.136	-5.92
280.271	-3.92
280.405	11.08
280.54	11.08
280.674	5.08
280.809	15.08
280.943	11.08
281.078	4.08
281.213	12.08
281.347	22.08
281.482	12.08
281.616	4.08
281.751	3.08
281.885	-17.92
282.02	1.08
282.154	7.08
282.288	-7.92
282.423	-12.92
282.557	-21.92
282.692	-11.92
282.826	-4.92
282.961	20.08
283.095	5.08
283.229	-14.92
283.364	-29.92
283.498	-14.92
283.633	2.08
283.767	4.08
283.901	7.08
284.036	-10.92
284.17	-18.92
284.304	-3.92
284.439	6.08
284.573	0.08
284.707	13.08
284.842	-11.92
284.976	-20.92
285.11	-17.92
285.244	-2.92
285.379	56.08
285.513	7.08
285.647	15.08
285.781	1.08
285.916	23.08
286.05	3.08
286.184	25.08
286.318	5.08
286.453	-13.92
286.587	-7.92
286.721	-7.92
286.855	15.08
286.989	9.08
287.123	-4.92
287.258	-2.92
287.392	10.08
287.526	7.08
287.66	-2.92
287.794	-5.92
287.928	-3.92
288.062	6.08
288.196	-2.92
288.33	8.08
288.464	18.08
288.598	8.08
288.733	17.08
288.867	24.08
289.001	2.08
289.135	28.08
289.269	-12.92
289.403	-3.92
289.537	-3.92
289.671	-8.92
289.805	-23.92
289.939	1.08
290.073	-2.92
290.207	16.08
290.34	12.08
290.474	15.08
290.608	17.08
290.742	-19.92
290.876	-2.92
291.01	-7.92
291.144	13.08
291.278	17.08
291.412	5.08
291.546	4.08
291.679	-1.92
291.813	-0.92
291.947	10.08
292.081	-2.92
292.215	12.08
292.349	7.08
292.482	8.08
292.616	-18.92
292.75	4.08
292.884	5.08
293.018	10.08
293.151	-11.92
293.285	9.08
293.419	-9.92
293.553	-8.92
293.686	-14.92
293.82	15.08
293.954	6.08
294.088	11.08
294.221	-19.92
294.355	-8.92
294.489	16.08
294.622	4.08
294.756	-4.92
294.89	27.08
295.023	0.08
295.157	20.08
295.291	17.08
295.424	23.08
295.558	5.08
295.691	4.08
295.825	0.08
295.959	7.08
296.092	-11.92
296.226	-5.92
296.359	-4.92
296.493	22.08
296.627	-1.92
296.76	-10.92
296.894	-4.92
297.027	5.08
297.161	-1.92
297.294	-6.92
297.428	5.08
297.561	32.08
297.695	-16.92
297.828	-9.92
297.962	0.08
298.095	-20.92
298.229	-10.92
298.362	-13.92
298.495	-24.92
298.629	-5.92
298.762	-7.92
298.896	1.08
299.029	-12.92
299.162	-7.92
299.296	-6.92
299.429	-0.92
299.563	-13.92
299.696	-12.92
299.829	5.08
299.963	11.08
300.096	12.08
300.229	23.08
300.363	3.08
300.496	-5.92
300.629	-14.92
300.763	-2.92
300.896	-16.92
301.029	5.08
301.162	-0.92
301.296	-24.92
301.429	-3.92
301.562	-3.92
301.695	-0.92
301.829	10.08
301.962	4.08
302.095	-7.92
302.228	-15.92
302.362	17.08
302.495	-16.92
302.628	10.08
302.761	-1.92
302.894	0.08
303.027	15.08
303.161	-8.92
303.294	1.08
303.427	30.08
303.56	2.08
303.693	-16.92
303.826	19.08
303.959	0.08
304.092	4.08
304.225	-6.92
304.359	-5.92
304.492	15.08
304.625	11.08
304.758	12.08
304.891	-10.92
305.024	3.08
305.157	0.08
305.29	-22.92
305.423	-20.92
305.556	26.08
305.689	23.08
305.822	-9.92
305.955	-5.92
306.088	2.08
306.221	3.08
306.354	-0.92
306.487	-7.92
306.62	-8.92
306.752	4.08
306.885	16.08
307.018	-9.92
307.151	1.08
307.284	9.08
307.417	11.08
307.55	20.08
307.683	5.08
307.816	26.08
307.948	2.08
308.081	24.08
308.214	9.08
308.347	6.08
308.48	-3.92
308.613	-27.92
308.745	15.08
308.878	-4.92
309.011	2.08
309.144	-0.92
309.277	10.08
309.409	13.08
309.542	1.08
309.675	18.08
309.808	3.08
309.94	24.08
310.073	-3.92
310.206	-6.92
310.339	13.08
310.471	-4.92
310.604	21.08
310.737	11.08
310.869	0.08
311.002	-15.92
311.135	0.08
311.267	-4.92
311.4	-14.92
311.533	17.08
311.665	-10.92
311.798	-10.92
311.93	0.08
312.063	17.08
312.196	0.08
312.328	0.08
312.461	-10.92
312.593	-7.92
312.726	7.08
312.859	4.08
312.991	17.08
313.124	-31.92
313.256	2.08
313.389	5.08
313.521	15.08
313.654	3.08
313.786	-9.92
313.919	-7.92
314.051	-9.92
314.184	16.08
314.316	3.08
314.449	-11.92
314.581	10.08
314.714	19.08
314.846	18.08
314.978	-31.92
315.111	-7.92
315.243	7.08
315.376	6.08
315.508	13.08
315.641	-2.92
315.773	10.08
315.905	14.08
316.038	7.08
316.17	-6.92
316.302	1.08
316.435	-4.92
316.567	2.08
316.699	11.08
316.832	-29.92
316.964	-14.92
317.096	-10.92
317.229	-2.92
317.361	-19.92
317.493	10.08
317.625	-0.92
317.758	7.08
317.89	11.08
318.022	-2.92
318.155	-9.92
318.287	2.08
318.419	-6.92
318.551	8.08
318.683	-14.92
318.816	-13.92
318.948	-12.92
319.08	2.08
319.212	1.08
319.344	-0.92
319.477	22.08
319.609	9.08
319.741	10.08
319.873	-1.92
320.005	1.08
320.137	4.08
320.269	5.08
320.401	1.08
320.534	14.08
320.666	-21.92
320.798	-13.92
320.93	16.08
321.062	-23.92
321.194	-9.92
321.326	12.08
321.458	5.08
321.59	-0.92
321.722	-9.92
321.854	0.08
321.986	1.08
322.118	8.08
322.25	-12.92
322.382	17.08
322.514	-12.92
322.646	-11.92
322.778	-0.92
322.91	-7.92
323.042	2.08
323.174	1.08
323.306	-18.92
323.438	-16.92
323.57	-2.92
323.702	0.08
323.834	-12.92
323.966	-17.92
324.097	-10.92
324.229	22.08
324.361	-4.92
324.493	-7.92
324.625	-12.92
324.757	4.08
324.889	-6.92
325.021	-2.92
325.152	8.08
325.284	14.08
325.416	-15.92
325.548	14.08
325.68	15.08
325.811	12.08
325.943	3.08
326.075	-19.92
326.207	10.08
326.339	4.08
326.47	-3.92
326.602	0.08
326.734	10.08
326.866	17.08
326.997	-11.92
327.129	1.08
327.261	3.08
327.392	-28.92
327.524	-7.92
327.656	5.08
327.787	10.08
327.919	9.08
328.051	8.08
328.182	0.08
328.314	20.08
328.446	7.08
328.577	16.08
328.709	-0.92
328.841	-19.92
328.972	-24.92
329.104	-10.92
329.235	2.08
329.367	-23.92
329.499	0.08
329.63	20.08
329.762	-4.92
329.893	4.08
330.025	-3.92
330.156	-3.92
330.288	8.08
330.419	14.08
330.551	15.08
330.683	-0.92
330.814	-0.92
330.946	18.08
331.077	-17.92
331.208	-0.92
331.34	20.08
331.471	-4.92
331.603	1.08
331.734	-26.92
331.866	-10.92
331.997	-3.92
332.129	-8.92
332.26	0.08
332.392	15.08
332.523	-7.92
332.654	-16.92
332.786	1.08
332.917	-5.92
333.048	2.08
333.18	8.08
333.311	-8.92
333.443	-6.92
333.574	8.08
333.705	1.08
333.837	-18.92
333.968	9.08
334.099	29.08
334.231	10.08
334.362	-2.92
334.493	5.08
334.624	24.08
334.756	11.08
334.887	5.08
335.018	8.08
335.15	15.08
335.281	32.08
335.412	22.08
335.543	2.08
335.675	8.08
335.806	-4.92
335.937	-8.92
336.068	-4.92
336.199	34.08
336.331	-2.92
336.462	-8.92
336.593	18.08
336.724	2.08
336.855	6.08
336.986	16.08
337.118	6.08
337.249	6.08
337.38	0.08
337.511	-11.92
337.642	-0.92
337.773	10.08
337.904	20.08
338.035	28.08
338.166	-3.92
338.298	11.08
338.429	-0.92
338.56	10.08
338.691	7.08
338.822	23.08
338.953	30.08
339.084	28.08
339.215	23.08
339.346	0.08
339.477	-3.92
339.608	-8.92
339.739	-16.92
339.87	-4.92
340.001	-12.92
340.132	8.08
340.263	1.08
340.394	11.08
340.525	-0.92
340.656	-23.92
340.787	-15.92
340.918	31.08
341.049	21.08
341.179	-5.92
341.31	-6.92
341.441	13.08
341.572	21.08
341.703	19.08
341.834	2.08
341.965	18.08
342.096	-11.92
342.227	-11.92
342.357	-8.92
342.488	14.08
342.619	4.08
342.75	15.08
342.881	-11.92
343.012	6.08
343.142	18.08
343.273	-7.92
343.404	19.08
343.535	37.08
343.666	30.08
343.796	23.08
343.927	24.08
344.058	33.08
344.189	30.08
344.319	30.08
344.45	0.08
344.581	-9.92
344.712	-19.92
344.842	-9.92
344.973	-3.92
345.104	8.08
345.234	12.08
345.365	-15.92
345.496	-0.92
345.626	-3.92
345.757	7.08
345.888	-16.92
346.018	7.08
346.149	3.08
346.28	20.08
346.41	-8.92
346.541	17.08
346.672	-5.92
346.802	8.08
346.933	16.08
347.063	5.08
347.194	-6.92
347.325	19.08
347.455	16.08
347.586	-4.92
347.716	-13.92
347.847	0.08
347.977	-6.92
348.108	7.08
348.238	-1.92
348.369	-4.92
348.499	24.08
348.63	6.08
348.76	0.08
348.891	1.08
349.021	16.08
349.152	5.08
349.282	2.08
349.413	-17.92
349.543	24.08
349.674	14.08
349.804	8.08
349.935	-17.92
350.065	-0.92
350.196	-8.92
350.326	-4.92
350.456	3.08
350.587	21.08
350.717	5.08
350.848	17.08
350.978	19.08
351.108	-9.92
351.239	17.08
351.369	20.08
351.499	3.08
351.63	3.08
351.76	-13.92
351.89	25.08
352.021	1.08
352.151	1.08
352.281	14.08
352.412	27.08
352.542	-0.92
352.672	-2.92
352.803	-8.92
352.933	-10.92
353.063	25.08
353.193	0.08
353.324	1.08
353.454	20.08
353.584	29.08
353.714	-6.92
353.845	-18.92
353.975	-11.92
354.105	4.08
354.235	12.08
354.365	-7.92
354.496	6.08
354.626	-8.92
354.756	-1.92
354.886	0.08
355.016	11.08
355.146	8.08
355.277	4.08
355.407	-8.92
355.537	8.08
355.667	0.08
355.797	13.08
355.927	-2.92
356.057	10.08
356.187	-12.92
356.318	-18.92
356.448	-5.92
356.578	22.08
356.708	13.08
356.838	-6.92
356.968	-12.92
357.098	13.08
357.228	14.08
357.358	5.08
357.488	-21.92
357.618	23.08
357.748	8.08
357.878	9.08
358.008	9.08
358.138	-2.92
358.268	-22.92
358.398	-4.92
358.528	-15.92
358.658	-3.92
358.788	-1.92
358.918	3.08
359.048	9.08
359.178	7.08
359.308	-1.92
359.438	24.08
359.568	14.08
359.698	9.08
359.827	6.08
359.957	7.08
360.087	3.08
360.217	2.08
360.347	6.08
360.477	11.08
360.607	-21.92
360.737	15.08
360.866	-8.92
360.996	-2.92
361.126	1.08
361.256	28.08
361.386	15.08
361.516	8.08
361.645	-11.92
361.775	4.08
361.905	-18.92
362.035	18.08
362.165	-10.92
362.294	9.08
362.424	9.08
362.554	4.08
362.684	-12.92
362.813	-6.92
362.943	21.08
363.073	8.08
363.203	10.08
363.332	15.08
363.462	-12.92
363.592	7.08
363.721	-3.92
363.851	-10.92
363.981	-8.92
364.111	18.08
364.24	-3.92
364.37	-0.92
364.5	13.08
364.629	3.08
364.759	-12.92
364.888	-6.92
365.018	11.08
365.148	-8.92
365.277	9.08
365.407	5.08
365.537	17.08
365.666	-2.92
365.796	5.08
365.925	31.08
366.055	16.08
366.184	-10.92
366.314	19.08
366.444	18.08
366.573	-3.92
366.703	-6.92
366.832	1.08
366.962	-6.92
367.091	25.08
367.221	22.08
367.35	19.08
367.48	31.08
367.609	8.08
367.739	9.08
367.868	-4.92
367.998	6.08
368.127	10.08
368.257	9.08
368.386	23.08
368.516	19.08
368.645	1.08
368.775	11.08
368.904	13.08
369.033	1.08
369.163	0.08
369.292	26.08
369.422	21.08
369.551	29.08
369.68	29.08
369.81	12.08
369.939	4.08
370.069	11.08
370.198	2.08
370.327	-4.92
370.457	14.08
370.586	13.08
370.715	-0.92
370.845	-13.92
370.974	9.08
371.103	21.08
371.233	0.08
371.362	18.08
371.491	-17.92
371.621	11.08
371.75	7.08
371.879	8.08
372.008	0.08
372.138	-3.92
372.267	26.08
372.396	6.08
372.525	11.08
372.655	-0.92
372.784	-3.92
372.913	13.08
373.042	22.08
373.172	29.08
373.301	-0.92
373.43	-8.92
373.559	13.08
373.688	17.08
373.818	25.08
373.947	9.08
374.076	-3.92
374.205	12.08
374.334	-10.92
374.463	-14.92
374.593	5.08
374.722	13.08
374.851	24.08
374.98	-8.92
375.109	-6.92
375.238	-1.92
375.367	16.08
375.496	-8.92
375.625	-0.92
375.755	24.08
375.884	33.08
376.013	36.08
376.142	-19.92
376.271	-16.92
376.4	-1.92
376.529	2.08
376.658	-3.92
376.787	5.08
376.916	14.08
377.045	-9.92
377.174	11.08
377.303	5.08
377.432	16.08
377.561	11.08
377.69	-17.92
377.819	25.08
377.948	-1.92
378.077	-0.92
378.206	12.08
378.335	2.08
378.464	19.08
378.593	35.08
378.722	-2.92
378.851	4.08
378.98	17.08
379.108	-7.92
379.237	-8.92
379.366	8.08
379.495	11.08
379.624	2.08
379.753	4.08
379.882	-3.92
380.011	-10.92
380.14	-3.92
380.268	-3.92
380.397	6.08
380.526	20.08
380.655	8.08
380.784	-19.92
380.913	0.08
381.041	-4.92
381.17	-12.92
381.299	13.08
381.428	20.08
381.557	-10.92
381.685	4.08
381.814	18.08
381.943	3.08
382.072	-12.92
382.2	-7.92
382.329	0.08
382.458	7.08
382.587	25.08
382.715	21.08
382.844	18.08
382.973	11.08
383.102	-4.92
383.23	-14.92
383.359	-21.92
383.488	25.08
383.616	3.08
383.745	-12.92
383.874	2.08
384.003	-1.92
384.131	5.08
384.26	-4.92
384.389	1.08
384.517	-8.92
384.646	-20.92
384.774	5.08
384.903	28.08
385.032	17.08
385.16	4.08
385.289	10.08
385.418	-4.92
385.546	-7.92
385.675	19.08
385.803	25.08
385.932	9.08
386.06	-1.92
386.189	3.08
386.318	-0.92
386.446	6.08
386.575	17.08
386.703	4.08
386.832	-8.92
386.96	-15.92
387.089	20.08
387.217	6.08
387.346	9.08
387.474	13.08
387.603	4.08
387.731	10.08
387.86	26.08
387.988	1.08
388.117	9.08
388.245	-4.92
388.374	-4.92
388.502	6.08
388.631	-6.92
388.759	1.08
388.888	0.08
389.016	1.08
389.144	10.08
389.273	7.08
389.401	7.08
389.53	-4.92
389.658	-2.92
389.786	-16.92
389.915	-8.92
390.043	-18.92
390.172	-4.92
390.3	18.08
390.428	9.08
390.557	-9.92
390.685	-1.92
390.813	22.08
390.942	15.08
391.07	3.08
391.198	-11.92
391.327	6.08
391.455	-14.92
391.583	23.08
391.712	10.08
391.84	21.08
391.968	11.08
392.096	-7.92
392.225	5.08
392.353	6.08
392.481	-1.92
392.609	16.08
392.738	5.08
392.866	0.08
392.994	-2.92
393.122	24.08
393.251	13.08
393.379	4.08
393.507	-15.92
393.635	0.08
393.764	17.08
393.892	-0.92
394.02	5.08
394.148	4.08
394.276	0.08
394.404	29.08
394.533	-0.92
394.661	28.08
394.789	23.08
394.917	39.08
395.045	0.08
395.173	4.08
395.302	-5.92
395.43	14.08
395.558	22.08
395.686	16.08
395.814	19.08
395.942	7.08
396.07	-9.92
396.198	0.08
396.326	3.08
396.454	30.08
396.582	6.08
396.711	17.08
396.839	33.08
396.967	18.08
397.095	10.08
397.223	28.08
397.351	2.08
397.479	28.08
397.607	4.08
397.735	10.08
397.863	20.08
397.991	18.08
398.119	0.08
398.247	7.08
398.375	0.08
398.503	-4.92
398.631	3.08
398.759	10.08
398.887	-0.92
399.015	11.08
399.143	-0.92
399.271	2.08
399.399	6.08
399.526	23.08
399.654	1.08
399.782	0.08
399.91	31.08
400.038	22.08
400.166	-9.92
400.294	-17.92
400.422	1.08
400.55	9.08
400.678	1.08
400.805	14.08
400.933	6.08
401.061	14.08
401.189	-3.92
401.317	21.08
401.445	16.08
401.573	22.08
401.7	-5.92
401.828	-20.92
401.956	-7.92
402.084	15.08
402.212	6.08
402.34	12.08
402.467	9.08
402.595	25.08
402.723	4.08
402.851	32.08
402.978	17.08
403.106	11.08
403.234	19.08
403.362	32.08
403.489	19.08
403.617	17.08
403.745	27.08
403.873	-19.92
404	14.08
404.128	3.08
404.256	17.08
404.384	16.08
404.511	17.08
404.639	-7.92
404.767	6.08
404.894	20.08
405.022	6.08
405.15	25.08
405.277	-0.92
405.405	-6.92
405.533	1.08
405.66	3.08
405.788	-4.92
405.916	-1.92
406.043	-15.92
406.171	2.08
406.299	10.08
406.426	2.08
406.554	10.08
406.681	17.08
406.809	13.08
406.937	-0.92
407.064	6.08
407.192	10.08
407.319	-1.92
407.447	21.08
407.574	34.08
407.702	25.08
407.83	-12.92
407.957	-22.92
408.085	-2.92
408.212	15.08
408.34	-0.92
408.467	4.08
408.595	15.08
408.722	14.08
408.85	30.08
408.977	7.08
409.105	8.08
409.232	15.08
409.36	18.08
409.487	2.08
409.615	17.08
409.742	23.08
409.87	8.08
409.997	25.08
410.125	42.08
410.252	52.08
410.379	55.08
410.507	42.08
410.634	13.08
410.762	12.08
410.889	26.08
411.017	17.08
411.144	7.08
411.271	4.08
411.399	12.08
411.526	-0.92
411.653	4.08
411.781	23.08
411.908	21.08
412.036	21.08
412.163	27.08
412.29	4.08
412.418	18.08
412.545	26.08
412.672	10.08
412.8	22.08
412.927	5.08
413.054	29.08
413.182	26.08
413.309	-4.92
413.436	-12.92
413.564	8.08
413.691	4.08
413.818	28.08
413.945	12.08
414.073	6.08
414.2	14.08
414.327	13.08
414.454	10.08
414.582	8.08
414.709	-6.92
414.836	-8.92
414.963	-4.92
415.091	4.08
415.218	0.08
415.345	-5.92
415.472	20.08
415.6	6.08
415.727	8.08
415.854	2.08
415.981	-14.92
416.108	0.08
416.236	9.08
416.363	12.08
416.49	15.08
416.617	22.08
416.744	6.08
416.871	20.08
416.998	11.08
417.126	4.08
417.253	-13.92
417.38	3.08
417.507	-2.92
417.634	7.08
417.761	5.08
417.888	10.08
418.015	2.08
418.143	-8.92
418.27	9.08
418.397	20.08
418.524	7.08
418.651	13.08
418.778	2.08
418.905	20.08
419.032	16.08
419.159	27.08
419.286	17.08
419.413	23.08
419.54	23.08
419.667	-18.92
419.794	-27.92
419.921	-1.92
420.048	21.08
420.175	19.08
420.302	1.08
420.429	14.08
420.556	11.08
420.683	-7.92
420.81	0.08
420.937	28.08
421.064	28.08
421.191	-12.92
421.318	10.08
421.445	16.08
421.572	-9.92
421.699	12.08
421.826	-1.92
421.953	7.08
422.08	8.08
422.207	7.08
422.334	1.08
422.461	20.08
422.588	-8.92
422.714	27.08
422.841	31.08
422.968	39.08
423.095	3.08
423.222	1.08
423.349	14.08
423.476	12.08
423.603	-3.92
423.729	2.08
423.856	-2.92
423.983	9.08
424.11	-11.92
424.237	2.08
424.364	5.08
424.491	13.08
424.617	-15.92
424.744	3.08
424.871	5.08
424.998	8.08
425.125	13.08
425.251	18.08
425.378	6.08
425.505	15.08
425.632	5.08
425.758	-0.92
425.885	-0.92
426.012	11.08
426.139	13.08
426.266	-2.92
426.392	15.08
426.519	24.08
426.646	6.08
426.772	21.08
426.899	-3.92
427.026	14.08
427.153	14.08
427.279	18.08
427.406	24.08
427.533	13.08
427.659	1.08
427.786	11.08
427.913	22.08
428.039	-6.92
428.166	9.08
428.293	19.08
428.419	4.08
428.546	1.08
428.673	-6.92
428.799	-12.92
428.926	-5.92
429.053	12.08
429.179	17.08
429.306	12.08
429.433	3.08
429.559	21.08
429.686	-4.92
429.812	5.08
429.939	0.08
430.066	-9.92
430.192	-14.92
430.319	13.08
430.445	-14.92
430.572	1.08
430.699	-12.92
430.825	-9.92
430.952	22.08
431.078	1.08
431.205	13.08
431.331	3.08
431.458	-3.92
431.584	15.08
431.711	7.08
431.837	7.08
431.964	5.08
432.09	8.08
432.217	-4.92
432.343	-0.92
432.47	16.08
432.596	10.08
432.723	5.08
432.849	-7.92
432.976	-0.92
433.102	13.08
433.229	-3.92
433.355	26.08
433.482	92.08
433.608	161.08
433.735	147.08
433.861	136.08
433.987	147.08
434.114	222.08
434.24	201.08
434.367	59.08
434.493	0.08
434.62	26.08
434.746	19.08
434.872	2.08
434.999	17.08
435.125	20.08
435.252	5.08
435.378	10.08
435.504	14.08
435.631	9.08
435.757	7.08
435.883	-5.92
436.01	11.08
436.136	2.08
436.262	-8.92
436.389	6.08
436.515	8.08
436.641	0.08
436.768	16.08
436.894	26.08
437.02	12.08
437.147	15.08
437.273	10.08
437.399	-3.92
437.526	6.08
437.652	1.08
437.778	-7.92
437.904	-11.92
438.031	5.08
438.157	19.08
438.283	18.08
438.409	-13.92
438.536	0.08
438.662	19.08
438.788	18.08
438.914	-5.92
439.041	17.08
439.167	21.08
439.293	10.08
439.419	15.08
439.546	23.08
439.672	8.08
439.798	12.08
439.924	31.08
440.05	23.08
440.177	31.08
440.303	7.08
440.429	12.08
440.555	18.08
440.681	6.08
440.807	17.08
440.934	15.08
441.06	19.08
441.186	5.08
441.312	7.08
441.438	7.08
441.564	20.08
441.69	25.08
441.816	3.08
441.943	3.08
442.069	7.08
442.195	8.08
442.321	15.08
442.447	6.08
442.573	4.08
442.699	9.08
442.825	-14.92
442.951	29.08
443.077	-1.92
443.203	17.08
443.33	12.08
443.456	-3.92
443.582	4.08
443.708	15.08
443.834	21.08
443.96	15.08
444.086	19.08
444.212	21.08
444.338	25.08
444.464	21.08
444.59	28.08
444.716	17.08
444.842	19.08
444.968	4.08
445.094	3.08
445.22	8.08
445.346	2.08
445.472	2.08
445.598	-2.92
445.724	-1.92
445.85	-0.92
445.976	18.08
446.102	13.08
446.228	12.08
446.354	-1.92
446.48	1.08
446.605	2.08
446.731	2.08
446.857	10.08
446.983	11.08
447.109	5.08
447.235	18.08
447.361	0.08
447.487	13.08
447.613	3.08
447.739	3.08
447.865	23.08
447.99	0.08
448.116	1.08
448.242	-3.92
448.368	0.08
448.494	24.08
448.62	25.08
448.746	8.08
448.872	4.08
448.997	0.08
449.123	5.08
449.249	15.08
449.375	6.08
449.501	9.08
449.627	5.08
449.752	24.08
449.878	-2.92
450.004	4.08
450.13	11.08
450.256	9.08
450.381	13.08
450.507	10.08
450.633	21.08
450.759	27.08
450.884	21.08
451.01	20.08
451.136	-8.92
451.262	16.08
451.388	7.08
451.513	-4.92
451.639	13.08
451.765	11.08
451.89	21.08
452.016	24.08
452.142	9.08
452.268	10.08
452.393	12.08
452.519	0.08
452.645	-7.92
452.771	13.08
452.896	5.08
453.022	-5.92
453.148	35.08
453.273	12.08
453.399	17.08
453.525	5.08
453.65	14.08
453.776	10.08
453.902	5.08
454.027	35.08
454.153	24.08
454.279	12.08
454.404	5.08
454.53	19.08
454.656	23.08
454.781	-4.92
454.907	-7.92
455.032	4.08
455.158	19.08
455.284	27.08
455.409	9.08
455.535	3.08
455.66	24.08
455.786	19.08
455.912	10.08
456.037	3.08
456.163	16.08
456.288	17.08
456.414	-4.92
456.539	-3.92
456.665	15.08
456.791	8.08
456.916	7.08
457.042	19.08
457.167	-8.92
457.293	5.08
457.418	4.08
457.544	0.08
457.669	10.08
457.795	7.08
457.92	14.08
458.046	3.08
458.171	31.08
458.297	17.08
458.422	11.08
458.548	11.08
458.673	5.08
458.799	22.08
458.924	14.08
459.05	12.08
459.175	5.08
459.301	9.08
459.426	37.08
459.552	27.08
459.677	-16.92
459.803	12.08
459.928	15.08
460.053	19.08
460.179	9.08
460.304	31.08
460.43	12.08
460.555	3.08
460.681	-9.92
460.806	6.08
460.931	8.08
461.057	19.08
461.182	22.08
461.308	32.08
461.433	16.08
461.558	-4.92
461.684	7.08
461.809	7.08
461.934	-3.92
462.06	26.08
462.185	-0.92
462.311	10.08
462.436	18.08
462.561	1.08
462.687	18.08
462.812	8.08
462.937	4.08
463.063	-4.92
463.188	-9.92
463.313	20.08
463.439	11.08
463.564	2.08
463.689	-0.92
463.814	6.08
463.94	2.08
464.065	16.08
464.19	11.08
464.316	-4.92
464.441	4.08
464.566	2.08
464.692	27.08
464.817	23.08
464.942	12.08
465.067	17.08
465.193	-5.92
465.318	6.08
465.443	11.08
465.568	-3.92
465.694	-7.92
465.819	23.08
465.944	3.08
466.069	17.08
466.194	5.08
466.32	16.08
466.445	22.08
466.57	22.08
466.695	12.08
466.82	19.08
466.946	13.08
467.071	17.08
467.196	7.08
467.321	10.08
467.446	1.08
467.572	-15.92
467.697	10.08
467.822	8.08
467.947	20.08
468.072	8.08
468.197	-3.92
468.323	0.08
468.448	10.08
468.573	-8.92
468.698	-0.92
468.823	3.08
468.948	13.08
469.073	7.08
469.198	44.08
469.324	50.08
469.449	2.08
469.574	7.08
469.699	15.08
469.824	19.08
469.949	12.08
470.074	24.08
470.199	40.08
470.324	19.08
470.449	35.08
470.574	23.08
470.7	12.08
470.825	0.08
470.95	37.08
471.075	13.08
471.2	6.08
471.325	25.08
471.45	22.08
471.575	2.08
471.7	11.08
471.825	4.08
471.95	-9.92
472.075	4.08
472.2	-9.92
472.325	3.08
472.45	2.08
472.575	-3.92
472.7	-1.92
472.825	9.08
472.95	32.08
473.075	22.08
473.2	1.08
473.325	5.08
473.45	-5.92
473.575	-4.92
473.7	21.08
473.825	4.08
473.95	7.08
474.075	19.08
474.2	3.08
474.325	8.08
474.45	14.08
474.574	19.08
474.699	15.08
474.824	12.08
474.949	-3.92
475.074	3.08
475.199	9.08
475.324	13.08
475.449	13.08
475.574	27.08
475.699	30.08
475.824	9.08
475.949	8.08
476.073	-11.92
476.198	7.08
476.323	22.08
476.448	13.08
476.573	6.08
476.698	18.08
476.823	13.08
476.947	7.08
477.072	8.08
477.197	5.08
477.322	-6.92
477.447	-15.92
477.572	-0.92
477.697	11.08
477.821	11.08
477.946	24.08
478.071	9.08
478.196	11.08
478.321	11.08
478.445	19.08
478.57	14.08
478.695	-4.92
478.82	11.08
478.945	16.08
479.069	18.08
479.194	11.08
479.319	25.08
479.444	17.08
479.569	-11.92
479.693	14.08
479.818	32.08
479.943	2.08
480.068	10.08
480.192	31.08
480.317	22.08
480.442	20.08
480.567	3.08
480.691	13.08
480.816	13.08
480.941	2.08
481.066	17.08
481.19	23.08
481.315	24.08
481.44	-9.92
481.564	-9.92
481.689	12.08
481.814	23.08
481.938	10.08
482.063	15.08
482.188	10.08
482.313	14.08
482.437	17.08
482.562	29.08
482.687	20.08
482.811	12.08
482.936	16.08
483.061	2.08
483.185	16.08
483.31	23.08
483.435	-0.92
483.559	8.08
483.684	15.08
483.808	58.08
483.933	31.08
484.058	11.08
484.182	5.08
484.307	19.08
484.432	12.08
484.556	3.08
484.681	25.08
484.805	19.08
484.93	23.08
485.055	38.08
485.179	81.08
485.304	104.08
485.428	346.08
485.553	1220.08
485.678	1724.08
485.802	1562.08
485.927	1787.08
486.051	2617.08
486.176	1621.08
486.3	445.08
486.425	161.08
486.549	81.08
486.674	61.08
486.799	51.08
486.923	24.08
487.048	31.08
487.172	29.08
487.297	21.08
487.421	28.08
487.546	29.08
487.67	33.08
487.795	13.08
487.919	29.08
488.044	22.08
488.168	27.08
488.293	28.08
488.417	-0.92
488.542	15.08
488.666	14.08
488.791	33.08
488.915	24.08
489.04	25.08
489.164	28.08
489.289	13.08
489.413	4.08
489.538	21.08
489.662	14.08
489.786	14.08
489.911	16.08
490.035	14.08
490.16	2.08
490.284	21.08
490.409	12.08
490.533	11.08
490.658	28.08
490.782	13.08
490.906	20.08
491.031	31.08
491.155	25.08
491.28	27.08
491.404	14.08
491.528	32.08
491.653	10.08
491.777	12.08
491.902	0.08
492.026	19.08
492.15	20.08
492.275	23.08
492.399	18.08
492.524	7.08
492.648	14.08
492.772	24.08
492.897	12.08
493.021	12.08
493.145	29.08
493.27	20.08
493.394	-5.92
493.518	7.08
493.643	-2.92
493.767	32.08
493.891	-1.92
494.016	7.08
494.14	2.08
494.264	3.08
494.389	21.08
494.513	2.08
494.637	9.08
494.762	12.08
494.886	16.08
495.01	20.08
495.134	10.08
495.259	29.08
495.383	15.08
495.507	12.08
495.632	24.08
495.756	27.08
495.88	16.08
496.004	41.08
496.129	18.08
496.253	18.08
496.377	4.08
496.501	23.08
496.626	2.08
496.75	21.08
496.874	16.08
496.998	16.08
497.123	36.08
497.247	26.08
497.371	0.08
497.495	23.08
497.62	12.08
497.744	-1.92
497.868	14.08
497.992	21.08
498.116	9.08
498.241	11.08
498.365	3.08
498.489	10.08
498.613	40.08
498.737	26.08
498.862	21.08
498.986	5.08
499.11	14.08
499.234	5.08
499.358	-7.92
499.482	4.08
499.607	9.08
499.731	23.08
499.855	16.08
499.979	19.08
500.103	13.08
500.227	23.08
500.351	13.08
500.476	7.08
500.6	16.08
500.724	15.08
500.848	15.08
500.972	20.08
501.096	21.08
501.22	33.08
501.344	10.08
501.469	6.08
501.593	20.08
501.717	17.08
501.841	0.08
501.965	-1.92
502.089	3.08
502.213	22.08
502.337	4.08
502.461	22.08
502.585	27.08
502.709	12.08
502.834	7.08
502.958	27.08
503.082	20.08
503.206	21.08
503.33	37.08
503.454	31.08
503.578	9.08
503.702	25.08
503.826	7.08
503.95	35.08
504.074	6.08
504.198	31.08
504.322	10.08
504.446	1.08
504.57	8.08
504.694	21.08
504.818	26.08
504.942	25.08
505.066	7.08
505.19	3.08
505.314	21.08
505.438	27.08
505.562	4.08
505.686	18.08
505.81	4.08
505.934	24.08
506.058	13.08
506.182	21.08
506.306	11.08
506.43	8.08
506.554	-3.92
506.678	-0.92
506.802	19.08
506.926	15.08
507.05	7.08
507.174	27.08
507.298	17.08
507.422	16.08
507.546	14.08
507.67	21.08
507.794	-9.92
507.918	12.08
508.042	15.08
508.165	2.08
508.289	-4.92
508.413	18.08
508.537	0.08
508.661	10.08
508.785	9.08
508.909	13.08
509.033	7.08
509.157	4.08
509.281	2.08
509.405	9.08
509.528	23.08
509.652	21.08
509.776	-0.92
509.9	29.08
510.024	-7.92
510.148	26.08
510.272	25.08
510.396	26.08
510.519	-0.92
510.643	8.08
510.767	10.08
510.891	29.08
511.015	6.08
511.139	7.08
511.263	22.08
511.386	9.08
511.51	8.08
511.634	11.08
511.758	6.08
511.882	7.08
512.006	16.08
512.129	23.08
512.253	50.08
512.377	12.08
512.501	15.08
512.625	8.08
512.748	9.08
512.872	-0.92
512.996	6.08
513.12	4.08
513.244	-5.92
513.367	22.08
513.491	5.08
513.615	1.08
513.739	5.08
513.862	17.08
513.986	7.08
514.11	22.08
514.234	-8.92
514.358	21.08
514.481	20.08
514.605	-4.92
514.729	25.08
514.853	14.08
514.976	3.08
515.1	-2.92
515.224	24.08
515.348	11.08
515.471	-5.92
515.595	9.08
515.719	10.08
515.842	30.08
515.966	4.08
516.09	20.08
516.214	5.08
516.337	29.08
516.461	10.08
516.585	20.08
516.708	12.08
516.832	23.08
516.956	16.08
517.08	-4.92
517.203	8.08
517.327	3.08
517.451	44.08
517.574	47.08
517.698	23.08
517.822	40.08
517.945	20.08
518.069	18.08
518.193	44.08
518.316	10.08
518.44	33.08
518.564	43.08
518.687	12.08
518.811	18.08
518.935	36.08
519.058	34.08
519.182	27.08
519.306	27.08
519.429	26.08
519.553	55.08
519.676	35.08
519.8	17.08
519.924	20.08
520.047	14.08
520.171	6.08
520.294	20.08
520.418	11.08
520.542	10.08
520.665	22.08
520.789	23.08
520.913	6.08
521.036	-4.92
521.16	15.08
521.283	15.08
521.407	1.08
521.53	1.08
521.654	0.08
521.778	29.08
521.901	7.08
522.025	16.08
522.148	4.08
522.272	15.08
522.395	-0.92
522.519	28.08
522.643	6.08
522.766	-0.92
522.89	16.08
523.013	25.08
523.137	-7.92
523.26	-4.92
523.384	5.08
523.507	7.08
523.631	12.08
523.754	-0.92
523.878	9.08
524.002	3.08
524.125	11.08
524.249	-6.92
524.372	8.08
524.496	15.08
524.619	16.08
524.743	15.08
524.866	6.08
524.99	-0.92
525.113	0.08
525.237	19.08
525.36	22.08
525.484	9.08
525.607	-11.92
525.731	-1.92
525.854	11.08
525.978	41.08
526.101	0.08
526.224	18.08
526.348	10.08
526.471	26.08
526.595	13.08
526.718	-16.92
526.842	-3.92
526.965	15.08
527.089	-1.92
527.212	15.08
527.336	-6.92
527.459	1.08
527.582	5.08
527.706	34.08
527.829	14.08
527.953	18.08
528.076	3.08
528.2	-2.92
528.323	23.08
528.446	25.08
528.57	18.08
528.693	21.08
528.817	-7.92
528.94	21.08
529.064	44.08
529.187	19.08
529.31	7.08
529.434	9.08
529.557	15.08
529.68	7.08
529.804	-8.92
529.927	1.08
530.051	5.08
530.174	8.08
530.297	15.08
530.421	25.08
530.544	31.08
530.668	23.08
530.791	1.08
530.914	33.08
531.038	8.08
531.161	13.08
531.284	7.08
531.408	19.08
531.531	11.08
531.654	11.08
531.778	15.08
531.901	1.08
532.024	20.08
532.148	-0.92
532.271	12.08
532.394	22.08
532.518	20.08
532.641	31.08
532.764	30.08
532.888	21.08
533.011	13.08
533.134	-6.92
533.258	27.08
533.381	-5.92
533.504	-6.92
533.628	5.08
533.751	15.08
533.874	18.08
533.997	4.08
534.121	-8.92
534.244	7.08
534.367	-2.92
534.491	7.08
534.614	10.08
534.737	25.08
534.86	12.08
534.984	7.08
535.107	-1.92
535.23	11.08
535.354	4.08
535.477	-7.92
535.6	13.08
535.723	-8.92
535.847	13.08
535.97	-16.92
536.093	5.08
536.216	-6.92
536.34	17.08
536.463	-5.92
536.586	22.08
536.709	8.08
536.833	19.08
536.956	-4.92
537.079	-8.92
537.202	3.08
537.325	-6.92
537.449	-5.92
537.572	27.08
537.695	7.08
537.818	0.08
537.941	14.08
538.065	12.08
538.188	12.08
538.311	20.08
538.434	16.08
538.558	8.08
538.681	12.08
538.804	21.08
538.927	15.08
539.05	-11.92
539.173	1.08
539.297	13.08
539.42	13.08
539.543	8.08
539.666	15.08
539.789	5.08
539.913	2.08
540.036	-0.92
540.159	27.08
540.282	6.08
540.405	0.08
540.528	5.08
540.651	0.08
540.775	-4.92
540.898	18.08
541.021	10.08
541.144	17.08
541.267	16.08
541.39	7.08
541.513	16.08
541.637	-1.92
541.76	10.08
541.883	-7.92
542.006	13.08
542.129	3.08
542.252	-6.92
542.375	6.08
542.498	24.08
542.622	17.08
542.745	-0.92
542.868	22.08
542.991	31.08
543.114	23.08
543.237	29.08
543.36	13.08
543.483	14.08
543.606	11.08
543.73	32.08
543.853	1.08
543.976	9.08
544.099	6.08
544.222	-3.92
544.345	-0.92
544.468	-18.92
544.591	10.08
544.714	20.08
544.837	4.08
544.96	10.08
545.083	23.08
545.206	14.08
545.329	4.08
545.453	-4.92
545.576	13.08
545.699	14.08
545.822	4.08
545.945	12.08
546.068	-11.92
546.191	7.08
546.314	7.08
546.437	14.08
546.56	33.08
546.683	21.08
546.806	15.08
546.929	25.08
547.052	11.08
547.175	5.08
547.298	12.08
547.421	-15.92
547.544	0.08
547.667	12.08
547.79	4.08
547.913	3.08
548.036	5.08
548.159	9.08
548.282	13.08
548.405	-3.92
548.528	11.08
548.651	0.08
548.774	13.08
548.897	11.08
549.02	35.08
549.143	25.08
549.266	-2.92
549.389	9.08
549.512	-8.92
549.635	3.08
549.758	20.08
549.881	6.08
550.004	4.08
550.127	16.08
550.25	7.08
550.373	7.08
550.496	11.08
550.619	0.08
550.742	3.08
550.865	-25.92
550.988	3.08
551.111	17.08
551.234	19.08
551.356	-2.92
551.479	-5.92
551.602	-1.92
551.725	13.08
551.848	20.08
551.971	18.08
552.094	20.08
552.217	17.08
552.34	19.08
552.463	-2.92
552.586	17.08
552.709	-13.92
552.832	0.08
552.955	10.08
553.077	31.08
553.2	16.08
553.323	-3.92
553.446	8.08
553.569	16.08
553.692	4.08
553.815	0.08
553.938	16.08
554.061	16.08
554.184	2.08
554.306	6.08
554.429	3.08
554.552	5.08
554.675	-0.92
554.798	7.08
554.921	29.08
555.044	-2.92
555.167	3.08
555.29	0.08
555.412	7.08
555.535	13.08
555.658	-11.92
555.781	24.08
555.904	15.08
556.027	18.08
556.15	8.08
556.272	-2.92
556.395	19.08
556.518	4.08
556.641	-10.92
556.764	26.08
556.887	20.08
557.01	2.08
557.132	-8.92
557.255	10.08
557.378	22.08
557.501	13.08
557.624	0.08
557.747	15.08
557.869	23.08
557.992	13.08
558.115	16.08
558.238	6.08
558.361	11.08
558.483	26.08
558.606	26.08
558.729	2.08
558.852	31.08
558.975	23.08
559.098	29.08
559.22	-1.92
559.343	10.08
559.466	6.08
559.589	5.08
559.712	23.08
559.834	26.08
559.957	11.08
560.08	5.08
560.203	14.08
560.325	10.08
560.448	29.08
560.571	-3.92
560.694	24.08
560.817	41.08
560.939	13.08
561.062	3.08
561.185	12.08
561.308	11.08
561.43	5.08
561.553	14.08
561.676	8.08
561.799	9.08
561.921	-4.92
562.044	4.08
562.167	0.08
562.29	31.08
562.413	21.08
562.535	28.08
562.658	5.08
562.781	-17.92
562.903	12.08
563.026	1.08
563.149	30.08
563.272	15.08
563.394	30.08
563.517	22.08
563.64	-11.92
563.763	-1.92
563.885	11.08
564.008	19.08
564.131	13.08
564.254	5.08
564.376	-5.92
564.499	-19.92
564.622	18.08
564.744	20.08
564.867	3.08
564.99	0.08
565.113	21.08
565.235	15.08
565.358	-1.92
565.481	-2.92
565.603	-3.92
565.726	8.08
565.849	38.08
565.971	10.08
566.094	-8.92
566.217	15.08
566.34	17.08
566.462	15.08
566.585	17.08
566.708	30.08
566.83	11.08
566.953	31.08
567.076	12.08
567.198	0.08
567.321	2.08
567.444	17.08
567.566	-5.92
567.689	-2.92
567.812	-21.92
567.934	1.08
568.057	13.08
568.18	-2.92
568.302	-11.92
568.425	-21.92
568.548	-9.92
568.67	16.08
568.793	24.08
568.916	3.08
569.038	12.08
569.161	4.08
569.283	1.08
569.406	15.08
569.529	-0.92
569.651	-7.92
569.774	-14.92
569.897	3.08
570.019	19.08
570.142	13.08
570.265	8.08
570.387	10.08
570.51	20.08
570.632	28.08
570.755	-10.92
570.878	8.08
571	8.08
571.123	-1.92
571.246	33.08
571.368	5.08
571.491	10.08
571.613	-8.92
571.736	-7.92
571.859	3.08
571.981	-11.92
572.104	11.08
572.226	0.08
572.349	-12.92
572.472	11.08
572.594	3.08
572.717	-10.92
572.839	-1.92
572.962	10.08
573.085	2.08
573.207	8.08
573.33	19.08
573.452	30.08
573.575	19.08
573.697	27.08
573.82	2.08
573.943	-8.92
574.065	3.08
574.188	-11.92
574.31	19.08
574.433	11.08
574.555	22.08
574.678	20.08
574.801	23.08
574.923	15.08
575.046	6.08
575.168	11.08
575.291	-1.92
575.413	18.08
575.536	2.08
575.659	26.08
575.781	7.08
575.904	4.08
576.026	13.08
576.149	7.08
576.271	22.08
576.394	13.08
576.516	1.08
576.639	-0.92
576.761	-6.92
576.884	-14.92
577.007	-0.92
577.129	2.08
577.252	8.08
577.374	26.08
577.497	6.08
577.619	4.08
577.742	3.08
577.864	15.08
577.987	8.08
578.109	42.08
578.232	21.08
578.354	19.08
578.477	13.08
578.599	3.08
578.722	8.08
578.844	9.08
578.967	10.08
579.089	10.08
579.212	-2.92
579.334	27.08
579.457	4.08
579.579	17.08
579.702	12.08
579.824	3.08
579.947	-8.92
580.069	-0.92
580.192	-8.92
580.314	16.08
580.437	17.08
580.559	31.08
580.682	15.08
580.804	22.08
580.927	26.08
581.049	26.08
581.172	10.08
581.294	15.08
581.417	12.08
581.539	12.08
581.662	13.08
581.784	20.08
581.907	9.08
582.029	19.08
582.152	4.08
582.274	15.08
582.396	13.08
582.519	22.08
582.641	-10.92
582.764	8.08
582.886	10.08
583.009	-0.92
583.131	24.08
583.254	7.08
583.376	28.08
583.499	24.08
583.621	30.08
583.743	10.08
583.866	15.08
583.988	6.08
584.111	14.08
584.233	18.08
584.356	15.08
584.478	-4.92
584.601	-15.92
584.723	7.08
584.845	38.08
584.968	17.08
585.09	6.08
585.213	15.08
585.335	6.08
585.458	6.08
585.58	-3.92
585.702	14.08
585.825	31.08
585.947	-8.92
586.07	4.08
586.192	5.08
586.315	11.08
586.437	0.08
586.559	8.08
586.682	-3.92
586.804	19.08
586.927	0.08
587.049	4.08
587.171	14.08
587.294	12.08
587.416	16.08
587.539	4.08
587.661	-14.92
587.783	-4.92
587.906	-2.92
588.028	25.08
588.151	-7.92
588.273	15.08
588.395	1.08
588.518	-4.92
588.64	-10.92
588.763	9.08
588.885	6.08
589.007	18.08
589.13	-0.92
589.252	7.08
589.375	8.08
589.497	1.08
589.619	-2.92
589.742	8.08
589.864	36.08
589.986	14.08
590.109	4.08
590.231	-6.92
590.354	3.08
590.476	-11.92
590.598	-17.92
590.721	-14.92
590.843	-10.92
590.965	11.08
591.088	20.08
591.21	5.08
591.332	10.08
591.455	-12.92
591.577	2.08
591.7	0.08
591.822	7.08
591.944	10.08
592.067	-3.92
592.189	9.08
592.311	15.08
592.434	-10.92
592.556	7.08
592.678	-3.92
592.801	-11.92
592.923	20.08
593.045	15.08
593.168	22.08
593.29	-3.92
593.412	7.08
593.535	0.08
593.657	-2.92
593.779	-3.92
593.902	4.08
594.024	6.08
594.146	27.08
594.269	13.08
594.391	-0.92
594.513	29.08
594.636	25.08
594.758	8.08
594.88	14.08
595.003	18.08
595.125	1.08
595.247	20.08
595.37	18.08
595.492	6.08
595.614	24.08
595.737	8.08
595.859	11.08
595.981	20.08
596.104	27.08
596.226	3.08
596.348	9.08
596.471	4.08
596.593	20.08
596.715	11.08
596.838	1.08
596.96	2.08
597.082	5.08
597.204	8.08
597.327	16.08
597.449	-7.92
597.571	11.08
597.694	25.08
597.816	24.08
597.938	12.08
598.061	5.08
598.183	3.08
598.305	24.08
598.427	6.08
598.55	-4.92
598.672	22.08
598.794	13.08
598.917	24.08
599.039	7.08
599.161	5.08
599.283	-0.92
599.406	7.08
599.528	8.08
599.65	17.08
599.773	9.08
599.895	23.08
600.017	28.08
600.139	5.08
600.262	-9.92
600.384	3.08
600.506	18.08
600.628	20.08
600.751	34.08
600.873	24.08
600.995	16.08
601.118	9.08
601.24	-2.92
601.362	27.08
601.484	19.08
601.607	31.08
601.729	18.08
601.851	12.08
601.973	12.08
602.096	14.08
602.218	12.08
602.34	10.08
602.462	20.08
602.585	4.08
602.707	0.08
602.829	18.08
602.951	13.08
603.074	10.08
603.196	16.08
603.318	-3.92
603.44	22.08
603.563	7.08
603.685	4.08
603.807	7.08
603.929	18.08
604.052	15.08
604.174	13.08
604.296	19.08
604.418	19.08
604.541	22.08
604.663	7.08
604.785	10.08
604.907	4.08
605.03	-5.92
605.152	25.08
605.274	7.08
605.396	-0.92
605.519	7.08
605.641	10.08
605.763	0.08
605.885	11.08
606.008	-6.92
606.13	1.08
606.252	10.08
606.374	-4.92
606.496	9.08
606.619	14.08
606.741	8.08
606.863	17.08
606.985	18.08
607.108	28.08
607.23	22.08
607.352	-3.92
607.474	-6.92
607.596	14.08
607.719	-3.92
607.841	15.08
607.963	14.08
608.085	11.08
608.207	21.08
608.33	-2.92
608.452	9.08
608.574	12.08
608.696	15.08
608.819	11.08
608.941	12.08
609.063	3.08
609.185	1.08
609.307	17.08
609.43	47.08
609.552	3.08
609.674	-7.92
609.796	17.08
609.918	18.08
610.041	-0.92
610.163	9.08
610.285	-3.92
610.407	9.08
610.529	-0.92
610.652	4.08
610.774	13.08
610.896	10.08
611.018	7.08
611.14	-0.92
611.263	-4.92
611.385	8.08
611.507	17.08
611.629	3.08
611.751	8.08
611.873	35.08
611.996	-5.92
612.118	18.08
612.24	3.08
612.362	19.08
612.484	25.08
612.607	33.08
612.729	22.08
612.851	3.08
612.973	6.08
613.095	13.08
613.218	5.08
613.34	35.08
613.462	10.08
613.584	13.08
613.706	11.08
613.828	29.08
613.951	5.08
614.073	5.08
614.195	11.08
614.317	31.08
614.439	9.08
614.561	28.08
614.684	11.08
614.806	34.08
614.928	15.08
615.05	24.08
615.172	35.08
615.294	18.08
615.417	10.08
615.539	-4.92
615.661	9.08
615.783	20.08
615.905	39.08
616.027	76.08
616.15	95.08
616.272	75.08
616.394	45.08
616.516	26.08
616.638	7.08
616.76	12.08
616.883	26.08
617.005	13.08
617.127	16.08
617.249	21.08
617.371	17.08
617.493	7.08
617.615	19.08
617.738	9.08
617.86	13.08
617.982	0.08
618.104	9.08
618.226	-10.92
618.348	-5.92
618.471	9.08
618.593	8.08
618.715	1.08
618.837	15.08
618.959	21.08
619.081	29.08
619.203	11.08
619.326	12.08
619.448	20.08
619.57	11.08
619.692	14.08
619.814	27.08
619.936	21.08
620.058	14.08
620.181	20.08
620.303	3.08
620.425	19.08
620.547	12.08
620.669	17.08
620.791	3.08
620.913	10.08
621.036	2.08
621.158	12.08
621.28	26.08
621.402	-3.92
621.524	5.08
621.646	26.08
621.768	-0.92
621.891	2.08
622.013	10.08
622.135	-5.92
622.257	-13.92
622.379	4.08
622.501	7.08
622.623	7.08
622.745	7.08
622.868	15.08
622.99	7.08
623.112	-0.92
623.234	8.08
623.356	29.08
623.478	-11.92
623.6	17.08
623.722	3.08
623.845	15.08
623.967	4.08
624.089	4.08
624.211	7.08
624.333	6.08
624.455	20.08
624.577	5.08
624.699	11.08
624.822	14.08
624.944	0.08
625.066	-0.92
625.188	-11.92
625.31	10.08
625.432	36.08
625.554	12.08
625.676	19.08
625.799	15.08
625.921	2.08
626.043	11.08
626.165	15.08
626.287	-5.92
626.409	7.08
626.531	7.08
626.653	28.08
626.775	20.08
626.898	30.08
627.02	0.08
627.142	26.08
627.264	10.08
627.386	7.08
627.508	10.08
627.63	7.08
627.752	16.08
627.874	2.08
627.997	1.08
628.119	25.08
628.241	11.08
628.363	30.08
628.485	27.08
628.607	12.08
628.729	16.08
628.851	-1.92
628.973	11.08
629.096	-2.92
629.218	-7.92
629.34	14.08
629.462	7.08
629.584	5.08
629.706	13.08
629.828	24.08
629.95	26.08
630.072	15.08
630.195	19.08
630.317	7.08
630.439	8.08
630.561	13.08
630.683	-2.92
630.805	9.08
630.927	15.08
631.049	6.08
631.171	-5.92
631.293	2.08
631.416	21.08
631.538	17.08
631.66	4.08
631.782	9.08
631.904	28.08
632.026	4.08
632.148	23.08
632.27	-2.92
632.392	21.08
632.514	8.08
632.637	7.08
632.759	12.08
632.881	-2.92
633.003	14.08
633.125	5.08
633.247	4.08
633.369	10.08
633.491	14.08
633.613	22.08
633.735	11.08
633.858	14.08
633.98	24.08
634.102	-14.92
634.224	7.08
634.346	15.08
634.468	3.08
634.59	5.08
634.712	5.08
634.834	8.08
634.956	-3.92
635.078	-4.92
635.201	-6.92
635.323	5.08
635.445	9.08
635.567	-2.92
635.689	8.08
635.811	5.08
635.933	-8.92
636.055	4.08
636.177	-4.92
636.299	-3.92
636.421	-2.92
636.544	-7.92
636.666	22.08
636.788	19.08
636.91	9.08
637.032	-4.92
637.154	33.08
637.276	33.08
637.398	38.08
637.52	21.08
637.642	-6.92
637.764	3.08
637.887	-2.92
638.009	3.08
638.131	10.08
638.253	3.08
638.375	19.08
638.497	8.08
638.619	-4.92
638.741	10.08
638.863	-2.92
638.985	7.08
639.107	16.08
639.23	17.08
639.352	27.08
639.474	12.08
639.596	-6.92
639.718	-1.92
639.84	22.08
639.962	7.08
640.084	26.08
640.206	27.08
640.328	7.08
640.45	22.08
640.573	18.08
640.695	1.08
640.817	3.08
640.939	19.08
641.061	-2.92
641.183	23.08
641.305	-16.92
641.427	-0.92
641.549	12.08
641.671	21.08
641.793	12.08
641.915	21.08
642.038	11.08
642.16	12.08
642.282	6.08
642.404	0.08
642.526	9.08
642.648	4.08
642.77	8.08
642.892	3.08
643.014	29.08
643.136	8.08
643.258	3.08
643.381	19.08
643.503	38.08
643.625	8.08
643.747	-4.92
643.869	6.08
643.991	20.08
644.113	12.08
644.235	6.08
644.357	7.08
644.479	-2.92
644.601	-0.92
644.723	8.08
644.846	25.08
644.968	11.08
645.09	11.08
645.212	6.08
645.334	13.08
645.456	14.08
645.578	22.08
645.7	8.08
645.822	22.08
645.944	4.08
646.066	-0.92
646.188	-11.92
646.311	26.08
646.433	29.08
646.555	57.08
646.677	44.08
646.799	44.08
646.921	21.08
647.043	42.08
647.165	4.08
647.287	16.08
647.409	9.08
647.531	19.08
647.654	-12.92
647.776	18.08
647.898	12.08
648.02	2.08
648.142	-0.92
648.264	0.08
648.386	-2.92
648.508	-5.92
648.63	3.08
648.752	12.08
648.874	2.08
648.997	-2.92
649.119	0.08
649.241	9.08
649.363	18.08
649.485	16.08
649.607	10.08
649.729	-7.92
649.851	6.08
649.973	13.08
650.095	13.08
650.217	3.08
650.34	-1.92
650.462	5.08
650.584	19.08
650.706	24.08
650.828	31.08
650.95	-20.92
651.072	17.08
651.194	3.08
651.316	1.08
651.438	18.08
651.56	0.08
651.683	0.08
651.805	8.08
651.927	1.08
652.049	10.08
652.171	3.08
652.293	-9.92
652.415	-12.92
652.537	9.08
652.659	6.08
652.781	11.08
652.903	14.08
653.026	23.08
653.148	21.08
653.27	25.08
653.392	21.08
653.514	12.08
653.636	0.08
653.758	18.08
653.88	4.08
654.002	20.08
654.124	7.08
654.247	-5.92
654.369	38.08
654.491	10.08
654.613	-2.92
654.735	10.08
654.857	32.08
654.979	33.08
655.101	22.08
655.223	42.08
655.345	15.08
655.468	32.08
655.59	12.08
655.712	28.08
655.834	37.08
655.956	38.08
656.078	25.08
656.2	49.08
656.322	34.08
656.444	35.08
656.566	62.08
656.689	44.08
656.811	63.08
656.933	100.08
657.055	79.08
657.177	123.08
657.299	225.08
657.421	497.08
657.543	1850.08
657.665	12411.08
657.787	15142.08
657.91	15223.08
658.032	15662.08
658.154	4548.08
658.276	3208.08
658.398	1095.08
658.52	985.08
658.642	457.08
658.764	581.08
658.886	282.08
659.009	400.08
659.131	214.08
659.253	312.08
659.375	168.08
659.497	239.08
659.619	133.08
659.741	204.08
659.863	90.08
659.985	176.08
660.108	103.08
660.23	135.08
660.352	81.08
660.474	140.08
660.596	64.08
660.718	120.08
660.84	57.08
660.962	105.08
661.084	47.08
661.207	107.08
661.329	57.08
661.451	81.08
661.573	31.08
661.695	91.08
661.817	77.08
661.939	111.08
662.061	56.08
662.184	72.08
662.306	27.08
662.428	91.08
662.55	54.08
662.672	57.08
662.794	43.08
662.916	73.08
663.038	24.08
663.161	67.08
663.283	41.08
663.405	82.08
663.527	32.08
663.649	59.08
663.771	41.08
663.893	49.08
664.015	29.08
664.138	56.08
664.26	24.08
664.382	62.08
664.504	28.08
664.626	33.08
664.748	27.08
664.87	40.08
664.992	37.08
665.115	65.08
665.237	35.08
665.359	18.08
665.481	18.08
665.603	48.08
665.725	26.08
665.847	14.08
665.97	7.08
666.092	29.08
666.214	14.08
666.336	33.08
666.458	11.08
666.58	48.08
666.702	14.08
666.825	49.08
666.947	5.08
667.069	37.08
667.191	18.08
667.313	41.08
667.435	26.08
667.557	32.08
667.68	15.08
667.802	27.08
667.924	13.08
668.046	41.08
668.168	21.08
668.29	40.08
668.412	13.08
668.535	30.08
668.657	21.08
668.779	14.08
668.901	15.08
669.023	14.08
669.145	15.08
669.267	21.08
669.39	8.08
669.512	14.08
669.634	13.08
669.756	27.08
669.878	4.08
670	33.08
670.123	28.08
670.245	31.08
670.367	16.08
670.489	30.08
670.611	6.08
670.733	32.08
670.856	4.08
670.978	32.08
671.1	20.08
671.222	22.08
671.344	19.08
671.466	19.08
671.589	11.08
671.711	9.08
671.833	-2.92
671.955	26.08
672.077	12.08
672.199	26.08
672.322	32.08
672.444	10.08
672.566	15.08
672.688	27.08
672.81	15.08
672.932	33.08
673.055	2.08
673.177	2.08
673.299	10.08
673.421	7.08
673.543	7.08
673.665	35.08
673.788	17.08
673.91	4.08
674.032	-5.92
674.154	22.08
674.276	12.08
674.399	26.08
674.521	-2.92
674.643	25.08
674.765	9.08
674.887	24.08
675.009	8.08
675.132	12.08
675.254	9.08
675.376	22.08
675.498	1.08
675.62	21.08
675.743	4.08
675.865	21.08
675.987	-0.92
676.109	22.08
676.231	28.08
676.354	42.08
676.476	14.08
676.598	15.08
676.72	14.08
676.842	27.08
676.965	12.08
677.087	28.08
677.209	7.08
677.331	24.08
677.453	21.08
677.576	15.08
677.698	12.08
677.82	6.08
677.942	-0.92
678.064	13.08
678.187	17.08
678.309	10.08
678.431	9.08
678.553	7.08
678.675	25.08
678.798	23.08
678.92	-3.92
679.042	14.08
679.164	-5.92
679.286	33.08
679.409	10.08
679.531	8.08
679.653	-4.92
679.775	5.08
679.898	-4.92
680.02	-0.92
680.142	-10.92
680.264	3.08
680.386	-8.92
680.509	17.08
680.631	22.08
680.753	12.08
680.875	2.08
680.998	25.08
681.12	11.08
681.242	11.08
681.364	-21.92
681.486	10.08
681.609	16.08
681.731	-4.92
681.853	2.08
681.975	-0.92
682.098	13.08
682.22	21.08
682.342	19.08
682.464	28.08
682.587	10.08
682.709	28.08
682.831	-4.92
682.953	-0.92
683.076	1.08
683.198	18.08
683.32	8.08
683.442	22.08
683.565	18.08
683.687	0.08
683.809	5.08
683.931	2.08
684.054	11.08
684.176	12.08
684.298	13.08
684.42	5.08
684.543	5.08
684.665	24.08
684.787	13.08
684.909	-18.92
685.032	7.08
685.154	-18.92
685.276	5.08
685.398	-8.92
685.521	-14.92
685.643	9.08
685.765	26.08
685.887	9.08
686.01	7.08
686.132	14.08
686.254	16.08
686.377	24.08
686.499	0.08
686.621	26.08
686.743	8.08
686.866	-0.92
686.988	24.08
687.11	7.08
687.232	-0.92
687.355	-11.92
687.477	-12.92
687.599	20.08
687.722	4.08
687.844	19.08
687.966	4.08
688.088	14.08
688.211	47.08
688.333	33.08
688.455	7.08
688.578	23.08
688.7	6.08
688.822	8.08
688.944	-8.92
689.067	38.08
689.189	4.08
689.311	-15.92
689.434	2.08
689.556	20.08
689.678	13.08
689.801	-2.92
689.923	15.08
690.045	32.08
690.167	27.08
690.29	23.08
690.412	18.08
690.534	23.08
690.657	-0.92
690.779	15.08
690.901	16.08
691.024	19.08
691.146	0.08
691.268	1.08
691.391	18.08
691.513	29.08
691.635	16.08
691.758	25.08
691.88	19.08
692.002	-2.92
692.125	-1.92
692.247	14.08
692.369	6.08
692.492	8.08
692.614	0.08
692.736	25.08
692.859	5.08
692.981	16.08
693.103	9.08
693.226	23.08
693.348	11.08
693.47	12.08
693.593	13.08
693.715	-2.92
693.837	-7.92
693.96	16.08
694.082	6.08
694.204	14.08
694.327	3.08
694.449	-4.92
694.571	3.08
694.694	14.08
694.816	4.08
694.938	-0.92
695.061	18.08
695.183	20.08
695.305	5.08
695.428	15.08
695.55	-2.92
695.672	-9.92
695.795	17.08
695.917	25.08
696.04	12.08
696.162	6.08
696.284	4.08
696.407	23.08
696.529	-1.92
696.651	35.08
696.774	-1.92
696.896	7.08
697.019	15.08
697.141	14.08
697.263	-14.92
697.386	-1.92
697.508	4.08
697.63	22.08
697.753	10.08
697.875	20.08
697.998	8.08
698.12	14.08
698.242	3.08
698.365	13.08
698.487	10.08
698.61	18.08
698.732	5.08
698.854	14.08
698.977	-1.92
699.099	12.08
699.221	3.08
699.344	3.08
699.466	13.08
699.589	12.08
699.711	-0.92
699.834	10.08
699.956	4.08
700.078	8.08
700.201	-4.92
700.323	35.08
700.446	22.08
700.568	4.08
700.69	20.08
700.813	22.08
700.935	3.08
701.058	8.08
701.18	-11.92
701.302	-0.92
701.425	-4.92
701.547	16.08
701.67	4.08
701.792	-4.92
701.915	-6.92
702.037	-3.92
702.159	9.08
702.282	8.08
702.404	1.08
702.527	6.08
702.649	24.08
702.772	26.08
702.894	1.08
703.017	21.08
703.139	8.08
703.261	17.08
703.384	0.08
703.506	-2.92
703.629	-2.92
703.751	32.08
703.874	11.08
703.996	-20.92
704.119	1.08
704.241	18.08
704.364	26.08
704.486	31.08
704.608	14.08
704.731	-0.92
704.853	3.08
704.976	11.08
705.098	6.08
705.221	4.08
705.343	4.08
705.466	-5.92
705.588	27.08
705.711	8.08
705.833	22.08
705.956	18.08
706.078	5.08
706.201	-3.92
706.323	-4.92
706.446	-3.92
