Data from LowRes_H2_15_26_11_07_2024_HR4C61881__47__15-28-18-337.txt Node

Date: Thu Nov 07 15:28:18 EST 2024
User: crc00042
Spectrometer: HR4C6188
Trigger mode: 4
Integration Time (sec): 1.000000E-1
Scans to average: 1
Electric dark correction enabled: true
Nonlinearity correction enabled: false
Boxcar width: 0
XAxis mode: Wavelengths
Number of Pixels in Spectrum: 3648
>>>>>Begin Spectral Data<<<<<
245.66	-109.08
245.797	-109.08
245.934	-109.08
246.071	-82.08
246.208	6.92
246.344	-4.08
246.481	-14.08
246.618	-21.08
246.755	32.92
246.892	3.92
247.029	-10.08
247.165	-8.08
247.302	15.92
247.439	-7.08
247.576	4.92
247.713	-19.08
247.849	21.92
247.986	3.92
248.123	-1.08
248.26	-30.08
248.396	9.92
248.533	5.92
248.67	-10.08
248.806	-3.08
248.943	-24.08
249.08	-16.08
249.216	2.92
249.353	-30.08
249.49	-7.08
249.626	10.92
249.763	2.92
249.9	-30.08
250.036	-13.08
250.173	-6.08
250.309	-6.08
250.446	2.92
250.582	-9.08
250.719	-16.08
250.856	-17.08
250.992	-19.08
251.129	-14.08
251.265	4.92
251.402	9.92
251.538	4.92
251.675	-25.08
251.811	5.92
251.948	16.92
252.084	-2.08
252.221	5.92
252.357	-4.08
252.493	17.92
252.63	-11.08
252.766	9.92
252.903	10.92
253.039	1.92
253.175	-1.08
253.312	17.92
253.448	-16.08
253.585	-20.08
253.721	-10.08
253.857	-13.08
253.994	0.92
254.13	-11.08
254.266	-16.08
254.403	3.92
254.539	-11.08
254.675	12.92
254.811	0.92
254.948	-15.08
255.084	-5.08
255.22	-31.08
255.356	-7.08
255.493	16.92
255.629	0.92
255.765	-0.08
255.901	20.92
256.037	-0.08
256.174	4.92
256.31	-7.08
256.446	-27.08
256.582	-19.08
256.718	2.92
256.854	3.92
256.991	3.92
257.127	16.92
257.263	10.92
257.399	0.92
257.535	-3.08
257.671	-3.08
257.807	-8.08
257.943	-18.08
258.079	-30.08
258.215	-13.08
258.351	18.92
258.487	4.92
258.623	6.92
258.759	0.92
258.895	-15.08
259.031	-14.08
259.167	-7.08
259.303	12.92
259.439	-8.08
259.575	-8.08
259.711	11.92
259.847	-2.08
259.983	14.92
260.119	1.92
260.255	5.92
260.391	-5.08
260.527	-12.08
260.663	7.92
260.799	7.92
260.934	-26.08
261.07	-7.08
261.206	-13.08
261.342	-14.08
261.478	17.92
261.614	-0.08
261.749	7.92
261.885	-3.08
262.021	2.92
262.157	16.92
262.293	-16.08
262.428	-12.08
262.564	-12.08
262.7	-24.08
262.836	-25.08
262.971	-0.08
263.107	-8.08
263.243	-7.08
263.378	-7.08
263.514	-32.08
263.65	2.92
263.785	-15.08
263.921	-10.08
264.057	-7.08
264.192	0.92
264.328	-0.08
264.464	-7.08
264.599	14.92
264.735	24.92
264.871	-10.08
265.006	-3.08
265.142	-15.08
265.277	-11.08
265.413	7.92
265.548	7.92
265.684	12.92
265.819	-4.08
265.955	-3.08
266.091	-17.08
266.226	-2.08
266.362	16.92
266.497	0.92
266.633	6.92
266.768	-5.08
266.903	17.92
267.039	8.92
267.174	13.92
267.31	0.92
267.445	-9.08
267.581	1.92
267.716	14.92
267.851	21.92
267.987	16.92
268.122	-2.08
268.258	-29.08
268.393	-20.08
268.528	23.92
268.664	-6.08
268.799	-10.08
268.934	-14.08
269.07	-32.08
269.205	2.92
269.34	7.92
269.476	5.92
269.611	-22.08
269.746	-6.08
269.881	0.92
270.017	15.92
270.152	5.92
270.287	-7.08
270.422	4.92
270.558	-6.08
270.693	-3.08
270.828	-13.08
270.963	-2.08
271.098	-22.08
271.234	-6.08
271.369	3.92
271.504	12.92
271.639	-10.08
271.774	-4.08
271.909	-3.08
272.045	-15.08
272.18	4.92
272.315	-12.08
272.45	11.92
272.585	-12.08
272.72	-6.08
272.855	3.92
272.99	0.92
273.125	-20.08
273.26	-20.08
273.395	-2.08
273.53	2.92
273.665	11.92
273.8	21.92
273.935	-6.08
274.07	-3.08
274.205	-2.08
274.34	2.92
274.475	-6.08
274.61	14.92
274.745	-23.08
274.88	10.92
275.015	-28.08
275.15	-8.08
275.285	1.92
275.42	18.92
275.555	14.92
275.69	5.92
275.825	-7.08
275.959	15.92
276.094	-8.08
276.229	2.92
276.364	-8.08
276.499	-3.08
276.634	12.92
276.768	-27.08
276.903	-0.08
277.038	11.92
277.173	-3.08
277.308	-15.08
277.442	-12.08
277.577	-24.08
277.712	-6.08
277.847	11.92
277.981	-2.08
278.116	-11.08
278.251	-1.08
278.386	-3.08
278.52	-5.08
278.655	18.92
278.79	5.92
278.924	-5.08
279.059	-2.08
279.194	-16.08
279.328	14.92
279.463	18.92
279.598	12.92
279.732	11.92
279.867	27.92
280.001	16.92
280.136	-4.08
280.271	-2.08
280.405	20.92
280.54	0.92
280.674	-14.08
280.809	10.92
280.943	4.92
281.078	5.92
281.213	9.92
281.347	8.92
281.482	17.92
281.616	-5.08
281.751	5.92
281.885	-45.08
282.02	-11.08
282.154	-0.08
282.288	-23.08
282.423	-15.08
282.557	-13.08
282.692	-4.08
282.826	4.92
282.961	24.92
283.095	3.92
283.229	-25.08
283.364	-33.08
283.498	-2.08
283.633	16.92
283.767	-1.08
283.901	-10.08
284.036	5.92
284.17	-4.08
284.304	-7.08
284.439	-5.08
284.573	-13.08
284.707	4.92
284.842	-3.08
284.976	-0.08
285.11	-30.08
285.244	0.92
285.379	19.92
285.513	-13.08
285.647	-7.08
285.781	-18.08
285.916	1.92
286.05	-18.08
286.184	12.92
286.318	20.92
286.453	-6.08
286.587	-19.08
286.721	-6.08
286.855	0.92
286.989	-0.08
287.123	-8.08
287.258	-28.08
287.392	-17.08
287.526	0.92
287.66	-5.08
287.794	-14.08
287.928	-15.08
288.062	12.92
288.196	-16.08
288.33	-10.08
288.464	14.92
288.598	24.92
288.733	0.92
288.867	6.92
289.001	13.92
289.135	-2.08
289.269	-12.08
289.403	-3.08
289.537	5.92
289.671	6.92
289.805	-17.08
289.939	4.92
290.073	-3.08
290.207	13.92
290.34	-5.08
290.474	14.92
290.608	16.92
290.742	-2.08
290.876	-3.08
291.01	-2.08
291.144	4.92
291.278	1.92
291.412	-2.08
291.546	-10.08
291.679	0.92
291.813	-1.08
291.947	-5.08
292.081	-8.08
292.215	-4.08
292.349	19.92
292.482	1.92
292.616	-12.08
292.75	-0.08
292.884	10.92
293.018	-15.08
293.151	-23.08
293.285	-3.08
293.419	-19.08
293.553	-16.08
293.686	-28.08
293.82	-3.08
293.954	6.92
294.088	31.92
294.221	-5.08
294.355	-7.08
294.489	-5.08
294.622	-7.08
294.756	-8.08
294.89	3.92
295.023	1.92
295.157	5.92
295.291	9.92
295.424	9.92
295.558	9.92
295.691	16.92
295.825	5.92
295.959	-2.08
296.092	-26.08
296.226	-4.08
296.359	-4.08
296.493	-3.08
296.627	-2.08
296.76	12.92
296.894	-21.08
297.027	5.92
297.161	-17.08
297.294	-31.08
297.428	-7.08
297.561	0.92
297.695	-0.08
297.828	-15.08
297.962	-13.08
298.095	-22.08
298.229	-7.08
298.362	-15.08
298.495	-18.08
298.629	-12.08
298.762	1.92
298.896	9.92
299.029	-3.08
299.162	11.92
299.296	5.92
299.429	-16.08
299.563	9.92
299.696	15.92
299.829	0.92
299.963	14.92
300.096	9.92
300.229	-0.08
300.363	4.92
300.496	-0.08
300.629	-27.08
300.763	-3.08
300.896	-4.08
301.029	8.92
301.162	-5.08
301.296	-8.08
301.429	-2.08
301.562	-12.08
301.695	12.92
301.829	-2.08
301.962	22.92
302.095	0.92
302.228	-17.08
302.362	-2.08
302.495	-8.08
302.628	-5.08
302.761	1.92
302.894	-1.08
303.027	1.92
303.161	3.92
303.294	-8.08
303.427	12.92
303.56	-15.08
303.693	-8.08
303.826	-4.08
303.959	-10.08
304.092	-15.08
304.225	-19.08
304.359	14.92
304.492	-0.08
304.625	-13.08
304.758	7.92
304.891	-31.08
305.024	4.92
305.157	-0.08
305.29	-15.08
305.423	-13.08
305.556	12.92
305.689	26.92
305.822	-4.08
305.955	12.92
306.088	-9.08
306.221	-24.08
306.354	-15.08
306.487	-14.08
306.62	-17.08
306.752	-4.08
306.885	-14.08
307.018	3.92
307.151	22.92
307.284	8.92
307.417	4.92
307.55	9.92
307.683	5.92
307.816	8.92
307.948	10.92
308.081	12.92
308.214	2.92
308.347	25.92
308.48	0.92
308.613	-28.08
308.745	-5.08
308.878	4.92
309.011	-7.08
309.144	8.92
309.277	9.92
309.409	13.92
309.542	-15.08
309.675	6.92
309.808	1.92
309.94	8.92
310.073	-16.08
310.206	-6.08
310.339	0.92
310.471	-25.08
310.604	-1.08
310.737	-10.08
310.869	-18.08
311.002	-8.08
311.135	-9.08
311.267	-5.08
311.4	-4.08
311.533	30.92
311.665	-6.08
311.798	-26.08
311.93	-22.08
312.063	21.92
312.196	17.92
312.328	-6.08
312.461	-11.08
312.593	12.92
312.726	-20.08
312.859	-2.08
312.991	17.92
313.124	-26.08
313.256	-2.08
313.389	7.92
313.521	12.92
313.654	-4.08
313.786	-7.08
313.919	-3.08
314.051	5.92
314.184	-1.08
314.316	-0.08
314.449	-17.08
314.581	-16.08
314.714	-0.08
314.846	-0.08
314.978	-20.08
315.111	-11.08
315.243	-6.08
315.376	3.92
315.508	18.92
315.641	30.92
315.773	29.92
315.905	12.92
316.038	-0.08
316.17	5.92
316.302	0.92
316.435	-12.08
316.567	-10.08
316.699	17.92
316.832	-3.08
316.964	-6.08
317.096	-5.08
317.229	-20.08
317.361	-29.08
317.493	-6.08
317.625	-11.08
317.758	-0.08
317.89	24.92
318.022	10.92
318.155	-8.08
318.287	1.92
318.419	-2.08
318.551	-0.08
318.683	-7.08
318.816	-4.08
318.948	-8.08
319.08	-3.08
319.212	26.92
319.344	19.92
319.477	-5.08
319.609	7.92
319.741	7.92
319.873	3.92
320.005	1.92
320.137	3.92
320.269	2.92
320.401	-12.08
320.534	-5.08
320.666	-15.08
320.798	-1.08
320.93	-14.08
321.062	-33.08
321.194	-16.08
321.326	-16.08
321.458	1.92
321.59	-7.08
321.722	-15.08
321.854	-6.08
321.986	14.92
322.118	2.92
322.25	-1.08
322.382	3.92
322.514	-23.08
322.646	4.92
322.778	20.92
322.91	2.92
323.042	1.92
323.174	3.92
323.306	-25.08
323.438	-37.08
323.57	2.92
323.702	11.92
323.834	-1.08
323.966	-3.08
324.097	-10.08
324.229	7.92
324.361	3.92
324.493	-2.08
324.625	-8.08
324.757	3.92
324.889	-2.08
325.021	-2.08
325.152	15.92
325.284	15.92
325.416	-9.08
325.548	-5.08
325.68	-5.08
325.811	0.92
325.943	14.92
326.075	-23.08
326.207	3.92
326.339	15.92
326.47	-7.08
326.602	17.92
326.734	18.92
326.866	14.92
326.997	-9.08
327.129	-20.08
327.261	-28.08
327.392	-17.08
327.524	-8.08
327.656	-6.08
327.787	-5.08
327.919	-5.08
328.051	20.92
328.182	30.92
328.314	21.92
328.446	-4.08
328.577	4.92
328.709	12.92
328.841	-18.08
328.972	-25.08
329.104	-3.08
329.235	1.92
329.367	-4.08
329.499	-7.08
329.63	13.92
329.762	10.92
329.893	10.92
330.025	-12.08
330.156	-24.08
330.288	-3.08
330.419	20.92
330.551	8.92
330.683	7.92
330.814	8.92
330.946	6.92
331.077	-20.08
331.208	-2.08
331.34	-8.08
331.471	-8.08
331.603	-16.08
331.734	-14.08
331.866	-13.08
331.997	-6.08
332.129	-16.08
332.26	-4.08
332.392	20.92
332.523	-5.08
332.654	-17.08
332.786	-9.08
332.917	-11.08
333.048	9.92
333.18	8.92
333.311	-16.08
333.443	4.92
333.574	-4.08
333.705	11.92
333.837	-7.08
333.968	-3.08
334.099	11.92
334.231	20.92
334.362	7.92
334.493	2.92
334.624	11.92
334.756	12.92
334.887	6.92
335.018	0.92
335.15	16.92
335.281	-0.08
335.412	19.92
335.543	8.92
335.675	1.92
335.806	6.92
335.937	-17.08
336.068	20.92
336.199	42.92
336.331	-0.08
336.462	-7.08
336.593	9.92
336.724	-16.08
336.855	-1.08
336.986	2.92
337.118	-0.08
337.249	8.92
337.38	11.92
337.511	-4.08
337.642	-11.08
337.773	-9.08
337.904	12.92
338.035	2.92
338.166	-2.08
338.298	7.92
338.429	-10.08
338.56	16.92
338.691	22.92
338.822	2.92
338.953	3.92
339.084	13.92
339.215	7.92
339.346	-2.08
339.477	-8.08
339.608	1.92
339.739	0.92
339.87	4.92
340.001	-8.08
340.132	-3.08
340.263	-7.08
340.394	-1.08
340.525	1.92
340.656	-6.08
340.787	-19.08
340.918	30.92
341.049	15.92
341.179	13.92
341.31	-4.08
341.441	7.92
341.572	10.92
341.703	9.92
341.834	2.92
341.965	2.92
342.096	-19.08
342.227	2.92
342.357	8.92
342.488	-10.08
342.619	5.92
342.75	-7.08
342.881	-15.08
343.012	-4.08
343.142	30.92
343.273	-15.08
343.404	-1.08
343.535	7.92
343.666	7.92
343.796	18.92
343.927	30.92
344.058	23.92
344.189	20.92
344.319	13.92
344.45	-2.08
344.581	-4.08
344.712	-5.08
344.842	-5.08
344.973	-3.08
345.104	0.92
345.234	2.92
345.365	-12.08
345.496	16.92
345.626	0.92
345.757	16.92
345.888	-14.08
346.018	18.92
346.149	2.92
346.28	4.92
346.41	-26.08
346.541	3.92
346.672	-6.08
346.802	13.92
346.933	15.92
347.063	11.92
347.194	-13.08
347.325	-10.08
347.455	18.92
347.586	6.92
347.716	-30.08
347.847	4.92
347.977	16.92
348.108	5.92
348.238	-2.08
348.369	-15.08
348.499	-9.08
348.63	-5.08
348.76	7.92
348.891	-2.08
349.021	8.92
349.152	12.92
349.282	20.92
349.413	-6.08
349.543	8.92
349.674	-12.08
349.804	9.92
349.935	-21.08
350.065	-15.08
350.196	-4.08
350.326	-0.08
350.456	18.92
350.587	35.92
350.717	0.92
350.848	-9.08
350.978	-4.08
351.108	-10.08
351.239	20.92
351.369	7.92
351.499	1.92
351.63	16.92
351.76	3.92
351.89	5.92
352.021	-10.08
352.151	2.92
352.281	9.92
352.412	12.92
352.542	0.92
352.672	-7.08
352.803	-3.08
352.933	10.92
353.063	7.92
353.193	12.92
353.324	0.92
353.454	14.92
353.584	15.92
353.714	-3.08
353.845	3.92
353.975	11.92
354.105	10.92
354.235	3.92
354.365	12.92
354.496	0.92
354.626	1.92
354.756	-7.08
354.886	4.92
355.016	-1.08
355.146	-0.08
355.277	4.92
355.407	-2.08
355.537	4.92
355.667	18.92
355.797	0.92
355.927	-12.08
356.057	-6.08
356.187	-8.08
356.318	-0.08
356.448	2.92
356.578	30.92
356.708	11.92
356.838	6.92
356.968	-15.08
357.098	-11.08
357.228	3.92
357.358	-9.08
357.488	-4.08
357.618	7.92
357.748	-4.08
357.878	-10.08
358.008	-7.08
358.138	-10.08
358.268	4.92
358.398	7.92
358.528	-32.08
358.658	2.92
358.788	-8.08
358.918	-7.08
359.048	7.92
359.178	25.92
359.308	7.92
359.438	25.92
359.568	11.92
359.698	24.92
359.827	-5.08
359.957	4.92
360.087	18.92
360.217	-13.08
360.347	-2.08
360.477	21.92
360.607	-5.08
360.737	4.92
360.866	9.92
360.996	-17.08
361.126	0.92
361.256	13.92
361.386	18.92
361.516	25.92
361.645	-6.08
361.775	16.92
361.905	-21.08
362.035	22.92
362.165	-0.08
362.294	18.92
362.424	14.92
362.554	-0.08
362.684	-10.08
362.813	13.92
362.943	13.92
363.073	-4.08
363.203	10.92
363.332	15.92
363.462	-1.08
363.592	-4.08
363.721	-8.08
363.851	6.92
363.981	-1.08
364.111	-2.08
364.24	7.92
364.37	12.92
364.5	8.92
364.629	-8.08
364.759	-11.08
364.888	-10.08
365.018	3.92
365.148	-11.08
365.277	3.92
365.407	-0.08
365.537	14.92
365.666	0.92
365.796	14.92
365.925	-1.08
366.055	8.92
366.184	-9.08
366.314	-9.08
366.444	-0.08
366.573	2.92
366.703	1.92
366.832	1.92
366.962	0.92
367.091	22.92
367.221	-17.08
367.35	1.92
367.48	40.92
367.609	7.92
367.739	13.92
367.868	-9.08
367.998	13.92
368.127	24.92
368.257	7.92
368.386	26.92
368.516	12.92
368.645	21.92
368.775	9.92
368.904	5.92
369.033	-6.08
369.163	-10.08
369.292	13.92
369.422	15.92
369.551	12.92
369.68	19.92
369.81	17.92
369.939	-0.08
370.069	6.92
370.198	11.92
370.327	-5.08
370.457	2.92
370.586	8.92
370.715	-6.08
370.845	0.92
370.974	22.92
371.103	32.92
371.233	5.92
371.362	3.92
371.491	-15.08
371.621	17.92
371.75	-8.08
371.879	-14.08
372.008	5.92
372.138	1.92
372.267	16.92
372.396	9.92
372.525	19.92
372.655	9.92
372.784	10.92
372.913	-2.08
373.042	3.92
373.172	20.92
373.301	-27.08
373.43	-0.08
373.559	6.92
373.688	20.92
373.818	16.92
373.947	9.92
374.076	11.92
374.205	23.92
374.334	-10.08
374.463	-11.08
374.593	-3.08
374.722	1.92
374.851	7.92
374.98	-4.08
375.109	13.92
375.238	-1.08
375.367	49.92
375.496	7.92
375.625	-14.08
375.755	20.92
375.884	14.92
376.013	29.92
376.142	-18.08
376.271	-0.08
376.4	12.92
376.529	-7.08
376.658	4.92
376.787	-12.08
376.916	-0.08
377.045	-18.08
377.174	-10.08
377.303	-7.08
377.432	20.92
377.561	8.92
377.69	-2.08
377.819	17.92
377.948	-9.08
378.077	-20.08
378.206	-14.08
378.335	6.92
378.464	2.92
378.593	17.92
378.722	4.92
378.851	-1.08
378.98	27.92
379.108	-15.08
379.237	-5.08
379.366	11.92
379.495	8.92
379.624	-10.08
379.753	-2.08
379.882	22.92
380.011	10.92
380.14	3.92
380.268	11.92
380.397	6.92
380.526	21.92
380.655	-7.08
380.784	-27.08
380.913	-8.08
381.041	6.92
381.17	-23.08
381.299	-18.08
381.428	-2.08
381.557	4.92
381.685	8.92
381.814	15.92
381.943	-12.08
382.072	-9.08
382.2	-2.08
382.329	-14.08
382.458	-0.08
382.587	19.92
382.715	15.92
382.844	-2.08
382.973	-1.08
383.102	3.92
383.23	4.92
383.359	3.92
383.488	2.92
383.616	-3.08
383.745	-8.08
383.874	4.92
384.003	3.92
384.131	9.92
384.26	-0.08
384.389	3.92
384.517	-8.08
384.646	-20.08
384.774	-0.08
384.903	7.92
385.032	27.92
385.16	-7.08
385.289	-8.08
385.418	0.92
385.546	-1.08
385.675	4.92
385.803	-8.08
385.932	-2.08
386.06	-0.08
386.189	15.92
386.318	2.92
386.446	-2.08
386.575	-12.08
386.703	-0.08
386.832	-18.08
386.96	-26.08
387.089	3.92
387.217	11.92
387.346	-11.08
387.474	-8.08
387.603	8.92
387.731	-2.08
387.86	5.92
387.988	-13.08
388.117	15.92
388.245	3.92
388.374	-8.08
388.502	-3.08
388.631	-33.08
388.759	-6.08
388.888	-2.08
389.016	-3.08
389.144	-3.08
389.273	14.92
389.401	4.92
389.53	-8.08
389.658	18.92
389.786	-0.08
389.915	-7.08
390.043	-15.08
390.172	13.92
390.3	8.92
390.428	17.92
390.557	4.92
390.685	6.92
390.813	13.92
390.942	31.92
391.07	2.92
391.198	-25.08
391.327	10.92
391.455	-23.08
391.583	20.92
391.712	-4.08
391.84	-2.08
391.968	-7.08
392.096	1.92
392.225	3.92
392.353	16.92
392.481	2.92
392.609	28.92
392.738	19.92
392.866	13.92
392.994	-21.08
393.122	9.92
393.251	-6.08
393.379	-8.08
393.507	-18.08
393.635	-14.08
393.764	6.92
393.892	14.92
394.02	0.92
394.148	-0.08
394.276	9.92
394.404	31.92
394.533	9.92
394.661	11.92
394.789	18.92
394.917	33.92
395.045	-19.08
395.173	12.92
395.302	-5.08
395.43	8.92
395.558	0.92
395.686	1.92
395.814	7.92
395.942	-7.08
396.07	-2.08
396.198	-1.08
396.326	-2.08
396.454	16.92
396.582	0.92
396.711	6.92
396.839	4.92
396.967	-8.08
397.095	-6.08
397.223	18.92
397.351	16.92
397.479	11.92
397.607	4.92
397.735	18.92
397.863	18.92
397.991	16.92
398.119	-2.08
398.247	-19.08
398.375	-12.08
398.503	-8.08
398.631	9.92
398.759	13.92
398.887	10.92
399.015	-7.08
399.143	-10.08
399.271	-6.08
399.399	16.92
399.526	13.92
399.654	21.92
399.782	-6.08
399.91	15.92
400.038	17.92
400.166	3.92
400.294	-3.08
400.422	-3.08
400.55	15.92
400.678	-11.08
400.805	6.92
400.933	-7.08
401.061	10.92
401.189	16.92
401.317	23.92
401.445	27.92
401.573	22.92
401.7	13.92
401.828	-6.08
401.956	17.92
402.084	18.92
402.212	9.92
402.34	-6.08
402.467	22.92
402.595	-0.08
402.723	3.92
402.851	33.92
402.978	1.92
403.106	38.92
403.234	0.92
403.362	6.92
403.489	28.92
403.617	5.92
403.745	-2.08
403.873	3.92
404	3.92
404.128	-7.08
404.256	1.92
404.384	27.92
404.511	18.92
404.639	3.92
404.767	3.92
404.894	-1.08
405.022	-6.08
405.15	10.92
405.277	-2.08
405.405	4.92
405.533	-0.08
405.66	-18.08
405.788	-15.08
405.916	-27.08
406.043	-21.08
406.171	-11.08
406.299	0.92
406.426	-4.08
406.554	-0.08
406.681	22.92
406.809	10.92
406.937	8.92
407.064	14.92
407.192	15.92
407.319	-14.08
407.447	1.92
407.574	21.92
407.702	-0.08
407.83	-11.08
407.957	-14.08
408.085	18.92
408.212	10.92
408.34	7.92
408.467	0.92
408.595	4.92
408.722	23.92
408.85	-3.08
408.977	-14.08
409.105	12.92
409.232	2.92
409.36	13.92
409.487	4.92
409.615	13.92
409.742	26.92
409.87	16.92
409.997	37.92
410.125	29.92
410.252	44.92
410.379	48.92
410.507	23.92
410.634	18.92
410.762	8.92
410.889	11.92
411.017	10.92
411.144	8.92
411.271	-6.08
411.399	4.92
411.526	9.92
411.653	-6.08
411.781	21.92
411.908	17.92
412.036	-6.08
412.163	21.92
412.29	0.92
412.418	-0.08
412.545	-1.08
412.672	-2.08
412.8	3.92
412.927	15.92
413.054	16.92
413.182	2.92
413.309	-11.08
413.436	-19.08
413.564	3.92
413.691	10.92
413.818	35.92
413.945	-6.08
414.073	-10.08
414.2	18.92
414.327	13.92
414.454	16.92
414.582	0.92
414.709	-11.08
414.836	-1.08
414.963	-16.08
415.091	-2.08
415.218	5.92
415.345	-2.08
415.472	-2.08
415.6	-5.08
415.727	7.92
415.854	-0.08
415.981	-9.08
416.108	5.92
416.236	7.92
416.363	5.92
416.49	-5.08
416.617	-4.08
416.744	25.92
416.871	9.92
416.998	-4.08
417.126	5.92
417.253	1.92
417.38	-2.08
417.507	-6.08
417.634	-9.08
417.761	25.92
417.888	31.92
418.015	-10.08
418.143	-2.08
418.27	16.92
418.397	5.92
418.524	10.92
418.651	-14.08
418.778	23.92
418.905	15.92
419.032	12.92
419.159	8.92
419.286	19.92
419.413	1.92
419.54	3.92
419.667	-12.08
419.794	-12.08
419.921	15.92
420.048	10.92
420.175	5.92
420.302	4.92
420.429	10.92
420.556	6.92
420.683	-9.08
420.81	-11.08
420.937	8.92
421.064	18.92
421.191	10.92
421.318	25.92
421.445	31.92
421.572	-1.08
421.699	16.92
421.826	3.92
421.953	-3.08
422.08	5.92
422.207	-11.08
422.334	-11.08
422.461	19.92
422.588	1.92
422.714	22.92
422.841	11.92
422.968	23.92
423.095	6.92
423.222	-9.08
423.349	16.92
423.476	3.92
423.603	-8.08
423.729	-9.08
423.856	15.92
423.983	13.92
424.11	-12.08
424.237	1.92
424.364	9.92
424.491	11.92
424.617	7.92
424.744	-6.08
424.871	14.92
424.998	-18.08
425.125	-5.08
425.251	-1.08
425.378	-8.08
425.505	-8.08
425.632	12.92
425.758	-14.08
425.885	9.92
426.012	6.92
426.139	24.92
426.266	6.92
426.392	9.92
426.519	13.92
426.646	7.92
426.772	11.92
426.899	19.92
427.026	14.92
427.153	3.92
427.279	-9.08
427.406	9.92
427.533	15.92
427.659	-2.08
427.786	7.92
427.913	28.92
428.039	1.92
428.166	-0.08
428.293	5.92
428.419	14.92
428.546	12.92
428.673	-8.08
428.799	-25.08
428.926	-5.08
429.053	37.92
429.179	21.92
429.306	12.92
429.433	35.92
429.559	4.92
429.686	-10.08
429.812	-3.08
429.939	-2.08
430.066	-12.08
430.192	1.92
430.319	9.92
430.445	-14.08
430.572	9.92
430.699	-1.08
430.825	-8.08
430.952	7.92
431.078	8.92
431.205	19.92
431.331	8.92
431.458	11.92
431.584	17.92
431.711	7.92
431.837	14.92
431.964	1.92
432.09	12.92
432.217	-3.08
432.343	15.92
432.47	21.92
432.596	4.92
432.723	10.92
432.849	-5.08
432.976	4.92
433.102	-9.08
433.229	4.92
433.355	39.92
433.482	68.92
433.608	142.92
433.735	140.92
433.861	119.92
433.987	137.92
434.114	215.92
434.24	187.92
434.367	55.92
434.493	1.92
434.62	9.92
434.746	11.92
434.872	14.92
434.999	6.92
435.125	-0.08
435.252	1.92
435.378	21.92
435.504	-6.08
435.631	7.92
435.757	3.92
435.883	29.92
436.01	18.92
436.136	18.92
436.262	15.92
436.389	5.92
436.515	6.92
436.641	-7.08
436.768	17.92
436.894	17.92
437.02	0.92
437.147	16.92
437.273	7.92
437.399	5.92
437.526	14.92
437.652	0.92
437.778	14.92
437.904	-35.08
438.031	-6.08
438.157	3.92
438.283	23.92
438.409	-3.08
438.536	-11.08
438.662	17.92
438.788	18.92
438.914	11.92
439.041	16.92
439.167	25.92
439.293	15.92
439.419	7.92
439.546	7.92
439.672	-0.08
439.798	28.92
439.924	2.92
440.05	23.92
440.177	24.92
440.303	6.92
440.429	14.92
440.555	12.92
440.681	-12.08
440.807	9.92
440.934	1.92
441.06	15.92
441.186	9.92
441.312	2.92
441.438	21.92
441.564	11.92
441.69	18.92
441.816	8.92
441.943	-8.08
442.069	5.92
442.195	16.92
442.321	19.92
442.447	6.92
442.573	-11.08
442.699	-11.08
442.825	-4.08
442.951	13.92
443.077	21.92
443.203	12.92
443.33	5.92
443.456	-29.08
443.582	-4.08
443.708	-3.08
443.834	24.92
443.96	4.92
444.086	12.92
444.212	23.92
444.338	19.92
444.464	25.92
444.59	33.92
444.716	22.92
444.842	16.92
444.968	-3.08
445.094	-14.08
445.22	-6.08
445.346	-6.08
445.472	16.92
445.598	20.92
445.724	5.92
445.85	-5.08
445.976	24.92
446.102	31.92
446.228	21.92
446.354	7.92
446.48	1.92
446.605	16.92
446.731	3.92
446.857	3.92
446.983	-4.08
447.109	-10.08
447.235	-10.08
447.361	-7.08
447.487	10.92
447.613	1.92
447.739	1.92
447.865	2.92
447.99	6.92
448.116	-0.08
448.242	-6.08
448.368	2.92
448.494	-15.08
448.62	13.92
448.746	0.92
448.872	5.92
448.997	11.92
449.123	13.92
449.249	27.92
449.375	26.92
449.501	-5.08
449.627	-11.08
449.752	31.92
449.878	8.92
450.004	13.92
450.13	4.92
450.256	9.92
450.381	15.92
450.507	18.92
450.633	10.92
450.759	20.92
450.884	-5.08
451.01	7.92
451.136	9.92
451.262	10.92
451.388	21.92
451.513	-9.08
451.639	1.92
451.765	3.92
451.89	2.92
452.016	18.92
452.142	-5.08
452.268	-3.08
452.393	1.92
452.519	-3.08
452.645	8.92
452.771	4.92
452.896	-11.08
453.022	-3.08
453.148	33.92
453.273	15.92
453.399	12.92
453.525	9.92
453.65	1.92
453.776	5.92
453.902	8.92
454.027	21.92
454.153	11.92
454.279	19.92
454.404	14.92
454.53	23.92
454.656	41.92
454.781	1.92
454.907	5.92
455.032	-4.08
455.158	27.92
455.284	24.92
455.409	3.92
455.535	21.92
455.66	18.92
455.786	26.92
455.912	8.92
456.037	-7.08
456.163	4.92
456.288	18.92
456.414	-12.08
456.539	-16.08
456.665	23.92
456.791	1.92
456.916	11.92
457.042	20.92
457.167	-2.08
457.293	-2.08
457.418	15.92
457.544	4.92
457.669	16.92
457.795	8.92
457.92	3.92
458.046	2.92
458.171	-2.08
458.297	5.92
458.422	-11.08
458.548	-12.08
458.673	6.92
458.799	4.92
458.924	-1.08
459.05	15.92
459.175	7.92
459.301	5.92
459.426	16.92
459.552	2.92
459.677	11.92
459.803	21.92
459.928	15.92
460.053	4.92
460.179	5.92
460.304	29.92
460.43	1.92
460.555	7.92
460.681	1.92
460.806	21.92
460.931	11.92
461.057	15.92
461.182	-5.08
461.308	19.92
461.433	16.92
461.558	-8.08
461.684	15.92
461.809	1.92
461.934	4.92
462.06	15.92
462.185	-1.08
462.311	11.92
462.436	24.92
462.561	23.92
462.687	-4.08
462.812	-2.08
462.937	3.92
463.063	0.92
463.188	-3.08
463.313	7.92
463.439	5.92
463.564	5.92
463.689	-2.08
463.814	-10.08
463.94	15.92
464.065	3.92
464.19	-1.08
464.316	-15.08
464.441	5.92
464.566	-11.08
464.692	-2.08
464.817	3.92
464.942	4.92
465.067	4.92
465.193	-6.08
465.318	-6.08
465.443	0.92
465.568	-6.08
465.694	1.92
465.819	11.92
465.944	1.92
466.069	15.92
466.194	22.92
466.32	14.92
466.445	16.92
466.57	7.92
466.695	-13.08
466.82	-11.08
466.946	13.92
467.071	-0.08
467.196	-7.08
467.321	-17.08
467.446	-3.08
467.572	20.92
467.697	-11.08
467.822	2.92
467.947	18.92
468.072	7.92
468.197	-15.08
468.323	4.92
468.448	3.92
468.573	13.92
468.698	-14.08
468.823	12.92
468.948	3.92
469.073	0.92
469.198	7.92
469.324	9.92
469.449	-9.08
469.574	12.92
469.699	13.92
469.824	5.92
469.949	13.92
470.074	20.92
470.199	43.92
470.324	19.92
470.449	21.92
470.574	-1.08
470.7	11.92
470.825	22.92
470.95	27.92
471.075	11.92
471.2	34.92
471.325	12.92
471.45	24.92
471.575	1.92
471.7	6.92
471.825	6.92
471.95	12.92
472.075	5.92
472.2	-10.08
472.325	-3.08
472.45	0.92
472.575	1.92
472.7	2.92
472.825	19.92
472.95	-2.08
473.075	18.92
473.2	-4.08
473.325	-8.08
473.45	7.92
473.575	3.92
473.7	6.92
473.825	7.92
473.95	6.92
474.075	17.92
474.2	7.92
474.325	20.92
474.45	37.92
474.574	10.92
474.699	20.92
474.824	19.92
474.949	-4.08
475.074	7.92
475.199	17.92
475.324	24.92
475.449	2.92
475.574	12.92
475.699	7.92
475.824	-5.08
475.949	10.92
476.073	0.92
476.198	7.92
476.323	20.92
476.448	13.92
476.573	3.92
476.698	28.92
476.823	25.92
476.947	1.92
477.072	19.92
477.197	3.92
477.322	0.92
477.447	12.92
477.572	32.92
477.697	-3.08
477.821	-3.08
477.946	-1.08
478.071	13.92
478.196	17.92
478.321	11.92
478.445	5.92
478.57	-1.08
478.695	0.92
478.82	-0.08
478.945	9.92
479.069	2.92
479.194	4.92
479.319	29.92
479.444	19.92
479.569	-3.08
479.693	6.92
479.818	-6.08
479.943	25.92
480.068	24.92
480.192	5.92
480.317	5.92
480.442	10.92
480.567	11.92
480.691	11.92
480.816	13.92
480.941	12.92
481.066	32.92
481.19	24.92
481.315	-4.08
481.44	13.92
481.564	-0.08
481.689	20.92
481.814	14.92
481.938	12.92
482.063	7.92
482.188	9.92
482.313	14.92
482.437	3.92
482.562	23.92
482.687	19.92
482.811	17.92
482.936	14.92
483.061	19.92
483.185	27.92
483.31	42.92
483.435	7.92
483.559	-0.08
483.684	6.92
483.808	28.92
483.933	8.92
484.058	14.92
484.182	20.92
484.307	11.92
484.432	17.92
484.556	12.92
484.681	15.92
484.805	15.92
484.93	14.92
485.055	27.92
485.179	63.92
485.304	114.92
485.428	352.92
485.553	1242.92
485.678	1711.92
485.802	1580.92
485.927	1802.92
486.051	2648.92
486.176	1627.92
486.3	437.92
486.425	137.92
486.549	77.92
486.674	54.92
486.799	29.92
486.923	10.92
487.048	19.92
487.172	22.92
487.297	26.92
487.421	39.92
487.546	20.92
487.67	33.92
487.795	-7.08
487.919	7.92
488.044	28.92
488.168	14.92
488.293	16.92
488.417	-2.08
488.542	22.92
488.666	17.92
488.791	10.92
488.915	10.92
489.04	19.92
489.164	3.92
489.289	17.92
489.413	27.92
489.538	32.92
489.662	12.92
489.786	5.92
489.911	15.92
490.035	7.92
490.16	16.92
490.284	-5.08
490.409	6.92
490.533	-1.08
490.658	16.92
490.782	-0.08
490.906	3.92
491.031	14.92
491.155	15.92
491.28	13.92
491.404	5.92
491.528	28.92
491.653	-1.08
491.777	15.92
491.902	13.92
492.026	7.92
492.15	10.92
492.275	31.92
492.399	26.92
492.524	5.92
492.648	25.92
492.772	23.92
492.897	50.92
493.021	19.92
493.145	40.92
493.27	15.92
493.394	-3.08
493.518	8.92
493.643	-9.08
493.767	24.92
493.891	2.92
494.016	21.92
494.14	13.92
494.264	30.92
494.389	8.92
494.513	-3.08
494.637	-15.08
494.762	6.92
494.886	32.92
495.01	23.92
495.134	30.92
495.259	26.92
495.383	7.92
495.507	-6.08
495.632	41.92
495.756	48.92
495.88	17.92
496.004	27.92
496.129	2.92
496.253	17.92
496.377	8.92
496.501	14.92
496.626	-5.08
496.75	8.92
496.874	13.92
496.998	6.92
497.123	22.92
497.247	-1.08
497.371	7.92
497.495	-4.08
497.62	14.92
497.744	-23.08
497.868	-9.08
497.992	9.92
498.116	6.92
498.241	20.92
498.365	3.92
498.489	6.92
498.613	14.92
498.737	-0.08
498.862	11.92
498.986	0.92
499.11	-6.08
499.234	7.92
499.358	-4.08
499.482	14.92
499.607	6.92
499.731	6.92
499.855	16.92
499.979	20.92
500.103	15.92
500.227	-1.08
500.351	6.92
500.476	1.92
500.6	-7.08
500.724	13.92
500.848	7.92
500.972	-6.08
501.096	13.92
501.22	26.92
501.344	9.92
501.469	22.92
501.593	13.92
501.717	0.92
501.841	6.92
501.965	3.92
502.089	-0.08
502.213	24.92
502.337	10.92
502.461	0.92
502.585	-2.08
502.709	-4.08
502.834	-6.08
502.958	4.92
503.082	8.92
503.206	21.92
503.33	39.92
503.454	37.92
503.578	18.92
503.702	17.92
503.826	10.92
503.95	28.92
504.074	-0.08
504.198	-1.08
504.322	-6.08
504.446	-7.08
504.57	7.92
504.694	23.92
504.818	18.92
504.942	26.92
505.066	4.92
505.19	-6.08
505.314	20.92
505.438	16.92
505.562	-2.08
505.686	16.92
505.81	12.92
505.934	15.92
506.058	2.92
506.182	7.92
506.306	11.92
506.43	-5.08
506.554	9.92
506.678	1.92
506.802	14.92
506.926	21.92
507.05	24.92
507.174	15.92
507.298	15.92
507.422	0.92
507.546	23.92
507.67	21.92
507.794	0.92
507.918	7.92
508.042	7.92
508.165	4.92
508.289	2.92
508.413	2.92
508.537	-13.08
508.661	-10.08
508.785	11.92
508.909	11.92
509.033	1.92
509.157	6.92
509.281	-3.08
509.405	10.92
509.528	9.92
509.652	5.92
509.776	4.92
509.9	13.92
510.024	1.92
510.148	9.92
510.272	13.92
510.396	7.92
510.519	-0.08
510.643	0.92
510.767	10.92
510.891	13.92
511.015	-6.08
511.139	16.92
511.263	39.92
511.386	5.92
511.51	14.92
511.634	8.92
511.758	4.92
511.882	8.92
512.006	20.92
512.129	3.92
512.253	37.92
512.377	5.92
512.501	22.92
512.625	25.92
512.748	4.92
512.872	3.92
512.996	6.92
513.12	-2.08
513.244	3.92
513.367	18.92
513.491	23.92
513.615	24.92
513.739	16.92
513.862	-4.08
513.986	6.92
514.11	10.92
514.234	8.92
514.358	7.92
514.481	15.92
514.605	-2.08
514.729	25.92
514.853	21.92
514.976	-2.08
515.1	9.92
515.224	7.92
515.348	-0.08
515.471	5.92
515.595	1.92
515.719	-0.08
515.842	13.92
515.966	7.92
516.09	29.92
516.214	8.92
516.337	37.92
516.461	34.92
516.585	31.92
516.708	20.92
516.832	13.92
516.956	-1.08
517.08	6.92
517.203	4.92
517.327	16.92
517.451	20.92
517.574	18.92
517.698	9.92
517.822	5.92
517.945	30.92
518.069	38.92
518.193	35.92
518.316	13.92
518.44	26.92
518.564	13.92
518.687	17.92
518.811	35.92
518.935	47.92
519.058	9.92
519.182	14.92
519.306	31.92
519.429	18.92
519.553	41.92
519.676	44.92
519.8	22.92
519.924	12.92
520.047	16.92
520.171	0.92
520.294	7.92
520.418	18.92
520.542	-7.08
520.665	26.92
520.789	7.92
520.913	7.92
521.036	9.92
521.16	-4.08
521.283	7.92
521.407	-0.08
521.53	12.92
521.654	-2.08
521.778	35.92
521.901	18.92
522.025	-1.08
522.148	-18.08
522.272	41.92
522.395	5.92
522.519	13.92
522.643	-13.08
522.766	5.92
522.89	-15.08
523.013	6.92
523.137	2.92
523.26	14.92
523.384	19.92
523.507	8.92
523.631	-7.08
523.754	1.92
523.878	4.92
524.002	9.92
524.125	5.92
524.249	-8.08
524.372	22.92
524.496	5.92
524.619	14.92
524.743	5.92
524.866	11.92
524.99	9.92
525.113	-6.08
525.237	27.92
525.36	9.92
525.484	7.92
525.607	-12.08
525.731	-18.08
525.854	10.92
525.978	22.92
526.101	-9.08
526.224	-9.08
526.348	7.92
526.471	12.92
526.595	8.92
526.718	-9.08
526.842	-2.08
526.965	13.92
527.089	-2.08
527.212	11.92
527.336	5.92
527.459	-2.08
527.582	20.92
527.706	20.92
527.829	4.92
527.953	2.92
528.076	-18.08
528.2	-2.08
528.323	20.92
528.446	25.92
528.57	11.92
528.693	10.92
528.817	11.92
528.94	-0.08
529.064	47.92
529.187	14.92
529.31	1.92
529.434	10.92
529.557	-0.08
529.68	1.92
529.804	11.92
529.927	20.92
530.051	0.92
530.174	-7.08
530.297	3.92
530.421	19.92
530.544	27.92
530.668	4.92
530.791	5.92
530.914	22.92
531.038	-5.08
531.161	-0.08
531.284	-10.08
531.408	15.92
531.531	14.92
531.654	-13.08
531.778	5.92
531.901	-9.08
532.024	27.92
532.148	-6.08
532.271	7.92
532.394	11.92
532.518	30.92
532.641	17.92
532.764	33.92
532.888	2.92
533.011	-8.08
533.134	-0.08
533.258	19.92
533.381	-17.08
533.504	16.92
533.628	10.92
533.751	23.92
533.874	-0.08
533.997	2.92
534.121	4.92
534.244	-18.08
534.367	-1.08
534.491	12.92
534.614	14.92
534.737	-0.08
534.86	7.92
534.984	1.92
535.107	6.92
535.23	13.92
535.354	15.92
535.477	-0.08
535.6	3.92
535.723	15.92
535.847	0.92
535.97	-15.08
536.093	7.92
536.216	10.92
536.34	7.92
536.463	-7.08
536.586	29.92
536.709	6.92
536.833	3.92
536.956	3.92
537.079	-12.08
537.202	11.92
537.325	-17.08
537.449	-15.08
537.572	21.92
537.695	16.92
537.818	10.92
537.941	5.92
538.065	4.92
538.188	11.92
538.311	25.92
538.434	32.92
538.558	8.92
538.681	0.92
538.804	8.92
538.927	13.92
539.05	7.92
539.173	3.92
539.297	-4.08
539.42	26.92
539.543	6.92
539.666	23.92
539.789	15.92
539.913	12.92
540.036	-2.08
540.159	-0.08
540.282	-15.08
540.405	-1.08
540.528	-8.08
540.651	8.92
540.775	-10.08
540.898	3.92
541.021	0.92
541.144	9.92
541.267	2.92
541.39	-1.08
541.513	10.92
541.637	7.92
541.76	-5.08
541.883	0.92
542.006	14.92
542.129	6.92
542.252	-13.08
542.375	-5.08
542.498	-1.08
542.622	11.92
542.745	14.92
542.868	12.92
542.991	15.92
543.114	22.92
543.237	8.92
543.36	16.92
543.483	9.92
543.606	1.92
543.73	17.92
543.853	5.92
543.976	5.92
544.099	1.92
544.222	12.92
544.345	10.92
544.468	11.92
544.591	18.92
544.714	14.92
544.837	36.92
544.96	22.92
545.083	24.92
545.206	15.92
545.329	20.92
545.453	8.92
545.576	-7.08
545.699	13.92
545.822	11.92
545.945	23.92
546.068	2.92
546.191	21.92
546.314	9.92
546.437	9.92
546.56	7.92
546.683	9.92
546.806	21.92
546.929	9.92
547.052	-2.08
547.175	-7.08
547.298	19.92
547.421	1.92
547.544	-5.08
547.667	13.92
547.79	11.92
547.913	-0.08
548.036	-10.08
548.159	7.92
548.282	2.92
548.405	10.92
548.528	26.92
548.651	0.92
548.774	3.92
548.897	14.92
549.02	13.92
549.143	40.92
549.266	-2.08
549.389	12.92
549.512	13.92
549.635	25.92
549.758	21.92
549.881	3.92
550.004	15.92
550.127	12.92
550.25	1.92
550.373	6.92
550.496	8.92
550.619	-2.08
550.742	8.92
550.865	-18.08
550.988	-1.08
551.111	11.92
551.234	-1.08
551.356	-29.08
551.479	4.92
551.602	2.92
551.725	4.92
551.848	12.92
551.971	33.92
552.094	7.92
552.217	-5.08
552.34	7.92
552.463	2.92
552.586	15.92
552.709	3.92
552.832	6.92
552.955	2.92
553.077	23.92
553.2	22.92
553.323	1.92
553.446	5.92
553.569	-14.08
553.692	2.92
553.815	7.92
553.938	3.92
554.061	11.92
554.184	2.92
554.306	9.92
554.429	8.92
554.552	7.92
554.675	4.92
554.798	14.92
554.921	10.92
555.044	7.92
555.167	-1.08
555.29	5.92
555.412	7.92
555.535	12.92
555.658	5.92
555.781	4.92
555.904	4.92
556.027	3.92
556.15	24.92
556.272	8.92
556.395	6.92
556.518	-10.08
556.641	-3.08
556.764	7.92
556.887	13.92
557.01	-2.08
557.132	-19.08
557.255	-6.08
557.378	14.92
557.501	-10.08
557.624	17.92
557.747	26.92
557.869	-4.08
557.992	18.92
558.115	0.92
558.238	-2.08
558.361	-14.08
558.483	24.92
558.606	14.92
558.729	-2.08
558.852	27.92
558.975	23.92
559.098	25.92
559.22	17.92
559.343	9.92
559.466	4.92
559.589	0.92
559.712	24.92
559.834	19.92
559.957	6.92
560.08	13.92
560.203	20.92
560.325	23.92
560.448	13.92
560.571	-1.08
560.694	-0.08
560.817	29.92
560.939	10.92
561.062	-6.08
561.185	5.92
561.308	-2.08
561.43	-14.08
561.553	1.92
561.676	2.92
561.799	12.92
561.921	4.92
562.044	6.92
562.167	5.92
562.29	16.92
562.413	28.92
562.535	11.92
562.658	-6.08
562.781	-9.08
562.903	17.92
563.026	-0.08
563.149	26.92
563.272	13.92
563.394	-1.08
563.517	6.92
563.64	-16.08
563.763	18.92
563.885	28.92
564.008	19.92
564.131	22.92
564.254	-1.08
564.376	-2.08
564.499	-4.08
564.622	-9.08
564.744	-6.08
564.867	1.92
564.99	3.92
565.113	-0.08
565.235	13.92
565.358	-14.08
565.481	-8.08
565.603	-11.08
565.726	-11.08
565.849	17.92
565.971	6.92
566.094	-1.08
566.217	-0.08
566.34	3.92
566.462	22.92
566.585	8.92
566.708	30.92
566.83	9.92
566.953	16.92
567.076	-5.08
567.198	-4.08
567.321	-21.08
567.444	7.92
567.566	5.92
567.689	0.92
567.812	4.92
567.934	6.92
568.057	-7.08
568.18	20.92
568.302	-7.08
568.425	-17.08
568.548	11.92
568.67	2.92
568.793	15.92
568.916	20.92
569.038	13.92
569.161	1.92
569.283	11.92
569.406	6.92
569.529	4.92
569.651	-9.08
569.774	-15.08
569.897	-4.08
570.019	15.92
570.142	17.92
570.265	7.92
570.387	-0.08
570.51	2.92
570.632	14.92
570.755	18.92
570.878	3.92
571	12.92
571.123	-7.08
571.246	-0.08
571.368	-0.08
571.491	5.92
571.613	-6.08
571.736	-8.08
571.859	13.92
571.981	0.92
572.104	-1.08
572.226	-6.08
572.349	-14.08
572.472	3.92
572.594	-4.08
572.717	0.92
572.839	-9.08
572.962	4.92
573.085	7.92
573.207	13.92
573.33	4.92
573.452	24.92
573.575	24.92
573.697	22.92
573.82	16.92
573.943	6.92
574.065	16.92
574.188	11.92
574.31	23.92
574.433	27.92
574.555	45.92
574.678	20.92
574.801	11.92
574.923	-14.08
575.046	9.92
575.168	-14.08
575.291	-2.08
575.413	8.92
575.536	10.92
575.659	19.92
575.781	3.92
575.904	-4.08
576.026	20.92
576.149	4.92
576.271	7.92
576.394	20.92
576.516	10.92
576.639	12.92
576.761	-17.08
576.884	-9.08
577.007	9.92
577.129	17.92
577.252	7.92
577.374	36.92
577.497	6.92
577.619	8.92
577.742	7.92
577.864	15.92
577.987	3.92
578.109	31.92
578.232	15.92
578.354	31.92
578.477	-7.08
578.599	4.92
578.722	-12.08
578.844	15.92
578.967	3.92
579.089	-0.08
579.212	-11.08
579.334	19.92
579.457	-11.08
579.579	3.92
579.702	-10.08
579.824	6.92
579.947	3.92
580.069	-8.08
580.192	4.92
580.314	15.92
580.437	-3.08
580.559	26.92
580.682	-0.08
580.804	4.92
580.927	11.92
581.049	18.92
581.172	17.92
581.294	10.92
581.417	25.92
581.539	-1.08
581.662	7.92
581.784	5.92
581.907	19.92
582.029	11.92
582.152	4.92
582.274	24.92
582.396	20.92
582.519	4.92
582.641	-16.08
582.764	1.92
582.886	17.92
583.009	-3.08
583.131	-3.08
583.254	20.92
583.376	28.92
583.499	19.92
583.621	-18.08
583.743	5.92
583.866	16.92
583.988	-0.08
584.111	10.92
584.233	12.92
584.356	7.92
584.478	-4.08
584.601	-17.08
584.723	-7.08
584.845	25.92
584.968	-4.08
585.09	-16.08
585.213	28.92
585.335	-6.08
585.458	1.92
585.58	1.92
585.702	3.92
585.825	23.92
585.947	7.92
586.07	7.92
586.192	-7.08
586.315	-4.08
586.437	-10.08
586.559	17.92
586.682	5.92
586.804	29.92
586.927	4.92
587.049	-8.08
587.171	23.92
587.294	11.92
587.416	16.92
587.539	13.92
587.661	-9.08
587.783	6.92
587.906	9.92
588.028	13.92
588.151	15.92
588.273	-0.08
588.395	-3.08
588.518	-3.08
588.64	-0.08
588.763	28.92
588.885	20.92
589.007	16.92
589.13	-0.08
589.252	-19.08
589.375	1.92
589.497	12.92
589.619	3.92
589.742	21.92
589.864	2.92
589.986	-2.08
590.109	-8.08
590.231	-2.08
590.354	12.92
590.476	-19.08
590.598	-4.08
590.721	-3.08
590.843	15.92
590.965	4.92
591.088	15.92
591.21	17.92
591.332	12.92
591.455	-4.08
591.577	12.92
591.7	18.92
591.822	9.92
591.944	6.92
592.067	-2.08
592.189	2.92
592.311	18.92
592.434	3.92
592.556	22.92
592.678	6.92
592.801	13.92
592.923	-6.08
593.045	1.92
593.168	5.92
593.29	19.92
593.412	5.92
593.535	6.92
593.657	8.92
593.779	12.92
593.902	20.92
594.024	11.92
594.146	20.92
594.269	20.92
594.391	-10.08
594.513	-3.08
594.636	-3.08
594.758	-7.08
594.88	18.92
595.003	26.92
595.125	1.92
595.247	33.92
595.37	17.92
595.492	-3.08
595.614	28.92
595.737	-15.08
595.859	-0.08
595.981	13.92
596.104	6.92
596.226	7.92
596.348	0.92
596.471	6.92
596.593	0.92
596.715	-0.08
596.838	-5.08
596.96	1.92
597.082	8.92
597.204	6.92
597.327	11.92
597.449	4.92
597.571	10.92
597.694	29.92
597.816	2.92
597.938	2.92
598.061	-6.08
598.183	-11.08
598.305	13.92
598.427	-9.08
598.55	13.92
598.672	22.92
598.794	18.92
598.917	3.92
599.039	-0.08
599.161	7.92
599.283	4.92
599.406	19.92
599.528	24.92
599.65	48.92
599.773	14.92
599.895	17.92
600.017	22.92
600.139	6.92
600.262	13.92
600.384	3.92
600.506	-0.08
600.628	18.92
600.751	15.92
600.873	-7.08
600.995	13.92
601.118	32.92
601.24	0.92
601.362	21.92
601.484	29.92
601.607	32.92
601.729	1.92
601.851	-0.08
601.973	14.92
602.096	15.92
602.218	9.92
602.34	17.92
602.462	6.92
602.585	6.92
602.707	-7.08
602.829	11.92
602.951	12.92
603.074	2.92
603.196	2.92
603.318	10.92
603.44	12.92
603.563	13.92
603.685	-17.08
603.807	19.92
603.929	20.92
604.052	20.92
604.174	22.92
604.296	11.92
604.418	22.92
604.541	33.92
604.663	0.92
604.785	5.92
604.907	20.92
605.03	-2.08
605.152	40.92
605.274	3.92
605.396	-2.08
605.519	-1.08
605.641	0.92
605.763	-2.08
605.885	19.92
606.008	20.92
606.13	9.92
606.252	32.92
606.374	-3.08
606.496	-18.08
606.619	16.92
606.741	11.92
606.863	27.92
606.985	20.92
607.108	20.92
607.23	2.92
607.352	31.92
607.474	10.92
607.596	11.92
607.719	9.92
607.841	26.92
607.963	17.92
608.085	3.92
608.207	22.92
608.33	14.92
608.452	0.92
608.574	2.92
608.696	7.92
608.819	10.92
608.941	25.92
609.063	13.92
609.185	7.92
609.307	4.92
609.43	-1.08
609.552	1.92
609.674	0.92
609.796	1.92
609.918	3.92
610.041	-0.08
610.163	11.92
610.285	11.92
610.407	12.92
610.529	-0.08
610.652	20.92
610.774	10.92
610.896	-0.08
611.018	19.92
611.14	13.92
611.263	1.92
611.385	-11.08
611.507	19.92
611.629	-0.08
611.751	-2.08
611.873	28.92
611.996	6.92
612.118	11.92
612.24	23.92
612.362	13.92
612.484	19.92
612.607	7.92
612.729	23.92
612.851	10.92
612.973	-1.08
613.095	-2.08
613.218	-0.08
613.34	2.92
613.462	8.92
613.584	16.92
613.706	15.92
613.828	34.92
613.951	9.92
614.073	13.92
614.195	8.92
614.317	21.92
614.439	19.92
614.561	10.92
614.684	-2.08
614.806	6.92
614.928	17.92
615.05	2.92
615.172	11.92
615.294	12.92
615.417	5.92
615.539	-5.08
615.661	31.92
615.783	28.92
615.905	35.92
616.027	54.92
616.15	103.92
616.272	68.92
616.394	46.92
616.516	12.92
616.638	25.92
616.76	-6.08
616.883	-1.08
617.005	3.92
617.127	-0.08
617.249	4.92
617.371	3.92
617.493	0.92
617.615	14.92
617.738	7.92
617.86	24.92
617.982	10.92
618.104	-5.08
618.226	-9.08
618.348	-10.08
618.471	5.92
618.593	21.92
618.715	4.92
618.837	8.92
618.959	13.92
619.081	10.92
619.203	3.92
619.326	8.92
619.448	4.92
619.57	7.92
619.692	19.92
619.814	14.92
619.936	4.92
620.058	0.92
620.181	9.92
620.303	-2.08
620.425	24.92
620.547	-9.08
620.669	11.92
620.791	4.92
620.913	-7.08
621.036	-13.08
621.158	11.92
621.28	25.92
621.402	3.92
621.524	1.92
621.646	10.92
621.768	-4.08
621.891	-11.08
622.013	4.92
622.135	5.92
622.257	-1.08
622.379	-1.08
622.501	1.92
622.623	3.92
622.745	-3.08
622.868	4.92
622.99	13.92
623.112	-4.08
623.234	-2.08
623.356	13.92
623.478	-4.08
623.6	14.92
623.722	6.92
623.845	10.92
623.967	4.92
624.089	10.92
624.211	-6.08
624.333	8.92
624.455	18.92
624.577	10.92
624.699	11.92
624.822	0.92
624.944	0.92
625.066	21.92
625.188	-14.08
625.31	-4.08
625.432	34.92
625.554	5.92
625.676	11.92
625.799	-0.08
625.921	2.92
626.043	6.92
626.165	3.92
626.287	-22.08
626.409	24.92
626.531	4.92
626.653	-9.08
626.775	-0.08
626.898	11.92
627.02	-0.08
627.142	14.92
627.264	2.92
627.386	-0.08
627.508	6.92
627.63	-10.08
627.752	15.92
627.874	4.92
627.997	13.92
628.119	15.92
628.241	17.92
628.363	36.92
628.485	13.92
628.607	13.92
628.729	5.92
628.851	-12.08
628.973	-1.08
629.096	-0.08
629.218	-3.08
629.34	12.92
629.462	0.92
629.584	-8.08
629.706	3.92
629.828	23.92
629.95	2.92
630.072	-12.08
630.195	-2.08
630.317	6.92
630.439	2.92
630.561	-8.08
630.683	-8.08
630.805	10.92
630.927	34.92
631.049	18.92
631.171	5.92
631.293	11.92
631.416	8.92
631.538	-6.08
631.66	-6.08
631.782	8.92
631.904	27.92
632.026	-0.08
632.148	11.92
632.27	-1.08
632.392	-2.08
632.514	7.92
632.637	7.92
632.759	-4.08
632.881	-5.08
633.003	-0.08
633.125	3.92
633.247	-1.08
633.369	-6.08
633.491	20.92
633.613	22.92
633.735	-23.08
633.858	11.92
633.98	4.92
634.102	0.92
634.224	-14.08
634.346	12.92
634.468	-8.08
634.59	-11.08
634.712	6.92
634.834	14.92
634.956	-14.08
635.078	-1.08
635.201	-8.08
635.323	2.92
635.445	-10.08
635.567	-24.08
635.689	12.92
635.811	8.92
635.933	17.92
636.055	-0.08
636.177	15.92
636.299	33.92
636.421	-2.08
636.544	-26.08
636.666	0.92
636.788	9.92
636.91	-4.08
637.032	2.92
637.154	17.92
637.276	20.92
637.398	37.92
637.52	4.92
637.642	8.92
637.764	1.92
637.887	17.92
638.009	-0.08
638.131	7.92
638.253	-4.08
638.375	13.92
638.497	1.92
638.619	-18.08
638.741	-4.08
638.863	0.92
638.985	-4.08
639.107	4.92
639.23	-2.08
639.352	8.92
639.474	11.92
639.596	-2.08
639.718	-16.08
639.84	-12.08
639.962	-1.08
640.084	33.92
640.206	18.92
640.328	-2.08
640.45	-3.08
640.573	1.92
640.695	-11.08
640.817	2.92
640.939	6.92
641.061	-0.08
641.183	-1.08
641.305	-3.08
641.427	7.92
641.549	9.92
641.671	5.92
641.793	-2.08
641.915	22.92
642.038	-14.08
642.16	-10.08
642.282	-1.08
642.404	-6.08
642.526	-3.08
642.648	4.92
642.77	-3.08
642.892	0.92
643.014	11.92
643.136	8.92
643.258	-2.08
643.381	23.92
643.503	32.92
643.625	5.92
643.747	1.92
643.869	-7.08
643.991	19.92
644.113	12.92
644.235	-7.08
644.357	2.92
644.479	8.92
644.601	-18.08
644.723	-2.08
644.846	-5.08
644.968	-3.08
645.09	18.92
645.212	0.92
645.334	-10.08
645.456	1.92
645.578	12.92
645.7	13.92
645.822	13.92
645.944	4.92
646.066	7.92
646.188	-7.08
646.311	21.92
646.433	12.92
646.555	30.92
646.677	38.92
646.799	22.92
646.921	28.92
647.043	38.92
647.165	-9.08
647.287	-0.08
647.409	0.92
647.531	15.92
647.654	-1.08
647.776	23.92
647.898	15.92
648.02	2.92
648.142	2.92
648.264	2.92
648.386	-9.08
648.508	-14.08
648.63	-5.08
648.752	9.92
648.874	-3.08
648.997	15.92
649.119	7.92
649.241	-2.08
649.363	26.92
649.485	8.92
649.607	-13.08
649.729	-20.08
649.851	5.92
649.973	-13.08
650.095	7.92
650.217	-9.08
650.34	-9.08
650.462	3.92
650.584	-1.08
650.706	14.92
650.828	9.92
650.95	-16.08
651.072	-3.08
651.194	-10.08
651.316	-2.08
651.438	1.92
651.56	-8.08
651.683	-22.08
651.805	-1.08
651.927	-3.08
652.049	3.92
652.171	9.92
652.293	18.92
652.415	7.92
652.537	-0.08
652.659	-13.08
652.781	8.92
652.903	7.92
653.026	10.92
653.148	15.92
653.27	2.92
653.392	9.92
653.514	-2.08
653.636	13.92
653.758	15.92
653.88	-3.08
654.002	-12.08
654.124	-4.08
654.247	1.92
654.369	28.92
654.491	16.92
654.613	-0.08
654.735	-3.08
654.857	29.92
654.979	16.92
655.101	19.92
655.223	46.92
655.345	6.92
655.468	8.92
655.59	18.92
655.712	16.92
655.834	9.92
655.956	23.92
656.078	11.92
656.2	45.92
656.322	30.92
656.444	7.92
656.566	50.92
656.689	39.92
656.811	40.92
656.933	77.92
657.055	93.92
657.177	148.92
657.299	229.92
657.421	517.92
657.543	1892.92
657.665	12487.92
657.787	15152.92
657.91	15259.92
658.032	15658.92
658.154	4672.92
658.276	3512.92
658.398	1170.92
658.52	1022.92
658.642	468.92
658.764	609.92
658.886	275.92
659.009	404.92
659.131	206.92
659.253	310.92
659.375	168.92
659.497	228.92
659.619	139.92
659.741	182.92
659.863	97.92
659.985	163.92
660.108	96.92
660.23	132.92
660.352	71.92
660.474	145.92
660.596	76.92
660.718	137.92
660.84	54.92
660.962	133.92
661.084	31.92
661.207	112.92
661.329	64.92
661.451	97.92
661.573	53.92
661.695	101.92
661.817	60.92
661.939	98.92
662.061	68.92
662.184	63.92
662.306	24.92
662.428	64.92
662.55	35.92
662.672	68.92
662.794	47.92
662.916	63.92
663.038	21.92
663.161	92.92
663.283	43.92
663.405	56.92
663.527	29.92
663.649	62.92
663.771	38.92
663.893	44.92
664.015	33.92
664.138	35.92
664.26	31.92
664.382	35.92
664.504	-3.08
664.626	21.92
664.748	-0.08
664.87	37.92
664.992	30.92
665.115	35.92
665.237	7.92
665.359	33.92
665.481	24.92
665.603	37.92
665.725	30.92
665.847	35.92
665.97	8.92
666.092	41.92
666.214	24.92
666.336	36.92
666.458	26.92
666.58	35.92
666.702	-5.08
666.825	29.92
666.947	3.92
667.069	33.92
667.191	10.92
667.313	51.92
667.435	16.92
667.557	23.92
667.68	-9.08
667.802	15.92
667.924	3.92
668.046	43.92
668.168	25.92
668.29	35.92
668.412	7.92
668.535	30.92
668.657	23.92
668.779	26.92
668.901	15.92
669.023	36.92
669.145	10.92
669.267	29.92
669.39	12.92
669.512	24.92
669.634	13.92
669.756	15.92
669.878	7.92
670	25.92
670.123	-16.08
670.245	20.92
670.367	17.92
670.489	32.92
670.611	15.92
670.733	2.92
670.856	-0.08
670.978	16.92
671.1	17.92
671.222	28.92
671.344	19.92
671.466	13.92
671.589	-6.08
671.711	8.92
671.833	3.92
671.955	17.92
672.077	-18.08
672.199	44.92
672.322	35.92
672.444	25.92
672.566	15.92
672.688	17.92
672.81	29.92
672.932	21.92
673.055	9.92
673.177	17.92
673.299	18.92
673.421	12.92
673.543	8.92
673.665	26.92
673.788	25.92
673.91	-6.08
674.032	-4.08
674.154	16.92
674.276	19.92
674.399	-2.08
674.521	14.92
674.643	-1.08
674.765	-15.08
674.887	11.92
675.009	0.92
675.132	11.92
675.254	4.92
675.376	24.92
675.498	12.92
675.62	22.92
675.743	-0.08
675.865	13.92
675.987	2.92
676.109	8.92
676.231	14.92
676.354	43.92
676.476	11.92
676.598	36.92
676.72	20.92
676.842	16.92
676.965	11.92
677.087	19.92
677.209	21.92
677.331	18.92
677.453	5.92
677.576	15.92
677.698	13.92
677.82	23.92
677.942	10.92
678.064	1.92
678.187	8.92
678.309	19.92
678.431	3.92
678.553	21.92
678.675	21.92
678.798	13.92
678.92	4.92
679.042	7.92
679.164	-4.08
679.286	23.92
679.409	3.92
679.531	-4.08
679.653	-8.08
679.775	12.92
679.898	-4.08
680.02	-15.08
680.142	-14.08
680.264	7.92
680.386	4.92
680.509	36.92
680.631	7.92
680.753	14.92
680.875	-0.08
680.998	15.92
681.12	-6.08
681.242	19.92
681.364	-14.08
681.486	18.92
681.609	2.92
681.731	-4.08
681.853	6.92
681.975	11.92
682.098	19.92
682.22	35.92
682.342	12.92
682.464	21.92
682.587	0.92
682.709	-9.08
682.831	-6.08
682.953	-11.08
683.076	8.92
683.198	18.92
683.32	17.92
683.442	0.92
683.565	10.92
683.687	23.92
683.809	13.92
683.931	-8.08
684.054	-15.08
684.176	7.92
684.298	3.92
684.42	-0.08
684.543	-4.08
684.665	19.92
684.787	16.92
684.909	3.92
685.032	13.92
685.154	0.92
685.276	5.92
685.398	0.92
685.521	-4.08
685.643	-0.08
685.765	12.92
685.887	23.92
686.01	4.92
686.132	-0.08
686.254	14.92
686.377	12.92
686.499	1.92
686.621	3.92
686.743	-2.08
686.866	14.92
686.988	29.92
687.11	16.92
687.232	-1.08
687.355	-23.08
687.477	1.92
687.599	3.92
687.722	-0.08
687.844	6.92
687.966	1.92
688.088	15.92
688.211	38.92
688.333	18.92
688.455	-0.08
688.578	12.92
688.7	0.92
688.822	5.92
688.944	-4.08
689.067	40.92
689.189	3.92
689.311	-3.08
689.434	-2.08
689.556	4.92
689.678	3.92
689.801	6.92
689.923	6.92
690.045	44.92
690.167	24.92
690.29	15.92
690.412	8.92
690.534	12.92
690.657	-1.08
690.779	12.92
690.901	-0.08
691.024	-1.08
691.146	-7.08
691.268	0.92
691.391	1.92
691.513	15.92
691.635	2.92
691.758	18.92
691.88	18.92
692.002	-0.08
692.125	5.92
692.247	8.92
692.369	-12.08
692.492	7.92
692.614	-7.08
692.736	8.92
692.859	9.92
692.981	14.92
693.103	-1.08
693.226	19.92
693.348	16.92
693.47	8.92
693.593	-5.08
693.715	-23.08
693.837	-19.08
693.96	1.92
694.082	-12.08
694.204	15.92
694.327	13.92
694.449	-7.08
694.571	7.92
694.694	10.92
694.816	8.92
694.938	10.92
695.061	8.92
695.183	-0.08
695.305	4.92
695.428	7.92
695.55	3.92
695.672	-18.08
695.795	14.92
695.917	27.92
696.04	3.92
696.162	-10.08
696.284	-0.08
696.407	-1.08
696.529	2.92
696.651	24.92
696.774	12.92
696.896	17.92
697.019	-0.08
697.141	-2.08
697.263	-0.08
697.386	0.92
697.508	-2.08
697.63	10.92
697.753	21.92
697.875	5.92
697.998	6.92
698.12	16.92
698.242	10.92
698.365	11.92
698.487	10.92
698.61	13.92
698.732	16.92
698.854	17.92
698.977	-9.08
699.099	8.92
699.221	1.92
699.344	3.92
699.466	-3.08
699.589	8.92
699.711	9.92
699.834	15.92
699.956	13.92
700.078	24.92
700.201	-3.08
700.323	23.92
700.446	10.92
700.568	-1.08
700.69	3.92
700.813	14.92
700.935	2.92
701.058	-15.08
701.18	4.92
701.302	-3.08
701.425	4.92
701.547	13.92
701.67	-6.08
701.792	10.92
701.915	-10.08
702.037	3.92
702.159	25.92
702.282	12.92
702.404	0.92
702.527	11.92
702.649	15.92
702.772	0.92
702.894	7.92
703.017	8.92
703.139	8.92
703.261	21.92
703.384	6.92
703.506	-24.08
703.629	-2.08
703.751	20.92
703.874	7.92
703.996	-1.08
704.119	-7.08
704.241	0.92
704.364	-10.08
704.486	23.92
704.608	10.92
704.731	0.92
704.853	16.92
704.976	-13.08
705.098	5.92
705.221	-21.08
705.343	2.92
705.466	21.92
705.588	17.92
705.711	11.92
705.833	-1.08
705.956	5.92
706.078	16.92
706.201	1.92
706.323	-2.08
706.446	12.92
