Data from LowRes_H2_15_26_11_07_2024_HR4C61881__25__15-28-16-137.txt Node

Date: Thu Nov 07 15:28:16 EST 2024
User: crc00042
Spectrometer: HR4C6188
Trigger mode: 4
Integration Time (sec): 1.000000E-1
Scans to average: 1
Electric dark correction enabled: true
Nonlinearity correction enabled: false
Boxcar width: 0
XAxis mode: Wavelengths
Number of Pixels in Spectrum: 3648
>>>>>Begin Spectral Data<<<<<
245.66	-97.31
245.797	-97.31
245.934	-97.31
246.071	-82.31
246.208	6.69
246.344	15.69
246.481	6.69
246.618	-6.31
246.755	11.69
246.892	-21.31
247.029	-12.31
247.165	-17.31
247.302	29.69
247.439	-11.31
247.576	5.69
247.713	-10.31
247.849	18.69
247.986	-9.31
248.123	-9.31
248.26	-8.31
248.396	7.69
248.533	3.69
248.67	3.69
248.806	-2.31
248.943	1.69
249.08	-1.31
249.216	8.69
249.353	-24.31
249.49	-9.31
249.626	16.69
249.763	12.69
249.9	-2.31
250.036	-4.31
250.173	7.69
250.309	-1.31
250.446	-9.31
250.582	-3.31
250.719	-27.31
250.856	-9.31
250.992	-12.31
251.129	-10.31
251.265	-3.31
251.402	14.69
251.538	-5.31
251.675	15.69
251.811	3.69
251.948	17.69
252.084	11.69
252.221	-11.31
252.357	-9.31
252.493	18.69
252.63	7.69
252.766	20.69
252.903	2.69
253.039	1.69
253.175	-8.31
253.312	2.69
253.448	5.69
253.585	-23.31
253.721	4.69
253.857	-10.31
253.994	15.69
254.13	0.69
254.266	1.69
254.403	4.69
254.539	11.69
254.675	17.69
254.811	2.69
254.948	7.69
255.084	-19.31
255.22	-10.31
255.356	-10.31
255.493	18.69
255.629	7.69
255.765	-3.31
255.901	7.69
256.037	6.69
256.174	-5.31
256.31	-26.31
256.446	-21.31
256.582	0.69
256.718	20.69
256.854	24.69
256.991	-5.31
257.127	26.69
257.263	1.69
257.399	14.69
257.535	-14.31
257.671	0.69
257.807	-4.31
257.943	-23.31
258.079	-17.31
258.215	-1.31
258.351	4.69
258.487	10.69
258.623	25.69
258.759	5.69
258.895	-16.31
259.031	-2.31
259.167	-21.31
259.303	12.69
259.439	-4.31
259.575	-12.31
259.711	-6.31
259.847	-9.31
259.983	5.69
260.119	0.69
260.255	-6.31
260.391	10.69
260.527	24.69
260.663	5.69
260.799	14.69
260.934	-12.31
261.07	13.69
261.206	-10.31
261.342	-23.31
261.478	8.69
261.614	-12.31
261.749	-9.31
261.885	-15.31
262.021	20.69
262.157	18.69
262.293	5.69
262.428	-7.31
262.564	-6.31
262.7	14.69
262.836	-2.31
262.971	9.69
263.107	6.69
263.243	5.69
263.378	4.69
263.514	1.69
263.65	18.69
263.785	-16.31
263.921	-12.31
264.057	-5.31
264.192	5.69
264.328	27.69
264.464	-2.31
264.599	5.69
264.735	6.69
264.871	-11.31
265.006	-3.31
265.142	1.69
265.277	-5.31
265.413	7.69
265.548	7.69
265.684	15.69
265.819	1.69
265.955	-16.31
266.091	-3.31
266.226	-27.31
266.362	-13.31
266.497	7.69
266.633	13.69
266.768	-22.31
266.903	2.69
267.039	17.69
267.174	24.69
267.31	-2.31
267.445	-4.31
267.581	-6.31
267.716	5.69
267.851	21.69
267.987	11.69
268.122	0.69
268.258	-16.31
268.393	-16.31
268.528	7.69
268.664	-1.31
268.799	-22.31
268.934	-4.31
269.07	-9.31
269.205	11.69
269.34	29.69
269.476	6.69
269.611	-5.31
269.746	18.69
269.881	6.69
270.017	24.69
270.152	0.69
270.287	16.69
270.422	16.69
270.558	-4.31
270.693	-1.31
270.828	-3.31
270.963	-10.31
271.098	-10.31
271.234	-24.31
271.369	14.69
271.504	11.69
271.639	-2.31
271.774	-6.31
271.909	4.69
272.045	-19.31
272.18	-9.31
272.315	0.69
272.45	24.69
272.585	-2.31
272.72	7.69
272.855	-4.31
272.99	5.69
273.125	-13.31
273.26	-8.31
273.395	-0.31
273.53	-12.31
273.665	8.69
273.8	6.69
273.935	-5.31
274.07	5.69
274.205	24.69
274.34	1.69
274.475	7.69
274.61	9.69
274.745	-15.31
274.88	10.69
275.015	-3.31
275.15	12.69
275.285	14.69
275.42	4.69
275.555	23.69
275.69	4.69
275.825	-2.31
275.959	38.69
276.094	-7.31
276.229	10.69
276.364	4.69
276.499	9.69
276.634	10.69
276.768	-1.31
276.903	4.69
277.038	6.69
277.173	-11.31
277.308	9.69
277.442	-8.31
277.577	-14.31
277.712	5.69
277.847	-5.31
277.981	12.69
278.116	-9.31
278.251	-8.31
278.386	-4.31
278.52	7.69
278.655	7.69
278.79	7.69
278.924	-2.31
279.059	-4.31
279.194	-5.31
279.328	41.69
279.463	9.69
279.598	16.69
279.732	4.69
279.867	14.69
280.001	14.69
280.136	0.69
280.271	26.69
280.405	17.69
280.54	6.69
280.674	-13.31
280.809	19.69
280.943	13.69
281.078	3.69
281.213	17.69
281.347	15.69
281.482	4.69
281.616	2.69
281.751	4.69
281.885	-13.31
282.02	8.69
282.154	9.69
282.288	-9.31
282.423	-17.31
282.557	-6.31
282.692	3.69
282.826	7.69
282.961	3.69
283.095	9.69
283.229	-8.31
283.364	-25.31
283.498	-3.31
283.633	2.69
283.767	-6.31
283.901	10.69
284.036	-2.31
284.17	-7.31
284.304	-9.31
284.439	2.69
284.573	1.69
284.707	20.69
284.842	-24.31
284.976	-10.31
285.11	-11.31
285.244	2.69
285.379	48.69
285.513	-1.31
285.647	11.69
285.781	7.69
285.916	6.69
286.05	-4.31
286.184	21.69
286.318	15.69
286.453	-6.31
286.587	-16.31
286.721	-6.31
286.855	-0.31
286.989	19.69
287.123	-10.31
287.258	-17.31
287.392	5.69
287.526	18.69
287.66	-2.31
287.794	1.69
287.928	-31.31
288.062	-4.31
288.196	-17.31
288.33	6.69
288.464	17.69
288.598	-3.31
288.733	-7.31
288.867	10.69
289.001	-2.31
289.135	11.69
289.269	-3.31
289.403	4.69
289.537	11.69
289.671	3.69
289.805	4.69
289.939	7.69
290.073	-7.31
290.207	4.69
290.34	10.69
290.474	6.69
290.608	5.69
290.742	9.69
290.876	-11.31
291.01	9.69
291.144	19.69
291.278	17.69
291.412	2.69
291.546	-3.31
291.679	-27.31
291.813	-24.31
291.947	-11.31
292.081	-2.31
292.215	10.69
292.349	19.69
292.482	15.69
292.616	-0.31
292.75	9.69
292.884	-1.31
293.018	5.69
293.151	-11.31
293.285	4.69
293.419	12.69
293.553	-6.31
293.686	-26.31
293.82	7.69
293.954	18.69
294.088	28.69
294.221	-6.31
294.355	-21.31
294.489	-4.31
294.622	-14.31
294.756	-16.31
294.89	4.69
295.023	8.69
295.157	-0.31
295.291	1.69
295.424	21.69
295.558	9.69
295.691	-9.31
295.825	-10.31
295.959	-1.31
296.092	4.69
296.226	3.69
296.359	4.69
296.493	4.69
296.627	-4.31
296.76	5.69
296.894	6.69
297.027	-9.31
297.161	0.69
297.294	-17.31
297.428	4.69
297.561	21.69
297.695	-11.31
297.828	3.69
297.962	2.69
298.095	5.69
298.229	21.69
298.362	0.69
298.495	-7.31
298.629	-1.31
298.762	18.69
298.896	7.69
299.029	-3.31
299.162	9.69
299.296	24.69
299.429	2.69
299.563	1.69
299.696	-0.31
299.829	9.69
299.963	2.69
300.096	10.69
300.229	23.69
300.363	17.69
300.496	21.69
300.629	-10.31
300.763	6.69
300.896	-18.31
301.029	10.69
301.162	-13.31
301.296	-9.31
301.429	4.69
301.562	-7.31
301.695	-4.31
301.829	11.69
301.962	20.69
302.095	24.69
302.228	-14.31
302.362	-4.31
302.495	-2.31
302.628	-0.31
302.761	-17.31
302.894	2.69
303.027	22.69
303.161	0.69
303.294	-13.31
303.427	32.69
303.56	6.69
303.693	-0.31
303.826	6.69
303.959	-14.31
304.092	8.69
304.225	-8.31
304.359	10.69
304.492	12.69
304.625	-20.31
304.758	-2.31
304.891	-24.31
305.024	1.69
305.157	5.69
305.29	-3.31
305.423	22.69
305.556	12.69
305.689	21.69
305.822	1.69
305.955	-1.31
306.088	-18.31
306.221	14.69
306.354	6.69
306.487	4.69
306.62	-12.31
306.752	-1.31
306.885	0.69
307.018	-18.31
307.151	7.69
307.284	-1.31
307.417	-19.31
307.55	4.69
307.683	5.69
307.816	18.69
307.948	15.69
308.081	1.69
308.214	7.69
308.347	8.69
308.48	3.69
308.613	-11.31
308.745	12.69
308.878	5.69
309.011	11.69
309.144	10.69
309.277	-6.31
309.409	9.69
309.542	1.69
309.675	-3.31
309.808	7.69
309.94	24.69
310.073	-4.31
310.206	-10.31
310.339	13.69
310.471	-6.31
310.604	-2.31
310.737	3.69
310.869	12.69
311.002	-2.31
311.135	-16.31
311.267	-21.31
311.4	-13.31
311.533	29.69
311.665	9.69
311.798	-13.31
311.93	4.69
312.063	0.69
312.196	8.69
312.328	12.69
312.461	16.69
312.593	-2.31
312.726	21.69
312.859	2.69
312.991	12.69
313.124	-23.31
313.256	7.69
313.389	18.69
313.521	-5.31
313.654	17.69
313.786	-17.31
313.919	-12.31
314.051	-2.31
314.184	6.69
314.316	-0.31
314.449	-16.31
314.581	8.69
314.714	7.69
314.846	22.69
314.978	-4.31
315.111	-8.31
315.243	5.69
315.376	0.69
315.508	8.69
315.641	11.69
315.773	19.69
315.905	4.69
316.038	-0.31
316.17	0.69
316.302	15.69
316.435	18.69
316.567	-5.31
316.699	17.69
316.832	-5.31
316.964	-3.31
317.096	5.69
317.229	-21.31
317.361	-13.31
317.493	1.69
317.625	-5.31
317.758	-0.31
317.89	22.69
318.022	-5.31
318.155	-14.31
318.287	14.69
318.419	-1.31
318.551	-7.31
318.683	-8.31
318.816	-17.31
318.948	-8.31
319.08	-7.31
319.212	2.69
319.344	13.69
319.477	10.69
319.609	22.69
319.741	9.69
319.873	8.69
320.005	0.69
320.137	-0.31
320.269	-1.31
320.401	3.69
320.534	-2.31
320.666	-19.31
320.798	-5.31
320.93	-0.31
321.062	-23.31
321.194	-1.31
321.326	19.69
321.458	17.69
321.59	0.69
321.722	-13.31
321.854	8.69
321.986	7.69
322.118	14.69
322.25	-4.31
322.382	5.69
322.514	4.69
322.646	7.69
322.778	16.69
322.91	-8.31
323.042	-10.31
323.174	7.69
323.306	-15.31
323.438	-14.31
323.57	-8.31
323.702	-10.31
323.834	2.69
323.966	-22.31
324.097	-8.31
324.229	-4.31
324.361	14.69
324.493	9.69
324.625	-3.31
324.757	-1.31
324.889	6.69
325.021	9.69
325.152	19.69
325.284	13.69
325.416	-0.31
325.548	2.69
325.68	-11.31
325.811	20.69
325.943	20.69
326.075	-15.31
326.207	-7.31
326.339	15.69
326.47	-4.31
326.602	7.69
326.734	3.69
326.866	9.69
326.997	-23.31
327.129	-2.31
327.261	-27.31
327.392	5.69
327.524	-4.31
327.656	10.69
327.787	7.69
327.919	2.69
328.051	0.69
328.182	22.69
328.314	16.69
328.446	1.69
328.577	19.69
328.709	3.69
328.841	-2.31
328.972	-8.31
329.104	-11.31
329.235	-11.31
329.367	-3.31
329.499	-3.31
329.63	-10.31
329.762	13.69
329.893	21.69
330.025	0.69
330.156	-25.31
330.288	6.69
330.419	-4.31
330.551	12.69
330.683	10.69
330.814	-2.31
330.946	17.69
331.077	-15.31
331.208	-1.31
331.34	-5.31
331.471	-2.31
331.603	-6.31
331.734	-5.31
331.866	0.69
331.997	4.69
332.129	-4.31
332.26	1.69
332.392	-10.31
332.523	11.69
332.654	-8.31
332.786	5.69
332.917	-4.31
333.048	26.69
333.18	10.69
333.311	-11.31
333.443	9.69
333.574	-8.31
333.705	16.69
333.837	-6.31
333.968	3.69
334.099	12.69
334.231	8.69
334.362	-10.31
334.493	9.69
334.624	16.69
334.756	-2.31
334.887	5.69
335.018	-7.31
335.15	2.69
335.281	-4.31
335.412	10.69
335.543	-1.31
335.675	4.69
335.806	11.69
335.937	10.69
336.068	4.69
336.199	38.69
336.331	0.69
336.462	-2.31
336.593	18.69
336.724	6.69
336.855	-0.31
336.986	25.69
337.118	-5.31
337.249	0.69
337.38	0.69
337.511	-8.31
337.642	10.69
337.773	-0.31
337.904	5.69
338.035	15.69
338.166	-1.31
338.298	12.69
338.429	-0.31
338.56	8.69
338.691	8.69
338.822	3.69
338.953	18.69
339.084	6.69
339.215	31.69
339.346	8.69
339.477	11.69
339.608	-2.31
339.739	20.69
339.87	-4.31
340.001	2.69
340.132	7.69
340.263	0.69
340.394	18.69
340.525	6.69
340.656	5.69
340.787	-10.31
340.918	35.69
341.049	6.69
341.179	1.69
341.31	-3.31
341.441	22.69
341.572	12.69
341.703	-3.31
341.834	-9.31
341.965	26.69
342.096	5.69
342.227	-9.31
342.357	0.69
342.488	11.69
342.619	24.69
342.75	1.69
342.881	-7.31
343.012	34.69
343.142	25.69
343.273	-2.31
343.404	-5.31
343.535	14.69
343.666	32.69
343.796	17.69
343.927	20.69
344.058	20.69
344.189	12.69
344.319	-1.31
344.45	-9.31
344.581	8.69
344.712	-2.31
344.842	-15.31
344.973	4.69
345.104	19.69
345.234	-9.31
345.365	-14.31
345.496	-28.31
345.626	4.69
345.757	14.69
345.888	-3.31
346.018	32.69
346.149	-2.31
346.28	31.69
346.41	12.69
346.541	6.69
346.672	1.69
346.802	-1.31
346.933	5.69
347.063	12.69
347.194	12.69
347.325	-5.31
347.455	-3.31
347.586	11.69
347.716	-6.31
347.847	8.69
347.977	-9.31
348.108	19.69
348.238	38.69
348.369	-4.31
348.499	14.69
348.63	19.69
348.76	-4.31
348.891	11.69
349.021	9.69
349.152	12.69
349.282	10.69
349.413	1.69
349.543	14.69
349.674	-13.31
349.804	8.69
349.935	2.69
350.065	3.69
350.196	4.69
350.326	10.69
350.456	20.69
350.587	19.69
350.717	13.69
350.848	9.69
350.978	1.69
351.108	-3.31
351.239	13.69
351.369	-3.31
351.499	5.69
351.63	15.69
351.76	0.69
351.89	9.69
352.021	1.69
352.151	-1.31
352.281	10.69
352.412	11.69
352.542	17.69
352.672	9.69
352.803	9.69
352.933	3.69
353.063	-1.31
353.193	6.69
353.324	-0.31
353.454	6.69
353.584	24.69
353.714	-2.31
353.845	6.69
353.975	17.69
354.105	3.69
354.235	9.69
354.365	1.69
354.496	9.69
354.626	38.69
354.756	35.69
354.886	11.69
355.016	4.69
355.146	-2.31
355.277	0.69
355.407	2.69
355.537	19.69
355.667	29.69
355.797	-7.31
355.927	-1.31
356.057	-10.31
356.187	-1.31
356.318	-0.31
356.448	5.69
356.578	6.69
356.708	22.69
356.838	1.69
356.968	6.69
357.098	5.69
357.228	17.69
357.358	3.69
357.488	2.69
357.618	28.69
357.748	4.69
357.878	-7.31
358.008	-4.31
358.138	7.69
358.268	6.69
358.398	5.69
358.528	-10.31
358.658	15.69
358.788	8.69
358.918	16.69
359.048	23.69
359.178	14.69
359.308	22.69
359.438	34.69
359.568	25.69
359.698	13.69
359.827	18.69
359.957	-5.31
360.087	12.69
360.217	6.69
360.347	19.69
360.477	16.69
360.607	2.69
360.737	20.69
360.866	12.69
360.996	-6.31
361.126	-4.31
361.256	23.69
361.386	17.69
361.516	14.69
361.645	4.69
361.775	15.69
361.905	-4.31
362.035	9.69
362.165	-5.31
362.294	20.69
362.424	12.69
362.554	18.69
362.684	-0.31
362.813	20.69
362.943	25.69
363.073	8.69
363.203	4.69
363.332	6.69
363.462	-8.31
363.592	-11.31
363.721	-14.31
363.851	0.69
363.981	12.69
364.111	1.69
364.24	-3.31
364.37	22.69
364.5	24.69
364.629	7.69
364.759	4.69
364.888	-19.31
365.018	17.69
365.148	-3.31
365.277	25.69
365.407	21.69
365.537	5.69
365.666	0.69
365.796	-10.31
365.925	6.69
366.055	0.69
366.184	-1.31
366.314	-5.31
366.444	2.69
366.573	10.69
366.703	4.69
366.832	8.69
366.962	-3.31
367.091	23.69
367.221	14.69
367.35	1.69
367.48	38.69
367.609	14.69
367.739	-3.31
367.868	-8.31
367.998	4.69
368.127	25.69
368.257	24.69
368.386	34.69
368.516	27.69
368.645	10.69
368.775	27.69
368.904	29.69
369.033	-4.31
369.163	2.69
369.292	25.69
369.422	14.69
369.551	15.69
369.68	20.69
369.81	29.69
369.939	4.69
370.069	12.69
370.198	20.69
370.327	-5.31
370.457	4.69
370.586	4.69
370.715	6.69
370.845	-2.31
370.974	18.69
371.103	4.69
371.233	14.69
371.362	25.69
371.491	5.69
371.621	8.69
371.75	10.69
371.879	11.69
372.008	-6.31
372.138	8.69
372.267	32.69
372.396	4.69
372.525	7.69
372.655	2.69
372.784	-5.31
372.913	5.69
373.042	15.69
373.172	28.69
373.301	-2.31
373.43	7.69
373.559	-2.31
373.688	5.69
373.818	10.69
373.947	24.69
374.076	7.69
374.205	13.69
374.334	14.69
374.463	-2.31
374.593	14.69
374.722	1.69
374.851	15.69
374.98	6.69
375.109	6.69
375.238	16.69
375.367	43.69
375.496	4.69
375.625	-15.31
375.755	3.69
375.884	29.69
376.013	21.69
376.142	-2.31
376.271	-0.31
376.4	12.69
376.529	22.69
376.658	20.69
376.787	22.69
376.916	13.69
377.045	-4.31
377.174	1.69
377.303	9.69
377.432	28.69
377.561	-1.31
377.69	1.69
377.819	16.69
377.948	-7.31
378.077	-9.31
378.206	-2.31
378.335	14.69
378.464	7.69
378.593	24.69
378.722	7.69
378.851	16.69
378.98	6.69
379.108	-1.31
379.237	-16.31
379.366	15.69
379.495	23.69
379.624	2.69
379.753	-7.31
379.882	-9.31
380.011	-11.31
380.14	1.69
380.268	8.69
380.397	-11.31
380.526	26.69
380.655	-5.31
380.784	-9.31
380.913	-6.31
381.041	10.69
381.17	-2.31
381.299	12.69
381.428	21.69
381.557	21.69
381.685	-9.31
381.814	9.69
381.943	4.69
382.072	5.69
382.2	6.69
382.329	11.69
382.458	-1.31
382.587	8.69
382.715	25.69
382.844	20.69
382.973	-4.31
383.102	0.69
383.23	7.69
383.359	-16.31
383.488	11.69
383.616	-10.31
383.745	-9.31
383.874	12.69
384.003	4.69
384.131	-10.31
384.26	0.69
384.389	23.69
384.517	-9.31
384.646	0.69
384.774	7.69
384.903	33.69
385.032	23.69
385.16	22.69
385.289	-9.31
385.418	1.69
385.546	12.69
385.675	11.69
385.803	8.69
385.932	20.69
386.06	-9.31
386.189	20.69
386.318	4.69
386.446	17.69
386.575	1.69
386.703	20.69
386.832	1.69
386.96	10.69
387.089	32.69
387.217	18.69
387.346	-20.31
387.474	-6.31
387.603	7.69
387.731	9.69
387.86	-2.31
387.988	1.69
388.117	14.69
388.245	8.69
388.374	5.69
388.502	10.69
388.631	-7.31
388.759	1.69
388.888	19.69
389.016	6.69
389.144	3.69
389.273	18.69
389.401	-2.31
389.53	19.69
389.658	12.69
389.786	5.69
389.915	-15.31
390.043	-9.31
390.172	0.69
390.3	24.69
390.428	15.69
390.557	-8.31
390.685	6.69
390.813	23.69
390.942	30.69
391.07	2.69
391.198	20.69
391.327	-4.31
391.455	-15.31
391.583	12.69
391.712	1.69
391.84	7.69
391.968	8.69
392.096	-3.31
392.225	10.69
392.353	13.69
392.481	-6.31
392.609	26.69
392.738	15.69
392.866	18.69
392.994	9.69
393.122	33.69
393.251	-4.31
393.379	-13.31
393.507	-18.31
393.635	-4.31
393.764	9.69
393.892	16.69
394.02	-9.31
394.148	11.69
394.276	11.69
394.404	30.69
394.533	16.69
394.661	12.69
394.789	22.69
394.917	13.69
395.045	0.69
395.173	4.69
395.302	1.69
395.43	9.69
395.558	24.69
395.686	-0.31
395.814	21.69
395.942	9.69
396.07	24.69
396.198	8.69
396.326	20.69
396.454	16.69
396.582	22.69
396.711	7.69
396.839	8.69
396.967	-1.31
397.095	9.69
397.223	17.69
397.351	1.69
397.479	30.69
397.607	1.69
397.735	30.69
397.863	8.69
397.991	14.69
398.119	-3.31
398.247	20.69
398.375	-4.31
398.503	-3.31
398.631	2.69
398.759	10.69
398.887	8.69
399.015	14.69
399.143	6.69
399.271	-23.31
399.399	-1.31
399.526	5.69
399.654	15.69
399.782	6.69
399.91	27.69
400.038	15.69
400.166	10.69
400.294	3.69
400.422	-11.31
400.55	21.69
400.678	6.69
400.805	-2.31
400.933	6.69
401.061	2.69
401.189	9.69
401.317	40.69
401.445	15.69
401.573	26.69
401.7	16.69
401.828	0.69
401.956	4.69
402.084	8.69
402.212	20.69
402.34	2.69
402.467	-1.31
402.595	9.69
402.723	6.69
402.851	34.69
402.978	4.69
403.106	15.69
403.234	-12.31
403.362	19.69
403.489	6.69
403.617	9.69
403.745	11.69
403.873	-4.31
404	-2.31
404.128	-2.31
404.256	10.69
404.384	25.69
404.511	14.69
404.639	5.69
404.767	-3.31
404.894	8.69
405.022	-5.31
405.15	9.69
405.277	2.69
405.405	13.69
405.533	14.69
405.66	-2.31
405.788	-14.31
405.916	-10.31
406.043	-18.31
406.171	4.69
406.299	11.69
406.426	9.69
406.554	18.69
406.681	28.69
406.809	19.69
406.937	11.69
407.064	-7.31
407.192	16.69
407.319	3.69
407.447	-1.31
407.574	14.69
407.702	2.69
407.83	-2.31
407.957	3.69
408.085	18.69
408.212	-1.31
408.34	-3.31
408.467	9.69
408.595	18.69
408.722	16.69
408.85	12.69
408.977	-7.31
409.105	20.69
409.232	-0.31
409.36	25.69
409.487	21.69
409.615	34.69
409.742	21.69
409.87	24.69
409.997	28.69
410.125	43.69
410.252	47.69
410.379	49.69
410.507	26.69
410.634	17.69
410.762	11.69
410.889	9.69
411.017	13.69
411.144	21.69
411.271	1.69
411.399	26.69
411.526	14.69
411.653	10.69
411.781	32.69
411.908	17.69
412.036	11.69
412.163	33.69
412.29	20.69
412.418	21.69
412.545	28.69
412.672	6.69
412.8	38.69
412.927	18.69
413.054	20.69
413.182	13.69
413.309	8.69
413.436	-1.31
413.564	17.69
413.691	-9.31
413.818	28.69
413.945	-5.31
414.073	-3.31
414.2	16.69
414.327	12.69
414.454	3.69
414.582	4.69
414.709	5.69
414.836	2.69
414.963	6.69
415.091	-14.31
415.218	7.69
415.345	22.69
415.472	26.69
415.6	19.69
415.727	10.69
415.854	12.69
415.981	8.69
416.108	3.69
416.236	1.69
416.363	17.69
416.49	2.69
416.617	13.69
416.744	25.69
416.871	25.69
416.998	1.69
417.126	20.69
417.253	-4.31
417.38	-1.31
417.507	21.69
417.634	23.69
417.761	13.69
417.888	23.69
418.015	7.69
418.143	8.69
418.27	27.69
418.397	5.69
418.524	12.69
418.651	-0.31
418.778	-0.31
418.905	23.69
419.032	13.69
419.159	8.69
419.286	27.69
419.413	27.69
419.54	20.69
419.667	2.69
419.794	-10.31
419.921	2.69
420.048	8.69
420.175	6.69
420.302	8.69
420.429	23.69
420.556	2.69
420.683	-6.31
420.81	-1.31
420.937	7.69
421.064	16.69
421.191	7.69
421.318	16.69
421.445	30.69
421.572	-0.31
421.699	15.69
421.826	24.69
421.953	-3.31
422.08	4.69
422.207	-13.31
422.334	-10.31
422.461	29.69
422.588	12.69
422.714	6.69
422.841	30.69
422.968	27.69
423.095	-0.31
423.222	5.69
423.349	13.69
423.476	0.69
423.603	5.69
423.729	0.69
423.856	1.69
423.983	22.69
424.11	-1.31
424.237	24.69
424.364	21.69
424.491	19.69
424.617	-3.31
424.744	-3.31
424.871	15.69
424.998	9.69
425.125	-1.31
425.251	9.69
425.378	-8.31
425.505	-7.31
425.632	-1.31
425.758	-2.31
425.885	7.69
426.012	25.69
426.139	10.69
426.266	1.69
426.392	-9.31
426.519	25.69
426.646	7.69
426.772	25.69
426.899	1.69
427.026	10.69
427.153	-1.31
427.279	33.69
427.406	17.69
427.533	3.69
427.659	5.69
427.786	5.69
427.913	17.69
428.039	6.69
428.166	-5.31
428.293	7.69
428.419	35.69
428.546	14.69
428.673	12.69
428.799	-3.31
428.926	6.69
429.053	28.69
429.179	19.69
429.306	16.69
429.433	15.69
429.559	11.69
429.686	1.69
429.812	-7.31
429.939	1.69
430.066	-7.31
430.192	6.69
430.319	12.69
430.445	7.69
430.572	5.69
430.699	-3.31
430.825	-9.31
430.952	2.69
431.078	17.69
431.205	-0.31
431.331	1.69
431.458	2.69
431.584	-1.31
431.711	1.69
431.837	16.69
431.964	9.69
432.09	1.69
432.217	-12.31
432.343	3.69
432.47	14.69
432.596	6.69
432.723	4.69
432.849	6.69
432.976	35.69
433.102	6.69
433.229	1.69
433.355	25.69
433.482	75.69
433.608	146.69
433.735	148.69
433.861	138.69
433.987	146.69
434.114	202.69
434.24	188.69
434.367	74.69
434.493	4.69
434.62	12.69
434.746	35.69
434.872	20.69
434.999	4.69
435.125	3.69
435.252	-2.31
435.378	-5.31
435.504	-6.31
435.631	10.69
435.757	10.69
435.883	15.69
436.01	12.69
436.136	9.69
436.262	5.69
436.389	22.69
436.515	27.69
436.641	11.69
436.768	22.69
436.894	3.69
437.02	16.69
437.147	26.69
437.273	13.69
437.399	-0.31
437.526	19.69
437.652	-3.31
437.778	24.69
437.904	-2.31
438.031	10.69
438.157	14.69
438.283	-3.31
438.409	-5.31
438.536	-1.31
438.662	23.69
438.788	0.69
438.914	13.69
439.041	28.69
439.167	29.69
439.293	1.69
439.419	16.69
439.546	29.69
439.672	13.69
439.798	15.69
439.924	28.69
440.05	42.69
440.177	29.69
440.303	13.69
440.429	1.69
440.555	8.69
440.681	1.69
440.807	33.69
440.934	7.69
441.06	18.69
441.186	5.69
441.312	-2.31
441.438	14.69
441.564	8.69
441.69	18.69
441.816	22.69
441.943	6.69
442.069	11.69
442.195	11.69
442.321	14.69
442.447	5.69
442.573	30.69
442.699	6.69
442.825	-9.31
442.951	16.69
443.077	14.69
443.203	18.69
443.33	-2.31
443.456	6.69
443.582	13.69
443.708	-5.31
443.834	26.69
443.96	19.69
444.086	16.69
444.212	14.69
444.338	17.69
444.464	9.69
444.59	21.69
444.716	11.69
444.842	10.69
444.968	12.69
445.094	-9.31
445.22	4.69
445.346	-9.31
445.472	30.69
445.598	4.69
445.724	-3.31
445.85	13.69
445.976	13.69
446.102	6.69
446.228	22.69
446.354	27.69
446.48	14.69
446.605	13.69
446.731	6.69
446.857	3.69
446.983	7.69
447.109	4.69
447.235	3.69
447.361	-9.31
447.487	9.69
447.613	21.69
447.739	-0.31
447.865	4.69
447.99	6.69
448.116	15.69
448.242	15.69
448.368	-12.31
448.494	2.69
448.62	19.69
448.746	8.69
448.872	2.69
448.997	-3.31
449.123	2.69
449.249	11.69
449.375	10.69
449.501	6.69
449.627	1.69
449.752	30.69
449.878	-9.31
450.004	-0.31
450.13	11.69
450.256	7.69
450.381	-1.31
450.507	3.69
450.633	8.69
450.759	20.69
450.884	12.69
451.01	26.69
451.136	13.69
451.262	18.69
451.388	6.69
451.513	9.69
451.639	13.69
451.765	32.69
451.89	14.69
452.016	1.69
452.142	4.69
452.268	6.69
452.393	9.69
452.519	-5.31
452.645	18.69
452.771	2.69
452.896	-3.31
453.022	-8.31
453.148	16.69
453.273	9.69
453.399	-1.31
453.525	-4.31
453.65	-3.31
453.776	9.69
453.902	24.69
454.027	36.69
454.153	23.69
454.279	15.69
454.404	2.69
454.53	47.69
454.656	32.69
454.781	15.69
454.907	16.69
455.032	10.69
455.158	26.69
455.284	23.69
455.409	13.69
455.535	25.69
455.66	8.69
455.786	12.69
455.912	12.69
456.037	0.69
456.163	13.69
456.288	17.69
456.414	5.69
456.539	2.69
456.665	14.69
456.791	13.69
456.916	2.69
457.042	9.69
457.167	-4.31
457.293	-6.31
457.418	19.69
457.544	7.69
457.669	9.69
457.795	16.69
457.92	22.69
458.046	16.69
458.171	-2.31
458.297	9.69
458.422	-16.31
458.548	0.69
458.673	29.69
458.799	1.69
458.924	-15.31
459.05	10.69
459.175	21.69
459.301	14.69
459.426	33.69
459.552	14.69
459.677	11.69
459.803	27.69
459.928	3.69
460.053	-1.31
460.179	9.69
460.304	19.69
460.43	-7.31
460.555	2.69
460.681	-1.31
460.806	9.69
460.931	24.69
461.057	13.69
461.182	-0.31
461.308	27.69
461.433	4.69
461.558	-5.31
461.684	19.69
461.809	15.69
461.934	-3.31
462.06	32.69
462.185	-19.31
462.311	9.69
462.436	0.69
462.561	14.69
462.687	18.69
462.812	6.69
462.937	-1.31
463.063	11.69
463.188	-2.31
463.313	12.69
463.439	-7.31
463.564	-1.31
463.689	-6.31
463.814	14.69
463.94	16.69
464.065	22.69
464.19	14.69
464.316	0.69
464.441	-5.31
464.566	-12.31
464.692	13.69
464.817	12.69
464.942	-3.31
465.067	1.69
465.193	-10.31
465.318	4.69
465.443	8.69
465.568	18.69
465.694	4.69
465.819	26.69
465.944	17.69
466.069	11.69
466.194	0.69
466.32	26.69
466.445	-11.31
466.57	1.69
466.695	3.69
466.82	13.69
466.946	33.69
467.071	21.69
467.196	-2.31
467.321	19.69
467.446	13.69
467.572	10.69
467.697	-0.31
467.822	6.69
467.947	4.69
468.072	6.69
468.197	-13.31
468.323	5.69
468.448	-0.31
468.573	13.69
468.698	20.69
468.823	22.69
468.948	15.69
469.073	17.69
469.198	10.69
469.324	19.69
469.449	-0.31
469.574	16.69
469.699	29.69
469.824	21.69
469.949	10.69
470.074	24.69
470.199	40.69
470.324	25.69
470.449	14.69
470.574	11.69
470.7	2.69
470.825	36.69
470.95	24.69
471.075	3.69
471.2	18.69
471.325	19.69
471.45	3.69
471.575	8.69
471.7	22.69
471.825	12.69
471.95	5.69
472.075	-5.31
472.2	-2.31
472.325	-15.31
472.45	0.69
472.575	2.69
472.7	9.69
472.825	19.69
472.95	16.69
473.075	8.69
473.2	-17.31
473.325	9.69
473.45	22.69
473.575	6.69
473.7	12.69
473.825	7.69
473.95	12.69
474.075	19.69
474.2	14.69
474.325	1.69
474.45	18.69
474.574	16.69
474.699	15.69
474.824	16.69
474.949	3.69
475.074	10.69
475.199	30.69
475.324	30.69
475.449	10.69
475.574	36.69
475.699	21.69
475.824	2.69
475.949	18.69
476.073	10.69
476.198	6.69
476.323	34.69
476.448	12.69
476.573	0.69
476.698	6.69
476.823	25.69
476.947	30.69
477.072	27.69
477.197	8.69
477.322	4.69
477.447	-6.31
477.572	9.69
477.697	-8.31
477.821	16.69
477.946	22.69
478.071	33.69
478.196	24.69
478.321	19.69
478.445	17.69
478.57	-2.31
478.695	11.69
478.82	1.69
478.945	8.69
479.069	5.69
479.194	-7.31
479.319	16.69
479.444	11.69
479.569	-8.31
479.693	11.69
479.818	7.69
479.943	28.69
480.068	6.69
480.192	14.69
480.317	21.69
480.442	20.69
480.567	0.69
480.691	2.69
480.816	15.69
480.941	-1.31
481.066	18.69
481.19	34.69
481.315	6.69
481.44	-7.31
481.564	20.69
481.689	32.69
481.814	20.69
481.938	22.69
482.063	12.69
482.188	33.69
482.313	40.69
482.437	13.69
482.562	24.69
482.687	18.69
482.811	12.69
482.936	19.69
483.061	29.69
483.185	9.69
483.31	22.69
483.435	11.69
483.559	23.69
483.684	-3.31
483.808	29.69
483.933	25.69
484.058	9.69
484.182	24.69
484.307	7.69
484.432	12.69
484.556	5.69
484.681	24.69
484.805	34.69
484.93	47.69
485.055	43.69
485.179	76.69
485.304	115.69
485.428	373.69
485.553	1223.69
485.678	1705.69
485.802	1584.69
485.927	1774.69
486.051	2651.69
486.176	1601.69
486.3	428.69
486.425	145.69
486.549	87.69
486.674	64.69
486.799	29.69
486.923	35.69
487.048	22.69
487.172	36.69
487.297	24.69
487.421	31.69
487.546	24.69
487.67	31.69
487.795	17.69
487.919	8.69
488.044	36.69
488.168	40.69
488.293	33.69
488.417	21.69
488.542	6.69
488.666	25.69
488.791	18.69
488.915	17.69
489.04	25.69
489.164	31.69
489.289	36.69
489.413	4.69
489.538	33.69
489.662	25.69
489.786	26.69
489.911	18.69
490.035	18.69
490.16	-0.31
490.284	7.69
490.409	-24.31
490.533	22.69
490.658	25.69
490.782	1.69
490.906	13.69
491.031	10.69
491.155	16.69
491.28	41.69
491.404	22.69
491.528	24.69
491.653	5.69
491.777	17.69
491.902	-7.31
492.026	4.69
492.15	11.69
492.275	51.69
492.399	27.69
492.524	6.69
492.648	28.69
492.772	26.69
492.897	37.69
493.021	26.69
493.145	26.69
493.27	24.69
493.394	2.69
493.518	19.69
493.643	7.69
493.767	28.69
493.891	-3.31
494.016	6.69
494.14	10.69
494.264	35.69
494.389	32.69
494.513	7.69
494.637	-4.31
494.762	21.69
494.886	9.69
495.01	20.69
495.134	22.69
495.259	26.69
495.383	21.69
495.507	16.69
495.632	35.69
495.756	35.69
495.88	18.69
496.004	-2.31
496.129	9.69
496.253	30.69
496.377	5.69
496.501	36.69
496.626	19.69
496.75	18.69
496.874	26.69
496.998	18.69
497.123	33.69
497.247	9.69
497.371	23.69
497.495	12.69
497.62	10.69
497.744	8.69
497.868	13.69
497.992	22.69
498.116	0.69
498.241	11.69
498.365	-0.31
498.489	-11.31
498.613	2.69
498.737	23.69
498.862	22.69
498.986	4.69
499.11	24.69
499.234	1.69
499.358	3.69
499.482	20.69
499.607	25.69
499.731	38.69
499.855	26.69
499.979	23.69
500.103	0.69
500.227	30.69
500.351	19.69
500.476	15.69
500.6	15.69
500.724	13.69
500.848	24.69
500.972	26.69
501.096	17.69
501.22	32.69
501.344	12.69
501.469	1.69
501.593	11.69
501.717	14.69
501.841	10.69
501.965	17.69
502.089	1.69
502.213	20.69
502.337	5.69
502.461	-19.31
502.585	1.69
502.709	7.69
502.834	0.69
502.958	8.69
503.082	15.69
503.206	16.69
503.33	17.69
503.454	20.69
503.578	23.69
503.702	30.69
503.826	18.69
503.95	40.69
504.074	23.69
504.198	21.69
504.322	15.69
504.446	-11.31
504.57	13.69
504.694	12.69
504.818	-11.31
504.942	23.69
505.066	10.69
505.19	15.69
505.314	19.69
505.438	6.69
505.562	0.69
505.686	23.69
505.81	10.69
505.934	4.69
506.058	-3.31
506.182	17.69
506.306	23.69
506.43	21.69
506.554	10.69
506.678	0.69
506.802	3.69
506.926	20.69
507.05	17.69
507.174	25.69
507.298	22.69
507.422	20.69
507.546	29.69
507.67	36.69
507.794	-4.31
507.918	16.69
508.042	12.69
508.165	-3.31
508.289	6.69
508.413	20.69
508.537	16.69
508.661	35.69
508.785	19.69
508.909	23.69
509.033	2.69
509.157	9.69
509.281	4.69
509.405	8.69
509.528	36.69
509.652	20.69
509.776	17.69
509.9	8.69
510.024	16.69
510.148	29.69
510.272	17.69
510.396	-4.31
510.519	-7.31
510.643	19.69
510.767	18.69
510.891	28.69
511.015	9.69
511.139	19.69
511.263	22.69
511.386	9.69
511.51	8.69
511.634	5.69
511.758	16.69
511.882	-1.31
512.006	12.69
512.129	33.69
512.253	49.69
512.377	22.69
512.501	22.69
512.625	10.69
512.748	6.69
512.872	9.69
512.996	3.69
513.12	16.69
513.244	15.69
513.367	38.69
513.491	25.69
513.615	11.69
513.739	20.69
513.862	7.69
513.986	8.69
514.11	14.69
514.234	-6.31
514.358	34.69
514.481	26.69
514.605	15.69
514.729	14.69
514.853	13.69
514.976	20.69
515.1	8.69
515.224	15.69
515.348	12.69
515.471	3.69
515.595	19.69
515.719	2.69
515.842	20.69
515.966	12.69
516.09	33.69
516.214	0.69
516.337	32.69
516.461	24.69
516.585	30.69
516.708	39.69
516.832	5.69
516.956	14.69
517.08	8.69
517.203	7.69
517.327	27.69
517.451	34.69
517.574	26.69
517.698	12.69
517.822	26.69
517.945	22.69
518.069	31.69
518.193	51.69
518.316	28.69
518.44	43.69
518.564	32.69
518.687	20.69
518.811	44.69
518.935	56.69
519.058	28.69
519.182	26.69
519.306	30.69
519.429	20.69
519.553	57.69
519.676	20.69
519.8	11.69
519.924	8.69
520.047	13.69
520.171	8.69
520.294	13.69
520.418	18.69
520.542	25.69
520.665	19.69
520.789	22.69
520.913	13.69
521.036	-8.31
521.16	-21.31
521.283	1.69
521.407	23.69
521.53	-2.31
521.654	7.69
521.778	40.69
521.901	13.69
522.025	19.69
522.148	18.69
522.272	15.69
522.395	6.69
522.519	14.69
522.643	12.69
522.766	18.69
522.89	10.69
523.013	20.69
523.137	-8.31
523.26	14.69
523.384	13.69
523.507	6.69
523.631	7.69
523.754	-9.31
523.878	5.69
524.002	31.69
524.125	5.69
524.249	8.69
524.372	4.69
524.496	12.69
524.619	18.69
524.743	4.69
524.866	8.69
524.99	14.69
525.113	0.69
525.237	25.69
525.36	0.69
525.484	2.69
525.607	3.69
525.731	-5.31
525.854	24.69
525.978	28.69
526.101	-3.31
526.224	3.69
526.348	24.69
526.471	20.69
526.595	6.69
526.718	14.69
526.842	9.69
526.965	21.69
527.089	-6.31
527.212	16.69
527.336	5.69
527.459	14.69
527.582	-2.31
527.706	21.69
527.829	0.69
527.953	24.69
528.076	0.69
528.2	11.69
528.323	15.69
528.446	27.69
528.57	28.69
528.693	14.69
528.817	5.69
528.94	14.69
529.064	17.69
529.187	7.69
529.31	12.69
529.434	4.69
529.557	0.69
529.68	30.69
529.804	16.69
529.927	8.69
530.051	1.69
530.174	7.69
530.297	-0.31
530.421	9.69
530.544	15.69
530.668	17.69
530.791	5.69
530.914	21.69
531.038	4.69
531.161	11.69
531.284	16.69
531.408	21.69
531.531	8.69
531.654	3.69
531.778	-3.31
531.901	-7.31
532.024	41.69
532.148	9.69
532.271	9.69
532.394	15.69
532.518	31.69
532.641	26.69
532.764	25.69
532.888	16.69
533.011	-0.31
533.134	6.69
533.258	26.69
533.381	11.69
533.504	8.69
533.628	3.69
533.751	19.69
533.874	27.69
533.997	10.69
534.121	6.69
534.244	12.69
534.367	14.69
534.491	16.69
534.614	12.69
534.737	13.69
534.86	23.69
534.984	-6.31
535.107	8.69
535.23	8.69
535.354	8.69
535.477	5.69
535.6	16.69
535.723	16.69
535.847	34.69
535.97	-8.31
536.093	7.69
536.216	-9.31
536.34	24.69
536.463	-8.31
536.586	16.69
536.709	6.69
536.833	10.69
536.956	5.69
537.079	6.69
537.202	26.69
537.325	8.69
537.449	2.69
537.572	0.69
537.695	-11.31
537.818	6.69
537.941	11.69
538.065	2.69
538.188	-5.31
538.311	21.69
538.434	17.69
538.558	32.69
538.681	27.69
538.804	15.69
538.927	25.69
539.05	15.69
539.173	-3.31
539.297	-7.31
539.42	11.69
539.543	16.69
539.666	16.69
539.789	31.69
539.913	14.69
540.036	10.69
540.159	24.69
540.282	-17.31
540.405	-2.31
540.528	-0.31
540.651	28.69
540.775	7.69
540.898	11.69
541.021	10.69
541.144	18.69
541.267	18.69
541.39	10.69
541.513	12.69
541.637	-1.31
541.76	1.69
541.883	10.69
542.006	9.69
542.129	13.69
542.252	9.69
542.375	24.69
542.498	11.69
542.622	8.69
542.745	3.69
542.868	4.69
542.991	36.69
543.114	23.69
543.237	20.69
543.36	17.69
543.483	14.69
543.606	5.69
543.73	29.69
543.853	17.69
543.976	2.69
544.099	6.69
544.222	12.69
544.345	-10.31
544.468	12.69
544.591	-4.31
544.714	16.69
544.837	29.69
544.96	21.69
545.083	30.69
545.206	21.69
545.329	39.69
545.453	6.69
545.576	6.69
545.699	18.69
545.822	4.69
545.945	19.69
546.068	5.69
546.191	7.69
546.314	4.69
546.437	14.69
546.56	-5.31
546.683	1.69
546.806	9.69
546.929	5.69
547.052	10.69
547.175	5.69
547.298	6.69
547.421	3.69
547.544	4.69
547.667	14.69
547.79	12.69
547.913	11.69
548.036	1.69
548.159	10.69
548.282	0.69
548.405	11.69
548.528	17.69
548.651	4.69
548.774	8.69
548.897	24.69
549.02	25.69
549.143	14.69
549.266	12.69
549.389	22.69
549.512	-1.31
549.635	18.69
549.758	27.69
549.881	20.69
550.004	20.69
550.127	-1.31
550.25	9.69
550.373	2.69
550.496	17.69
550.619	-6.31
550.742	10.69
550.865	-3.31
550.988	10.69
551.111	35.69
551.234	29.69
551.356	-2.31
551.479	0.69
551.602	9.69
551.725	27.69
551.848	33.69
551.971	26.69
552.094	2.69
552.217	5.69
552.34	6.69
552.463	4.69
552.586	29.69
552.709	18.69
552.832	22.69
552.955	17.69
553.077	7.69
553.2	12.69
553.323	-5.31
553.446	2.69
553.569	-16.31
553.692	-0.31
553.815	9.69
553.938	18.69
554.061	11.69
554.184	23.69
554.306	17.69
554.429	7.69
554.552	21.69
554.675	-1.31
554.798	3.69
554.921	24.69
555.044	8.69
555.167	10.69
555.29	10.69
555.412	-3.31
555.535	6.69
555.658	-6.31
555.781	3.69
555.904	16.69
556.027	20.69
556.15	14.69
556.272	18.69
556.395	20.69
556.518	12.69
556.641	14.69
556.764	29.69
556.887	10.69
557.01	3.69
557.132	-10.31
557.255	14.69
557.378	27.69
557.501	8.69
557.624	22.69
557.747	9.69
557.869	-0.31
557.992	14.69
558.115	16.69
558.238	2.69
558.361	20.69
558.483	27.69
558.606	8.69
558.729	-6.31
558.852	24.69
558.975	28.69
559.098	24.69
559.22	12.69
559.343	27.69
559.466	32.69
559.589	13.69
559.712	12.69
559.834	5.69
559.957	0.69
560.08	16.69
560.203	25.69
560.325	26.69
560.448	28.69
560.571	6.69
560.694	12.69
560.817	24.69
560.939	8.69
561.062	7.69
561.185	16.69
561.308	9.69
561.43	3.69
561.553	7.69
561.676	4.69
561.799	9.69
561.921	9.69
562.044	8.69
562.167	14.69
562.29	37.69
562.413	6.69
562.535	13.69
562.658	4.69
562.781	6.69
562.903	29.69
563.026	7.69
563.149	30.69
563.272	13.69
563.394	4.69
563.517	-9.31
563.64	1.69
563.763	19.69
563.885	15.69
564.008	20.69
564.131	6.69
564.254	19.69
564.376	8.69
564.499	-0.31
564.622	-0.31
564.744	27.69
564.867	14.69
564.99	11.69
565.113	17.69
565.235	7.69
565.358	21.69
565.481	0.69
565.603	8.69
565.726	10.69
565.849	20.69
565.971	14.69
566.094	-10.31
566.217	5.69
566.34	7.69
566.462	21.69
566.585	28.69
566.708	34.69
566.83	17.69
566.953	14.69
567.076	22.69
567.198	-1.31
567.321	-5.31
567.444	5.69
567.566	1.69
567.689	-2.31
567.812	0.69
567.934	12.69
568.057	13.69
568.18	19.69
568.302	8.69
568.425	-0.31
568.548	22.69
568.67	25.69
568.793	8.69
568.916	16.69
569.038	7.69
569.161	18.69
569.283	32.69
569.406	5.69
569.529	5.69
569.651	2.69
569.774	-8.31
569.897	5.69
570.019	14.69
570.142	24.69
570.265	29.69
570.387	1.69
570.51	8.69
570.632	14.69
570.755	11.69
570.878	2.69
571	21.69
571.123	0.69
571.246	11.69
571.368	-18.31
571.491	13.69
571.613	-2.31
571.736	-17.31
571.859	9.69
571.981	6.69
572.104	-10.31
572.226	-6.31
572.349	-14.31
572.472	-1.31
572.594	11.69
572.717	14.69
572.839	-6.31
572.962	16.69
573.085	13.69
573.207	11.69
573.33	7.69
573.452	30.69
573.575	27.69
573.697	31.69
573.82	16.69
573.943	-9.31
574.065	17.69
574.188	24.69
574.31	21.69
574.433	18.69
574.555	32.69
574.678	13.69
574.801	12.69
574.923	1.69
575.046	16.69
575.168	10.69
575.291	6.69
575.413	8.69
575.536	5.69
575.659	12.69
575.781	22.69
575.904	10.69
576.026	10.69
576.149	-9.31
576.271	23.69
576.394	17.69
576.516	18.69
576.639	1.69
576.761	-10.31
576.884	-7.31
577.007	8.69
577.129	11.69
577.252	21.69
577.374	38.69
577.497	17.69
577.619	10.69
577.742	5.69
577.864	18.69
577.987	16.69
578.109	24.69
578.232	3.69
578.354	28.69
578.477	6.69
578.599	17.69
578.722	0.69
578.844	1.69
578.967	20.69
579.089	4.69
579.212	-11.31
579.334	8.69
579.457	6.69
579.579	11.69
579.702	-3.31
579.824	14.69
579.947	9.69
580.069	-7.31
580.192	-0.31
580.314	36.69
580.437	40.69
580.559	28.69
580.682	10.69
580.804	14.69
580.927	10.69
581.049	45.69
581.172	15.69
581.294	25.69
581.417	19.69
581.539	10.69
581.662	9.69
581.784	23.69
581.907	8.69
582.029	16.69
582.152	14.69
582.274	23.69
582.396	8.69
582.519	6.69
582.641	6.69
582.764	8.69
582.886	36.69
583.009	6.69
583.131	5.69
583.254	8.69
583.376	30.69
583.499	11.69
583.621	19.69
583.743	23.69
583.866	14.69
583.988	18.69
584.111	6.69
584.233	9.69
584.356	25.69
584.478	16.69
584.601	5.69
584.723	11.69
584.845	9.69
584.968	-4.31
585.09	-8.31
585.213	27.69
585.335	6.69
585.458	27.69
585.58	8.69
585.702	37.69
585.825	20.69
585.947	11.69
586.07	-3.31
586.192	-2.31
586.315	18.69
586.437	-5.31
586.559	0.69
586.682	-10.31
586.804	23.69
586.927	10.69
587.049	4.69
587.171	52.69
587.294	23.69
587.416	32.69
587.539	5.69
587.661	4.69
587.783	-7.31
587.906	-7.31
588.028	-2.31
588.151	11.69
588.273	9.69
588.395	13.69
588.518	14.69
588.64	0.69
588.763	20.69
588.885	14.69
589.007	24.69
589.13	1.69
589.252	-4.31
589.375	27.69
589.497	5.69
589.619	2.69
589.742	-5.31
589.864	26.69
589.986	22.69
590.109	8.69
590.231	0.69
590.354	11.69
590.476	0.69
590.598	6.69
590.721	1.69
590.843	14.69
590.965	-3.31
591.088	-2.31
591.21	5.69
591.332	16.69
591.455	-0.31
591.577	3.69
591.7	1.69
591.822	5.69
591.944	-3.31
592.067	10.69
592.189	20.69
592.311	6.69
592.434	-4.31
592.556	9.69
592.678	1.69
592.801	20.69
592.923	4.69
593.045	1.69
593.168	22.69
593.29	12.69
593.412	25.69
593.535	8.69
593.657	17.69
593.779	7.69
593.902	24.69
594.024	17.69
594.146	15.69
594.269	31.69
594.391	-1.31
594.513	17.69
594.636	1.69
594.758	1.69
594.88	25.69
595.003	25.69
595.125	17.69
595.247	11.69
595.37	14.69
595.492	-3.31
595.614	32.69
595.737	-1.31
595.859	17.69
595.981	4.69
596.104	-1.31
596.226	1.69
596.348	14.69
596.471	-5.31
596.593	26.69
596.715	3.69
596.838	6.69
596.96	3.69
597.082	13.69
597.204	24.69
597.327	-4.31
597.449	14.69
597.571	14.69
597.694	29.69
597.816	9.69
597.938	14.69
598.061	6.69
598.183	-1.31
598.305	10.69
598.427	9.69
598.55	6.69
598.672	16.69
598.794	6.69
598.917	1.69
599.039	12.69
599.161	18.69
599.283	14.69
599.406	27.69
599.528	29.69
599.65	40.69
599.773	13.69
599.895	35.69
600.017	21.69
600.139	16.69
600.262	4.69
600.384	20.69
600.506	6.69
600.628	32.69
600.751	20.69
600.873	6.69
600.995	4.69
601.118	20.69
601.24	21.69
601.362	20.69
601.484	32.69
601.607	26.69
601.729	19.69
601.851	12.69
601.973	12.69
602.096	11.69
602.218	25.69
602.34	4.69
602.462	14.69
602.585	11.69
602.707	4.69
602.829	25.69
602.951	9.69
603.074	0.69
603.196	33.69
603.318	-2.31
603.44	25.69
603.563	7.69
603.685	19.69
603.807	26.69
603.929	25.69
604.052	4.69
604.174	14.69
604.296	18.69
604.418	37.69
604.541	14.69
604.663	8.69
604.785	11.69
604.907	30.69
605.03	14.69
605.152	28.69
605.274	-1.31
605.396	10.69
605.519	5.69
605.641	3.69
605.763	6.69
605.885	4.69
606.008	1.69
606.13	22.69
606.252	9.69
606.374	-5.31
606.496	-5.31
606.619	-3.31
606.741	0.69
606.863	18.69
606.985	24.69
607.108	23.69
607.23	-2.31
607.352	2.69
607.474	8.69
607.596	29.69
607.719	12.69
607.841	13.69
607.963	6.69
608.085	8.69
608.207	41.69
608.33	25.69
608.452	6.69
608.574	7.69
608.696	22.69
608.819	6.69
608.941	1.69
609.063	6.69
609.185	10.69
609.307	5.69
609.43	20.69
609.552	35.69
609.674	-0.31
609.796	20.69
609.918	29.69
610.041	20.69
610.163	19.69
610.285	5.69
610.407	12.69
610.529	-4.31
610.652	6.69
610.774	5.69
610.896	16.69
611.018	6.69
611.14	0.69
611.263	11.69
611.385	4.69
611.507	16.69
611.629	-3.31
611.751	-2.31
611.873	20.69
611.996	5.69
612.118	26.69
612.24	4.69
612.362	25.69
612.484	13.69
612.607	12.69
612.729	26.69
612.851	13.69
612.973	-13.31
613.095	-10.31
613.218	16.69
613.34	23.69
613.462	7.69
613.584	20.69
613.706	-4.31
613.828	44.69
613.951	-1.31
614.073	35.69
614.195	6.69
614.317	16.69
614.439	22.69
614.561	10.69
614.684	22.69
614.806	4.69
614.928	21.69
615.05	21.69
615.172	22.69
615.294	25.69
615.417	4.69
615.539	13.69
615.661	23.69
615.783	27.69
615.905	49.69
616.027	70.69
616.15	99.69
616.272	90.69
616.394	56.69
616.516	30.69
616.638	25.69
616.76	15.69
616.883	19.69
617.005	17.69
617.127	8.69
617.249	21.69
617.371	16.69
617.493	11.69
617.615	22.69
617.738	12.69
617.86	32.69
617.982	15.69
618.104	19.69
618.226	1.69
618.348	18.69
618.471	17.69
618.593	10.69
618.715	-5.31
618.837	12.69
618.959	18.69
619.081	32.69
619.203	35.69
619.326	21.69
619.448	-1.31
619.57	15.69
619.692	12.69
619.814	24.69
619.936	10.69
620.058	13.69
620.181	15.69
620.303	15.69
620.425	10.69
620.547	8.69
620.669	6.69
620.791	17.69
620.913	8.69
621.036	5.69
621.158	12.69
621.28	24.69
621.402	-6.31
621.524	20.69
621.646	12.69
621.768	1.69
621.891	-1.31
622.013	2.69
622.135	2.69
622.257	-14.31
622.379	7.69
622.501	6.69
622.623	6.69
622.745	5.69
622.868	16.69
622.99	16.69
623.112	12.69
623.234	8.69
623.356	13.69
623.478	1.69
623.6	12.69
623.722	21.69
623.845	14.69
623.967	0.69
624.089	19.69
624.211	9.69
624.333	28.69
624.455	16.69
624.577	-9.31
624.699	8.69
624.822	11.69
624.944	8.69
625.066	-3.31
625.188	-2.31
625.31	16.69
625.432	33.69
625.554	17.69
625.676	29.69
625.799	22.69
625.921	0.69
626.043	15.69
626.165	6.69
626.287	-2.31
626.409	13.69
626.531	1.69
626.653	5.69
626.775	-5.31
626.898	-3.31
627.02	-2.31
627.142	24.69
627.264	13.69
627.386	-1.31
627.508	-5.31
627.63	5.69
627.752	33.69
627.874	15.69
627.997	11.69
628.119	20.69
628.241	17.69
628.363	37.69
628.485	18.69
628.607	5.69
628.729	5.69
628.851	-11.31
628.973	8.69
629.096	-17.31
629.218	12.69
629.34	19.69
629.462	5.69
629.584	8.69
629.706	20.69
629.828	30.69
629.95	16.69
630.072	12.69
630.195	0.69
630.317	4.69
630.439	6.69
630.561	12.69
630.683	-4.31
630.805	10.69
630.927	16.69
631.049	14.69
631.171	0.69
631.293	39.69
631.416	21.69
631.538	-2.31
631.66	-9.31
631.782	8.69
631.904	11.69
632.026	0.69
632.148	2.69
632.27	6.69
632.392	13.69
632.514	9.69
632.637	28.69
632.759	12.69
632.881	2.69
633.003	24.69
633.125	3.69
633.247	0.69
633.369	24.69
633.491	9.69
633.613	31.69
633.735	-3.31
633.858	0.69
633.98	17.69
634.102	2.69
634.224	5.69
634.346	7.69
634.468	12.69
634.59	6.69
634.712	2.69
634.834	19.69
634.956	2.69
635.078	2.69
635.201	14.69
635.323	16.69
635.445	-8.31
635.567	-6.31
635.689	4.69
635.811	-2.31
635.933	6.69
636.055	8.69
636.177	5.69
636.299	12.69
636.421	3.69
636.544	-1.31
636.666	12.69
636.788	6.69
636.91	18.69
637.032	16.69
637.154	28.69
637.276	27.69
637.398	24.69
637.52	21.69
637.642	0.69
637.764	9.69
637.887	-23.31
638.009	11.69
638.131	-6.31
638.253	-2.31
638.375	1.69
638.497	11.69
638.619	-1.31
638.741	10.69
638.863	-13.31
638.985	18.69
639.107	10.69
639.23	0.69
639.352	14.69
639.474	0.69
639.596	6.69
639.718	4.69
639.84	-12.31
639.962	18.69
640.084	29.69
640.206	29.69
640.328	16.69
640.45	15.69
640.573	-1.31
640.695	8.69
640.817	10.69
640.939	14.69
641.061	-1.31
641.183	-11.31
641.305	5.69
641.427	21.69
641.549	22.69
641.671	10.69
641.793	1.69
641.915	24.69
642.038	20.69
642.16	-1.31
642.282	5.69
642.404	5.69
642.526	1.69
642.648	3.69
642.77	-7.31
642.892	0.69
643.014	10.69
643.136	0.69
643.258	5.69
643.381	21.69
643.503	19.69
643.625	3.69
643.747	3.69
643.869	5.69
643.991	17.69
644.113	33.69
644.235	16.69
644.357	6.69
644.479	17.69
644.601	4.69
644.723	9.69
644.846	13.69
644.968	11.69
645.09	-1.31
645.212	-6.31
645.334	9.69
645.456	27.69
645.578	21.69
645.7	14.69
645.822	11.69
645.944	29.69
646.066	0.69
646.188	0.69
646.311	22.69
646.433	-4.31
646.555	58.69
646.677	52.69
646.799	21.69
646.921	30.69
647.043	25.69
647.165	17.69
647.287	22.69
647.409	-3.31
647.531	15.69
647.654	-2.31
647.776	17.69
647.898	13.69
648.02	15.69
648.142	4.69
648.264	-3.31
648.386	9.69
648.508	-7.31
648.63	-7.31
648.752	15.69
648.874	11.69
648.997	17.69
649.119	14.69
649.241	1.69
649.363	12.69
649.485	34.69
649.607	9.69
649.729	-5.31
649.851	-8.31
649.973	6.69
650.095	21.69
650.217	16.69
650.34	3.69
650.462	18.69
650.584	19.69
650.706	11.69
650.828	-2.31
650.95	-2.31
651.072	10.69
651.194	0.69
651.316	6.69
651.438	-5.31
651.56	-14.31
651.683	-9.31
651.805	21.69
651.927	10.69
652.049	-2.31
652.171	15.69
652.293	17.69
652.415	7.69
652.537	5.69
652.659	0.69
652.781	9.69
652.903	15.69
653.026	35.69
653.148	19.69
653.27	2.69
653.392	29.69
653.514	-20.31
653.636	5.69
653.758	-1.31
653.88	0.69
654.002	9.69
654.124	14.69
654.247	7.69
654.369	39.69
654.491	5.69
654.613	14.69
654.735	8.69
654.857	12.69
654.979	17.69
655.101	34.69
655.223	32.69
655.345	6.69
655.468	22.69
655.59	22.69
655.712	21.69
655.834	16.69
655.956	27.69
656.078	25.69
656.2	40.69
656.322	23.69
656.444	24.69
656.566	48.69
656.689	53.69
656.811	52.69
656.933	99.69
657.055	97.69
657.177	161.69
657.299	262.69
657.421	506.69
657.543	1846.69
657.665	12480.69
657.787	15164.69
657.91	15218.69
658.032	15663.69
658.154	4606.69
658.276	3302.69
658.398	1137.69
658.52	1038.69
658.642	478.69
658.764	562.69
658.886	257.69
659.009	411.69
659.131	206.69
659.253	300.69
659.375	167.69
659.497	236.69
659.619	135.69
659.741	190.69
659.863	98.69
659.985	184.69
660.108	93.69
660.23	154.69
660.352	74.69
660.474	144.69
660.596	69.69
660.718	128.69
660.84	65.69
660.962	118.69
661.084	54.69
661.207	101.69
661.329	65.69
661.451	106.69
661.573	50.69
661.695	112.69
661.817	54.69
661.939	115.69
662.061	72.69
662.184	65.69
662.306	26.69
662.428	68.69
662.55	53.69
662.672	61.69
662.794	47.69
662.916	67.69
663.038	32.69
663.161	88.69
663.283	44.69
663.405	82.69
663.527	36.69
663.649	64.69
663.771	27.69
663.893	39.69
664.015	30.69
664.138	44.69
664.26	32.69
664.382	57.69
664.504	17.69
664.626	43.69
664.748	19.69
664.87	35.69
664.992	31.69
665.115	49.69
665.237	6.69
665.359	31.69
665.481	25.69
665.603	48.69
665.725	22.69
665.847	21.69
665.97	32.69
666.092	59.69
666.214	36.69
666.336	45.69
666.458	30.69
666.58	35.69
666.702	18.69
666.825	40.69
666.947	4.69
667.069	29.69
667.191	8.69
667.313	37.69
667.435	15.69
667.557	14.69
667.68	-4.31
667.802	24.69
667.924	27.69
668.046	46.69
668.168	11.69
668.29	51.69
668.412	19.69
668.535	37.69
668.657	14.69
668.779	17.69
668.901	25.69
669.023	43.69
669.145	26.69
669.267	43.69
669.39	12.69
669.512	19.69
669.634	4.69
669.756	9.69
669.878	-7.31
670	26.69
670.123	13.69
670.245	29.69
670.367	33.69
670.489	29.69
670.611	6.69
670.733	8.69
670.856	-10.31
670.978	39.69
671.1	18.69
671.222	29.69
671.344	18.69
671.466	11.69
671.589	8.69
671.711	3.69
671.833	3.69
671.955	13.69
672.077	-0.31
672.199	12.69
672.322	21.69
672.444	12.69
672.566	21.69
672.688	36.69
672.81	26.69
672.932	22.69
673.055	0.69
673.177	-7.31
673.299	15.69
673.421	11.69
673.543	15.69
673.665	36.69
673.788	15.69
673.91	16.69
674.032	-9.31
674.154	23.69
674.276	8.69
674.399	5.69
674.521	17.69
674.643	11.69
674.765	18.69
674.887	29.69
675.009	6.69
675.132	16.69
675.254	25.69
675.376	12.69
675.498	-0.31
675.62	26.69
675.743	18.69
675.865	30.69
675.987	17.69
676.109	21.69
676.231	27.69
676.354	30.69
676.476	2.69
676.598	20.69
676.72	11.69
676.842	31.69
676.965	0.69
677.087	8.69
677.209	22.69
677.331	37.69
677.453	22.69
677.576	25.69
677.698	25.69
677.82	32.69
677.942	12.69
678.064	11.69
678.187	24.69
678.309	8.69
678.431	-5.31
678.553	1.69
678.675	14.69
678.798	35.69
678.92	11.69
679.042	23.69
679.164	4.69
679.286	19.69
679.409	-2.31
679.531	-2.31
679.653	6.69
679.775	11.69
679.898	1.69
680.02	10.69
680.142	8.69
680.264	15.69
680.386	-10.31
680.509	11.69
680.631	29.69
680.753	23.69
680.875	-3.31
680.998	16.69
681.12	2.69
681.242	36.69
681.364	11.69
681.486	18.69
681.609	-2.31
681.731	-2.31
681.853	-13.31
681.975	17.69
682.098	12.69
682.22	29.69
682.342	2.69
682.464	27.69
682.587	10.69
682.709	-5.31
682.831	2.69
682.953	-14.31
683.076	2.69
683.198	7.69
683.32	15.69
683.442	28.69
683.565	1.69
683.687	6.69
683.809	-2.31
683.931	21.69
684.054	30.69
684.176	20.69
684.298	17.69
684.42	9.69
684.543	4.69
684.665	6.69
684.787	0.69
684.909	17.69
685.032	12.69
685.154	11.69
685.276	24.69
685.398	15.69
685.521	6.69
685.643	9.69
685.765	12.69
685.887	24.69
686.01	4.69
686.132	25.69
686.254	29.69
686.377	24.69
686.499	21.69
686.621	21.69
686.743	18.69
686.866	5.69
686.988	32.69
687.11	26.69
687.232	14.69
687.355	8.69
687.477	6.69
687.599	16.69
687.722	3.69
687.844	17.69
687.966	26.69
688.088	22.69
688.211	16.69
688.333	29.69
688.455	4.69
688.578	31.69
688.7	17.69
688.822	11.69
688.944	-12.31
689.067	48.69
689.189	1.69
689.311	5.69
689.434	-4.31
689.556	26.69
689.678	24.69
689.801	1.69
689.923	1.69
690.045	31.69
690.167	25.69
690.29	12.69
690.412	12.69
690.534	20.69
690.657	-3.31
690.779	-3.31
690.901	12.69
691.024	-9.31
691.146	25.69
691.268	20.69
691.391	21.69
691.513	15.69
691.635	28.69
691.758	20.69
691.88	18.69
692.002	-2.31
692.125	0.69
692.247	27.69
692.369	27.69
692.492	4.69
692.614	10.69
692.736	-3.31
692.859	1.69
692.981	7.69
693.103	6.69
693.226	11.69
693.348	27.69
693.47	18.69
693.593	4.69
693.715	9.69
693.837	5.69
693.96	4.69
694.082	-3.31
694.204	11.69
694.327	0.69
694.449	-7.31
694.571	1.69
694.694	10.69
694.816	10.69
694.938	26.69
695.061	7.69
695.183	22.69
695.305	17.69
695.428	6.69
695.55	-8.31
695.672	0.69
695.795	15.69
695.917	22.69
696.04	24.69
696.162	15.69
696.284	18.69
696.407	12.69
696.529	11.69
696.651	37.69
696.774	11.69
696.896	26.69
697.019	15.69
697.141	24.69
697.263	7.69
697.386	14.69
697.508	9.69
697.63	17.69
697.753	5.69
697.875	-0.31
697.998	2.69
698.12	21.69
698.242	16.69
698.365	4.69
698.487	1.69
698.61	23.69
698.732	19.69
698.854	33.69
698.977	12.69
699.099	34.69
699.221	8.69
699.344	9.69
699.466	2.69
699.589	3.69
699.711	5.69
699.834	9.69
699.956	15.69
700.078	12.69
700.201	2.69
700.323	12.69
700.446	6.69
700.568	8.69
700.69	15.69
700.813	17.69
700.935	15.69
701.058	0.69
701.18	10.69
701.302	5.69
701.425	-11.31
701.547	6.69
701.67	23.69
701.792	2.69
701.915	-7.31
702.037	-1.31
702.159	6.69
702.282	14.69
702.404	-7.31
702.527	21.69
702.649	34.69
702.772	30.69
702.894	6.69
703.017	4.69
703.139	16.69
703.261	15.69
703.384	27.69
703.506	-0.31
703.629	4.69
703.751	10.69
703.874	10.69
703.996	10.69
704.119	-2.31
704.241	20.69
704.364	-1.31
704.486	16.69
704.608	17.69
704.731	9.69
704.853	20.69
704.976	12.69
705.098	10.69
705.221	-1.31
705.343	22.69
705.466	16.69
705.588	9.69
705.711	12.69
705.833	11.69
705.956	4.69
706.078	16.69
706.201	13.69
706.323	-11.31
706.446	0.69
