Data from LowRes_H2_15_26_11_07_2024_HR4C61881__29__15-28-16-537.txt Node

Date: Thu Nov 07 15:28:16 EST 2024
User: crc00042
Spectrometer: HR4C6188
Trigger mode: 4
Integration Time (sec): 1.000000E-1
Scans to average: 1
Electric dark correction enabled: true
Nonlinearity correction enabled: false
Boxcar width: 0
XAxis mode: Wavelengths
Number of Pixels in Spectrum: 3648
>>>>>Begin Spectral Data<<<<<
245.66	-112.62
245.797	-112.62
245.934	-112.62
246.071	-87.62
246.208	16.38
246.344	14.38
246.481	-13.62
246.618	-11.62
246.755	-0.62
246.892	-12.62
247.029	-15.62
247.165	-7.62
247.302	6.38
247.439	8.38
247.576	4.38
247.713	7.38
247.849	29.38
247.986	-8.62
248.123	-9.62
248.26	-10.62
248.396	15.38
248.533	12.38
248.67	-20.62
248.806	-6.62
248.943	-26.62
249.08	-7.62
249.216	12.38
249.353	-16.62
249.49	-6.62
249.626	-13.62
249.763	-3.62
249.9	-5.62
250.036	4.38
250.173	-0.62
250.309	-10.62
250.446	1.38
250.582	1.38
250.719	1.38
250.856	-10.62
250.992	-18.62
251.129	-2.62
251.265	-21.62
251.402	-6.62
251.538	-8.62
251.675	-11.62
251.811	11.38
251.948	12.38
252.084	2.38
252.221	-7.62
252.357	-3.62
252.493	18.38
252.63	-7.62
252.766	24.38
252.903	7.38
253.039	-1.62
253.175	-15.62
253.312	-8.62
253.448	-21.62
253.585	-19.62
253.721	8.38
253.857	5.38
253.994	14.38
254.13	-22.62
254.266	8.38
254.403	3.38
254.539	-10.62
254.675	7.38
254.811	3.38
254.948	-3.62
255.084	-3.62
255.22	-7.62
255.356	19.38
255.493	16.38
255.629	15.38
255.765	-1.62
255.901	2.38
256.037	-12.62
256.174	-8.62
256.31	-17.62
256.446	-9.62
256.582	14.38
256.718	17.38
256.854	12.38
256.991	20.38
257.127	3.38
257.263	-13.62
257.399	1.38
257.535	-15.62
257.671	-9.62
257.807	-10.62
257.943	-21.62
258.079	-16.62
258.215	-2.62
258.351	16.38
258.487	-13.62
258.623	23.38
258.759	2.38
258.895	-14.62
259.031	-21.62
259.167	-12.62
259.303	14.38
259.439	11.38
259.575	-13.62
259.711	-29.62
259.847	-18.62
259.983	16.38
260.119	-5.62
260.255	-5.62
260.391	-20.62
260.527	0.38
260.663	7.38
260.799	4.38
260.934	-9.62
261.07	-11.62
261.206	-13.62
261.342	-12.62
261.478	13.38
261.614	6.38
261.749	-13.62
261.885	-12.62
262.021	-0.62
262.157	14.38
262.293	-3.62
262.428	-10.62
262.564	-4.62
262.7	9.38
262.836	-2.62
262.971	-7.62
263.107	-4.62
263.243	11.38
263.378	13.38
263.514	-20.62
263.65	-21.62
263.785	-9.62
263.921	-16.62
264.057	11.38
264.192	14.38
264.328	12.38
264.464	-9.62
264.599	-9.62
264.735	-0.62
264.871	3.38
265.006	-9.62
265.142	14.38
265.277	11.38
265.413	12.38
265.548	6.38
265.684	6.38
265.819	8.38
265.955	-11.62
266.091	-22.62
266.226	-9.62
266.362	6.38
266.497	7.38
266.633	-2.62
266.768	-6.62
266.903	19.38
267.039	8.38
267.174	16.38
267.31	-17.62
267.445	6.38
267.581	-5.62
267.716	5.38
267.851	-2.62
267.987	-2.62
268.122	6.38
268.258	-12.62
268.393	-9.62
268.528	20.38
268.664	-6.62
268.799	-22.62
268.934	-16.62
269.07	-2.62
269.205	16.38
269.34	20.38
269.476	-3.62
269.611	-9.62
269.746	1.38
269.881	-0.62
270.017	8.38
270.152	-8.62
270.287	6.38
270.422	17.38
270.558	5.38
270.693	22.38
270.828	-0.62
270.963	-7.62
271.098	-17.62
271.234	-14.62
271.369	-10.62
271.504	3.38
271.639	-12.62
271.774	1.38
271.909	-10.62
272.045	-28.62
272.18	2.38
272.315	-19.62
272.45	-1.62
272.585	-13.62
272.72	4.38
272.855	17.38
272.99	15.38
273.125	-7.62
273.26	-13.62
273.395	-18.62
273.53	-8.62
273.665	5.38
273.8	-5.62
273.935	22.38
274.07	0.38
274.205	7.38
274.34	9.38
274.475	-9.62
274.61	7.38
274.745	-4.62
274.88	16.38
275.015	-0.62
275.15	20.38
275.285	5.38
275.42	-15.62
275.555	12.38
275.69	11.38
275.825	-12.62
275.959	8.38
276.094	-12.62
276.229	-8.62
276.364	-3.62
276.499	-25.62
276.634	-11.62
276.768	2.38
276.903	0.38
277.038	16.38
277.173	2.38
277.308	4.38
277.442	10.38
277.577	1.38
277.712	4.38
277.847	-11.62
277.981	7.38
278.116	-11.62
278.251	-9.62
278.386	4.38
278.52	13.38
278.655	-0.62
278.79	7.38
278.924	-2.62
279.059	18.38
279.194	-17.62
279.328	22.38
279.463	0.38
279.598	16.38
279.732	12.38
279.867	13.38
280.001	3.38
280.136	-10.62
280.271	-8.62
280.405	27.38
280.54	-0.62
280.674	-5.62
280.809	24.38
280.943	-4.62
281.078	-10.62
281.213	17.38
281.347	3.38
281.482	11.38
281.616	9.38
281.751	-2.62
281.885	-22.62
282.02	5.38
282.154	13.38
282.288	-9.62
282.423	-1.62
282.557	-13.62
282.692	14.38
282.826	-5.62
282.961	2.38
283.095	-19.62
283.229	-2.62
283.364	-17.62
283.498	-9.62
283.633	-2.62
283.767	6.38
283.901	9.38
284.036	-1.62
284.17	-14.62
284.304	-5.62
284.439	11.38
284.573	-15.62
284.707	13.38
284.842	-9.62
284.976	-9.62
285.11	-25.62
285.244	-3.62
285.379	46.38
285.513	-11.62
285.647	-2.62
285.781	-4.62
285.916	20.38
286.05	-2.62
286.184	26.38
286.318	9.38
286.453	-26.62
286.587	-38.62
286.721	-4.62
286.855	18.38
286.989	20.38
287.123	7.38
287.258	-11.62
287.392	-11.62
287.526	9.38
287.66	-12.62
287.794	2.38
287.928	-3.62
288.062	17.38
288.196	-3.62
288.33	17.38
288.464	23.38
288.598	10.38
288.733	6.38
288.867	18.38
289.001	-7.62
289.135	-3.62
289.269	-24.62
289.403	-8.62
289.537	3.38
289.671	5.38
289.805	-19.62
289.939	-9.62
290.073	9.38
290.207	8.38
290.34	-20.62
290.474	15.38
290.608	19.38
290.742	-2.62
290.876	5.38
291.01	0.38
291.144	25.38
291.278	3.38
291.412	-1.62
291.546	-5.62
291.679	-9.62
291.813	-15.62
291.947	-0.62
292.081	-22.62
292.215	1.38
292.349	14.38
292.482	0.38
292.616	-7.62
292.75	-0.62
292.884	5.38
293.018	-3.62
293.151	-29.62
293.285	4.38
293.419	-3.62
293.553	-8.62
293.686	-27.62
293.82	4.38
293.954	20.38
294.088	24.38
294.221	1.38
294.355	-9.62
294.489	-9.62
294.622	-18.62
294.756	-16.62
294.89	8.38
295.023	12.38
295.157	-2.62
295.291	17.38
295.424	-12.62
295.558	12.38
295.691	4.38
295.825	-0.62
295.959	7.38
296.092	7.38
296.226	18.38
296.359	13.38
296.493	2.38
296.627	-0.62
296.76	2.38
296.894	-15.62
297.027	3.38
297.161	-16.62
297.294	-24.62
297.428	-24.62
297.561	19.38
297.695	-3.62
297.828	-11.62
297.962	-14.62
298.095	-24.62
298.229	-12.62
298.362	-6.62
298.495	-9.62
298.629	-8.62
298.762	-1.62
298.896	-9.62
299.029	-7.62
299.162	11.38
299.296	5.38
299.429	-16.62
299.563	13.38
299.696	18.38
299.829	9.38
299.963	2.38
300.096	20.38
300.229	8.38
300.363	-5.62
300.496	-26.62
300.629	-18.62
300.763	-11.62
300.896	-1.62
301.029	21.38
301.162	-12.62
301.296	-10.62
301.429	-2.62
301.562	-18.62
301.695	13.38
301.829	10.38
301.962	5.38
302.095	-7.62
302.228	-26.62
302.362	-3.62
302.495	-27.62
302.628	-11.62
302.761	-17.62
302.894	-0.62
303.027	12.38
303.161	-7.62
303.294	-11.62
303.427	9.38
303.56	3.38
303.693	-1.62
303.826	-4.62
303.959	-2.62
304.092	-10.62
304.225	-10.62
304.359	-3.62
304.492	17.38
304.625	-11.62
304.758	6.38
304.891	-15.62
305.024	1.38
305.157	-5.62
305.29	1.38
305.423	-11.62
305.556	2.38
305.689	14.38
305.822	-1.62
305.955	6.38
306.088	-1.62
306.221	-10.62
306.354	-12.62
306.487	-9.62
306.62	-9.62
306.752	-13.62
306.885	-3.62
307.018	-15.62
307.151	-9.62
307.284	9.38
307.417	-13.62
307.55	-0.62
307.683	5.38
307.816	17.38
307.948	0.38
308.081	17.38
308.214	14.38
308.347	40.38
308.48	-15.62
308.613	-0.62
308.745	8.38
308.878	-19.62
309.011	5.38
309.144	14.38
309.277	-8.62
309.409	4.38
309.542	-8.62
309.675	11.38
309.808	3.38
309.94	11.38
310.073	-23.62
310.206	-20.62
310.339	12.38
310.471	4.38
310.604	19.38
310.737	-1.62
310.869	-6.62
311.002	-9.62
311.135	-15.62
311.267	-34.62
311.4	1.38
311.533	17.38
311.665	-1.62
311.798	-3.62
311.93	2.38
312.063	22.38
312.196	-0.62
312.328	-4.62
312.461	-1.62
312.593	9.38
312.726	15.38
312.859	6.38
312.991	14.38
313.124	-18.62
313.256	3.38
313.389	0.38
313.521	-28.62
313.654	-15.62
313.786	-10.62
313.919	-7.62
314.051	-11.62
314.184	6.38
314.316	19.38
314.449	-19.62
314.581	11.38
314.714	-0.62
314.846	4.38
314.978	-9.62
315.111	-11.62
315.243	-10.62
315.376	-11.62
315.508	11.38
315.641	11.38
315.773	14.38
315.905	13.38
316.038	-11.62
316.17	0.38
316.302	17.38
316.435	4.38
316.567	-15.62
316.699	11.38
316.832	11.38
316.964	3.38
317.096	8.38
317.229	-25.62
317.361	-17.62
317.493	6.38
317.625	-18.62
317.758	22.38
317.89	28.38
318.022	-5.62
318.155	-0.62
318.287	3.38
318.419	4.38
318.551	12.38
318.683	-14.62
318.816	-1.62
318.948	0.38
319.08	-21.62
319.212	-5.62
319.344	-6.62
319.477	8.38
319.609	4.38
319.741	6.38
319.873	-15.62
320.005	8.38
320.137	24.38
320.269	17.38
320.401	5.38
320.534	-3.62
320.666	-18.62
320.798	-14.62
320.93	-13.62
321.062	-21.62
321.194	-19.62
321.326	8.38
321.458	15.38
321.59	-4.62
321.722	-21.62
321.854	-15.62
321.986	-3.62
322.118	-5.62
322.25	-15.62
322.382	17.38
322.514	-7.62
322.646	-20.62
322.778	13.38
322.91	6.38
323.042	11.38
323.174	2.38
323.306	-16.62
323.438	-18.62
323.57	0.38
323.702	6.38
323.834	-14.62
323.966	-13.62
324.097	2.38
324.229	11.38
324.361	13.38
324.493	3.38
324.625	-8.62
324.757	-2.62
324.889	0.38
325.021	-15.62
325.152	15.38
325.284	17.38
325.416	-13.62
325.548	-2.62
325.68	-8.62
325.811	10.38
325.943	14.38
326.075	-18.62
326.207	-14.62
326.339	6.38
326.47	-9.62
326.602	22.38
326.734	2.38
326.866	20.38
326.997	-30.62
327.129	-18.62
327.261	-19.62
327.392	15.38
327.524	3.38
327.656	-0.62
327.787	-1.62
327.919	11.38
328.051	14.38
328.182	16.38
328.314	26.38
328.446	5.38
328.577	13.38
328.709	16.38
328.841	-19.62
328.972	-10.62
329.104	-6.62
329.235	-5.62
329.367	-23.62
329.499	9.38
329.63	-2.62
329.762	-6.62
329.893	7.38
330.025	3.38
330.156	-13.62
330.288	3.38
330.419	18.38
330.551	21.38
330.683	12.38
330.814	1.38
330.946	10.38
331.077	-2.62
331.208	2.38
331.34	-12.62
331.471	-18.62
331.603	-10.62
331.734	-8.62
331.866	-6.62
331.997	14.38
332.129	6.38
332.26	-16.62
332.392	0.38
332.523	5.38
332.654	-6.62
332.786	-1.62
332.917	3.38
333.048	11.38
333.18	19.38
333.311	-19.62
333.443	-10.62
333.574	7.38
333.705	12.38
333.837	-1.62
333.968	-6.62
334.099	16.38
334.231	14.38
334.362	-0.62
334.493	29.38
334.624	18.38
334.756	19.38
334.887	-3.62
335.018	5.38
335.15	-9.62
335.281	-6.62
335.412	3.38
335.543	2.38
335.675	-14.62
335.806	-7.62
335.937	-2.62
336.068	5.38
336.199	15.38
336.331	13.38
336.462	-1.62
336.593	16.38
336.724	-13.62
336.855	-8.62
336.986	-5.62
337.118	-4.62
337.249	-4.62
337.38	-0.62
337.511	3.38
337.642	16.38
337.773	-12.62
337.904	10.38
338.035	-1.62
338.166	-5.62
338.298	-9.62
338.429	-27.62
338.56	14.38
338.691	28.38
338.822	5.38
338.953	6.38
339.084	0.38
339.215	21.38
339.346	4.38
339.477	0.38
339.608	7.38
339.739	7.38
339.87	-22.62
340.001	-5.62
340.132	9.38
340.263	4.38
340.394	26.38
340.525	-0.62
340.656	-9.62
340.787	-14.62
340.918	18.38
341.049	16.38
341.179	-4.62
341.31	1.38
341.441	0.38
341.572	10.38
341.703	16.38
341.834	1.38
341.965	-1.62
342.096	-13.62
342.227	-4.62
342.357	-8.62
342.488	8.38
342.619	6.38
342.75	9.38
342.881	3.38
343.012	16.38
343.142	10.38
343.273	-19.62
343.404	1.38
343.535	33.38
343.666	16.38
343.796	1.38
343.927	5.38
344.058	24.38
344.189	-6.62
344.319	-15.62
344.45	-4.62
344.581	-4.62
344.712	-25.62
344.842	2.38
344.973	-7.62
345.104	10.38
345.234	-2.62
345.365	-14.62
345.496	4.38
345.626	5.38
345.757	12.38
345.888	-15.62
346.018	9.38
346.149	1.38
346.28	21.38
346.41	-0.62
346.541	3.38
346.672	-2.62
346.802	5.38
346.933	-1.62
347.063	1.38
347.194	-9.62
347.325	9.38
347.455	-1.62
347.586	-5.62
347.716	-14.62
347.847	4.38
347.977	7.38
348.108	3.38
348.238	14.38
348.369	3.38
348.499	3.38
348.63	4.38
348.76	4.38
348.891	5.38
349.021	-10.62
349.152	6.38
349.282	-2.62
349.413	-11.62
349.543	-17.62
349.674	6.38
349.804	21.38
349.935	-7.62
350.065	-0.62
350.196	8.38
350.326	1.38
350.456	-9.62
350.587	14.38
350.717	-5.62
350.848	13.38
350.978	26.38
351.108	-17.62
351.239	26.38
351.369	-6.62
351.499	17.38
351.63	19.38
351.76	-2.62
351.89	7.38
352.021	-2.62
352.151	-16.62
352.281	-3.62
352.412	-2.62
352.542	15.38
352.672	-4.62
352.803	13.38
352.933	-1.62
353.063	-12.62
353.193	15.38
353.324	19.38
353.454	6.38
353.584	5.38
353.714	-3.62
353.845	10.38
353.975	-10.62
354.105	-19.62
354.235	9.38
354.365	10.38
354.496	-21.62
354.626	15.38
354.756	6.38
354.886	-0.62
355.016	23.38
355.146	7.38
355.277	-8.62
355.407	4.38
355.537	4.38
355.667	5.38
355.797	-6.62
355.927	-0.62
356.057	14.38
356.187	-11.62
356.318	-3.62
356.448	-0.62
356.578	-2.62
356.708	6.38
356.838	0.38
356.968	0.38
357.098	6.38
357.228	-4.62
357.358	-10.62
357.488	12.38
357.618	12.38
357.748	12.38
357.878	2.38
358.008	1.38
358.138	5.38
358.268	5.38
358.398	-1.62
358.528	-27.62
358.658	3.38
358.788	12.38
358.918	5.38
359.048	1.38
359.178	9.38
359.308	3.38
359.438	5.38
359.568	16.38
359.698	4.38
359.827	-12.62
359.957	-9.62
360.087	-2.62
360.217	-4.62
360.347	6.38
360.477	11.38
360.607	0.38
360.737	17.38
360.866	-4.62
360.996	-8.62
361.126	-2.62
361.256	4.38
361.386	0.38
361.516	-1.62
361.645	-16.62
361.775	5.38
361.905	-24.62
362.035	-1.62
362.165	1.38
362.294	1.38
362.424	17.38
362.554	6.38
362.684	-10.62
362.813	-17.62
362.943	4.38
363.073	-5.62
363.203	-8.62
363.332	13.38
363.462	-18.62
363.592	6.38
363.721	-26.62
363.851	1.38
363.981	12.38
364.111	4.38
364.24	-3.62
364.37	15.38
364.5	25.38
364.629	14.38
364.759	-4.62
364.888	-39.62
365.018	0.38
365.148	-12.62
365.277	4.38
365.407	8.38
365.537	9.38
365.666	-7.62
365.796	-2.62
365.925	9.38
366.055	21.38
366.184	-11.62
366.314	-7.62
366.444	22.38
366.573	10.38
366.703	-9.62
366.832	-0.62
366.962	-1.62
367.091	1.38
367.221	16.38
367.35	2.38
367.48	27.38
367.609	14.38
367.739	10.38
367.868	0.38
367.998	-1.62
368.127	21.38
368.257	20.38
368.386	19.38
368.516	6.38
368.645	7.38
368.775	4.38
368.904	10.38
369.033	-9.62
369.163	-13.62
369.292	0.38
369.422	25.38
369.551	15.38
369.68	7.38
369.81	6.38
369.939	-10.62
370.069	18.38
370.198	17.38
370.327	-14.62
370.457	-10.62
370.586	22.38
370.715	16.38
370.845	-10.62
370.974	3.38
371.103	8.38
371.233	13.38
371.362	14.38
371.491	-7.62
371.621	6.38
371.75	-13.62
371.879	-12.62
372.008	7.38
372.138	-10.62
372.267	11.38
372.396	4.38
372.525	17.38
372.655	-1.62
372.784	9.38
372.913	-5.62
373.042	-6.62
373.172	10.38
373.301	-24.62
373.43	-27.62
373.559	6.38
373.688	20.38
373.818	-9.62
373.947	11.38
374.076	-9.62
374.205	14.38
374.334	-6.62
374.463	-9.62
374.593	14.38
374.722	-5.62
374.851	1.38
374.98	-5.62
375.109	11.38
375.238	13.38
375.367	30.38
375.496	-22.62
375.625	-1.62
375.755	18.38
375.884	24.38
376.013	18.38
376.142	-15.62
376.271	-8.62
376.4	3.38
376.529	5.38
376.658	17.38
376.787	-1.62
376.916	10.38
377.045	-3.62
377.174	8.38
377.303	5.38
377.432	7.38
377.561	6.38
377.69	3.38
377.819	19.38
377.948	-9.62
378.077	-11.62
378.206	-5.62
378.335	-4.62
378.464	13.38
378.593	22.38
378.722	-6.62
378.851	-1.62
378.98	13.38
379.108	5.38
379.237	8.38
379.366	-1.62
379.495	-13.62
379.624	9.38
379.753	-3.62
379.882	4.38
380.011	-8.62
380.14	-2.62
380.268	15.38
380.397	-6.62
380.526	17.38
380.655	-2.62
380.784	-22.62
380.913	4.38
381.041	14.38
381.17	-7.62
381.299	-12.62
381.428	-7.62
381.557	-7.62
381.685	-6.62
381.814	9.38
381.943	0.38
382.072	3.38
382.2	3.38
382.329	13.38
382.458	3.38
382.587	19.38
382.715	29.38
382.844	11.38
382.973	10.38
383.102	4.38
383.23	6.38
383.359	3.38
383.488	4.38
383.616	1.38
383.745	1.38
383.874	1.38
384.003	-1.62
384.131	1.38
384.26	-7.62
384.389	-1.62
384.517	-8.62
384.646	-14.62
384.774	-4.62
384.903	22.38
385.032	27.38
385.16	-13.62
385.289	-8.62
385.418	-8.62
385.546	15.38
385.675	31.38
385.803	16.38
385.932	11.38
386.06	-1.62
386.189	7.38
386.318	3.38
386.446	15.38
386.575	2.38
386.703	-9.62
386.832	-22.62
386.96	-17.62
387.089	18.38
387.217	-3.62
387.346	-9.62
387.474	14.38
387.603	3.38
387.731	0.38
387.86	7.38
387.988	16.38
388.117	-3.62
388.245	5.38
388.374	-2.62
388.502	10.38
388.631	-19.62
388.759	-7.62
388.888	9.38
389.016	-0.62
389.144	-5.62
389.273	-11.62
389.401	-18.62
389.53	-15.62
389.658	16.38
389.786	-6.62
389.915	-15.62
390.043	-36.62
390.172	4.38
390.3	6.38
390.428	-22.62
390.557	4.38
390.685	4.38
390.813	9.38
390.942	1.38
391.07	-5.62
391.198	-1.62
391.327	7.38
391.455	5.38
391.583	30.38
391.712	2.38
391.84	-3.62
391.968	0.38
392.096	11.38
392.225	-10.62
392.353	2.38
392.481	-7.62
392.609	36.38
392.738	8.38
392.866	4.38
392.994	-16.62
393.122	25.38
393.251	1.38
393.379	10.38
393.507	-2.62
393.635	-1.62
393.764	-16.62
393.892	8.38
394.02	-7.62
394.148	-8.62
394.276	8.38
394.404	21.38
394.533	5.38
394.661	11.38
394.789	16.38
394.917	28.38
395.045	6.38
395.173	-6.62
395.302	-2.62
395.43	-12.62
395.558	2.38
395.686	0.38
395.814	0.38
395.942	-8.62
396.07	-11.62
396.198	10.38
396.326	19.38
396.454	20.38
396.582	3.38
396.711	-0.62
396.839	4.38
396.967	14.38
397.095	4.38
397.223	2.38
397.351	17.38
397.479	12.38
397.607	-7.62
397.735	20.38
397.863	14.38
397.991	-2.62
398.119	0.38
398.247	11.38
398.375	-1.62
398.503	12.38
398.631	-3.62
398.759	6.38
398.887	10.38
399.015	0.38
399.143	-1.62
399.271	-2.62
399.399	17.38
399.526	-9.62
399.654	8.38
399.782	-11.62
399.91	27.38
400.038	7.38
400.166	-9.62
400.294	-9.62
400.422	-8.62
400.55	1.38
400.678	5.38
400.805	10.38
400.933	5.38
401.061	13.38
401.189	2.38
401.317	27.38
401.445	12.38
401.573	1.38
401.7	-5.62
401.828	-11.62
401.956	10.38
402.084	22.38
402.212	7.38
402.34	0.38
402.467	8.38
402.595	5.38
402.723	7.38
402.851	9.38
402.978	0.38
403.106	3.38
403.234	-2.62
403.362	5.38
403.489	7.38
403.617	2.38
403.745	11.38
403.873	-10.62
404	9.38
404.128	16.38
404.256	18.38
404.384	23.38
404.511	8.38
404.639	0.38
404.767	-15.62
404.894	6.38
405.022	5.38
405.15	18.38
405.277	-7.62
405.405	-14.62
405.533	-3.62
405.66	17.38
405.788	-6.62
405.916	-14.62
406.043	-7.62
406.171	-10.62
406.299	2.38
406.426	-9.62
406.554	8.38
406.681	11.38
406.809	16.38
406.937	-8.62
407.064	-6.62
407.192	5.38
407.319	13.38
407.447	-23.62
407.574	28.38
407.702	14.38
407.83	-14.62
407.957	-5.62
408.085	-6.62
408.212	-6.62
408.34	-0.62
408.467	-6.62
408.595	7.38
408.722	14.38
408.85	35.38
408.977	4.38
409.105	-1.62
409.232	0.38
409.36	12.38
409.487	8.38
409.615	4.38
409.742	16.38
409.87	24.38
409.997	51.38
410.125	47.38
410.252	44.38
410.379	56.38
410.507	32.38
410.634	16.38
410.762	9.38
410.889	30.38
411.017	16.38
411.144	7.38
411.271	-3.62
411.399	-3.62
411.526	-2.62
411.653	22.38
411.781	16.38
411.908	1.38
412.036	1.38
412.163	29.38
412.29	25.38
412.418	19.38
412.545	15.38
412.672	-6.62
412.8	28.38
412.927	9.38
413.054	31.38
413.182	15.38
413.309	13.38
413.436	-3.62
413.564	-4.62
413.691	4.38
413.818	8.38
413.945	-2.62
414.073	-13.62
414.2	6.38
414.327	3.38
414.454	13.38
414.582	2.38
414.709	-10.62
414.836	-2.62
414.963	11.38
415.091	13.38
415.218	-3.62
415.345	-1.62
415.472	2.38
415.6	-17.62
415.727	2.38
415.854	3.38
415.981	16.38
416.108	8.38
416.236	-10.62
416.363	21.38
416.49	-7.62
416.617	-21.62
416.744	14.38
416.871	9.38
416.998	8.38
417.126	-1.62
417.253	-3.62
417.38	-7.62
417.507	8.38
417.634	-9.62
417.761	4.38
417.888	6.38
418.015	8.38
418.143	2.38
418.27	38.38
418.397	0.38
418.524	18.38
418.651	6.38
418.778	-3.62
418.905	33.38
419.032	15.38
419.159	13.38
419.286	30.38
419.413	11.38
419.54	22.38
419.667	4.38
419.794	-15.62
419.921	2.38
420.048	11.38
420.175	11.38
420.302	-12.62
420.429	-7.62
420.556	-0.62
420.683	-3.62
420.81	-2.62
420.937	13.38
421.064	1.38
421.191	-6.62
421.318	7.38
421.445	19.38
421.572	5.38
421.699	27.38
421.826	-0.62
421.953	3.38
422.08	2.38
422.207	-17.62
422.334	-21.62
422.461	22.38
422.588	20.38
422.714	2.38
422.841	19.38
422.968	22.38
423.095	8.38
423.222	0.38
423.349	-3.62
423.476	5.38
423.603	-1.62
423.729	-1.62
423.856	20.38
423.983	21.38
424.11	5.38
424.237	4.38
424.364	8.38
424.491	12.38
424.617	3.38
424.744	1.38
424.871	18.38
424.998	-10.62
425.125	4.38
425.251	7.38
425.378	-8.62
425.505	9.38
425.632	6.38
425.758	-1.62
425.885	14.38
426.012	28.38
426.139	26.38
426.266	4.38
426.392	29.38
426.519	18.38
426.646	15.38
426.772	10.38
426.899	7.38
427.026	9.38
427.153	20.38
427.279	23.38
427.406	21.38
427.533	22.38
427.659	-5.62
427.786	3.38
427.913	37.38
428.039	1.38
428.166	8.38
428.293	-2.62
428.419	4.38
428.546	8.38
428.673	0.38
428.799	-3.62
428.926	-3.62
429.053	22.38
429.179	10.38
429.306	12.38
429.433	20.38
429.559	28.38
429.686	7.38
429.812	1.38
429.939	3.38
430.066	6.38
430.192	4.38
430.319	2.38
430.445	-11.62
430.572	7.38
430.699	-12.62
430.825	-3.62
430.952	5.38
431.078	-10.62
431.205	-3.62
431.331	-7.62
431.458	12.38
431.584	23.38
431.711	5.38
431.837	18.38
431.964	15.38
432.09	-7.62
432.217	-17.62
432.343	2.38
432.47	14.38
432.596	24.38
432.723	11.38
432.849	1.38
432.976	16.38
433.102	-8.62
433.229	-3.62
433.355	18.38
433.482	70.38
433.608	145.38
433.735	149.38
433.861	115.38
433.987	157.38
434.114	225.38
434.24	196.38
434.367	64.38
434.493	-2.62
434.62	28.38
434.746	28.38
434.872	9.38
434.999	8.38
435.125	7.38
435.252	6.38
435.378	0.38
435.504	2.38
435.631	19.38
435.757	9.38
435.883	7.38
436.01	16.38
436.136	13.38
436.262	24.38
436.389	13.38
436.515	21.38
436.641	5.38
436.768	8.38
436.894	1.38
437.02	-5.62
437.147	18.38
437.273	1.38
437.399	-11.62
437.526	14.38
437.652	-2.62
437.778	17.38
437.904	-19.62
438.031	0.38
438.157	9.38
438.283	4.38
438.409	-12.62
438.536	-14.62
438.662	19.38
438.788	6.38
438.914	5.38
439.041	8.38
439.167	27.38
439.293	8.38
439.419	9.38
439.546	28.38
439.672	4.38
439.798	10.38
439.924	1.38
440.05	17.38
440.177	10.38
440.303	6.38
440.429	13.38
440.555	9.38
440.681	13.38
440.807	4.38
440.934	11.38
441.06	18.38
441.186	8.38
441.312	7.38
441.438	17.38
441.564	17.38
441.69	24.38
441.816	27.38
441.943	-3.62
442.069	5.38
442.195	9.38
442.321	8.38
442.447	1.38
442.573	12.38
442.699	-0.62
442.825	-18.62
442.951	9.38
443.077	20.38
443.203	5.38
443.33	-0.62
443.456	-5.62
443.582	-8.62
443.708	4.38
443.834	21.38
443.96	17.38
444.086	16.38
444.212	35.38
444.338	14.38
444.464	22.38
444.59	20.38
444.716	7.38
444.842	6.38
444.968	-7.62
445.094	-1.62
445.22	-1.62
445.346	-13.62
445.472	3.38
445.598	10.38
445.724	14.38
445.85	6.38
445.976	6.38
446.102	12.38
446.228	15.38
446.354	8.38
446.48	4.38
446.605	9.38
446.731	14.38
446.857	4.38
446.983	2.38
447.109	15.38
447.235	-10.62
447.361	-1.62
447.487	9.38
447.613	10.38
447.739	4.38
447.865	-3.62
447.99	8.38
448.116	5.38
448.242	2.38
448.368	-6.62
448.494	-19.62
448.62	5.38
448.746	1.38
448.872	6.38
448.997	4.38
449.123	4.38
449.249	40.38
449.375	22.38
449.501	5.38
449.627	-9.62
449.752	31.38
449.878	-6.62
450.004	-10.62
450.13	0.38
450.256	4.38
450.381	9.38
450.507	12.38
450.633	-9.62
450.759	6.38
450.884	-10.62
451.01	11.38
451.136	28.38
451.262	2.38
451.388	4.38
451.513	-11.62
451.639	8.38
451.765	17.38
451.89	6.38
452.016	0.38
452.142	-11.62
452.268	29.38
452.393	14.38
452.519	10.38
452.645	13.38
452.771	9.38
452.896	16.38
453.022	-4.62
453.148	20.38
453.273	13.38
453.399	-10.62
453.525	-9.62
453.65	1.38
453.776	13.38
453.902	15.38
454.027	34.38
454.153	8.38
454.279	11.38
454.404	8.38
454.53	37.38
454.656	53.38
454.781	12.38
454.907	-15.62
455.032	-12.62
455.158	29.38
455.284	29.38
455.409	30.38
455.535	8.38
455.66	16.38
455.786	25.38
455.912	13.38
456.037	13.38
456.163	2.38
456.288	21.38
456.414	-8.62
456.539	-1.62
456.665	20.38
456.791	-1.62
456.916	2.38
457.042	4.38
457.167	6.38
457.293	20.38
457.418	10.38
457.544	1.38
457.669	1.38
457.795	4.38
457.92	1.38
458.046	5.38
458.171	15.38
458.297	14.38
458.422	1.38
458.548	-2.62
458.673	0.38
458.799	2.38
458.924	-2.62
459.05	10.38
459.175	1.38
459.301	9.38
459.426	22.38
459.552	-1.62
459.677	8.38
459.803	10.38
459.928	21.38
460.053	1.38
460.179	18.38
460.304	14.38
460.43	-7.62
460.555	5.38
460.681	7.38
460.806	-1.62
460.931	6.38
461.057	22.38
461.182	17.38
461.308	14.38
461.433	8.38
461.558	-3.62
461.684	14.38
461.809	10.38
461.934	12.38
462.06	33.38
462.185	-11.62
462.311	-10.62
462.436	1.38
462.561	6.38
462.687	10.38
462.812	9.38
462.937	-0.62
463.063	-14.62
463.188	-5.62
463.313	21.38
463.439	20.38
463.564	-8.62
463.689	9.38
463.814	12.38
463.94	-2.62
464.065	13.38
464.19	17.38
464.316	-14.62
464.441	-13.62
464.566	-15.62
464.692	-6.62
464.817	7.38
464.942	9.38
465.067	-0.62
465.193	-4.62
465.318	13.38
465.443	5.38
465.568	3.38
465.694	0.38
465.819	16.38
465.944	8.38
466.069	5.38
466.194	-1.62
466.32	20.38
466.445	0.38
466.57	-13.62
466.695	-3.62
466.82	29.38
466.946	32.38
467.071	14.38
467.196	6.38
467.321	19.38
467.446	6.38
467.572	9.38
467.697	-23.62
467.822	-3.62
467.947	14.38
468.072	-12.62
468.197	2.38
468.323	-14.62
468.448	2.38
468.573	-3.62
468.698	12.38
468.823	14.38
468.948	18.38
469.073	10.38
469.198	19.38
469.324	23.38
469.449	-5.62
469.574	24.38
469.699	21.38
469.824	16.38
469.949	13.38
470.074	-1.62
470.199	20.38
470.324	37.38
470.449	24.38
470.574	23.38
470.7	16.38
470.825	31.38
470.95	9.38
471.075	-3.62
471.2	-1.62
471.325	28.38
471.45	6.38
471.575	-6.62
471.7	25.38
471.825	11.38
471.95	14.38
472.075	6.38
472.2	11.38
472.325	17.38
472.45	5.38
472.575	20.38
472.7	27.38
472.825	28.38
472.95	9.38
473.075	9.38
473.2	1.38
473.325	25.38
473.45	4.38
473.575	2.38
473.7	0.38
473.825	1.38
473.95	1.38
474.075	21.38
474.2	-1.62
474.325	-1.62
474.45	14.38
474.574	27.38
474.699	14.38
474.824	10.38
474.949	-4.62
475.074	-7.62
475.199	23.38
475.324	4.38
475.449	5.38
475.574	21.38
475.699	20.38
475.824	5.38
475.949	7.38
476.073	-9.62
476.198	10.38
476.323	9.38
476.448	13.38
476.573	-23.62
476.698	25.38
476.823	10.38
476.947	22.38
477.072	-9.62
477.197	-12.62
477.322	-2.62
477.447	4.38
477.572	18.38
477.697	19.38
477.821	5.38
477.946	26.38
478.071	26.38
478.196	17.38
478.321	20.38
478.445	3.38
478.57	15.38
478.695	16.38
478.82	13.38
478.945	1.38
479.069	4.38
479.194	-10.62
479.319	-5.62
479.444	17.38
479.569	23.38
479.693	15.38
479.818	25.38
479.943	15.38
480.068	2.38
480.192	11.38
480.317	31.38
480.442	17.38
480.567	8.38
480.691	26.38
480.816	12.38
480.941	-6.62
481.066	-0.62
481.19	31.38
481.315	17.38
481.44	5.38
481.564	-8.62
481.689	25.38
481.814	12.38
481.938	21.38
482.063	6.38
482.188	32.38
482.313	25.38
482.437	10.38
482.562	4.38
482.687	15.38
482.811	25.38
482.936	7.38
483.061	8.38
483.185	13.38
483.31	41.38
483.435	14.38
483.559	9.38
483.684	3.38
483.808	35.38
483.933	21.38
484.058	1.38
484.182	6.38
484.307	1.38
484.432	7.38
484.556	2.38
484.681	15.38
484.805	16.38
484.93	15.38
485.055	30.38
485.179	55.38
485.304	110.38
485.428	343.38
485.553	1214.38
485.678	1714.38
485.802	1624.38
485.927	1772.38
486.051	2678.38
486.176	1598.38
486.3	440.38
486.425	122.38
486.549	74.38
486.674	61.38
486.799	31.38
486.923	12.38
487.048	21.38
487.172	18.38
487.297	28.38
487.421	37.38
487.546	24.38
487.67	24.38
487.795	11.38
487.919	18.38
488.044	27.38
488.168	31.38
488.293	18.38
488.417	0.38
488.542	12.38
488.666	22.38
488.791	12.38
488.915	17.38
489.04	18.38
489.164	37.38
489.289	27.38
489.413	20.38
489.538	0.38
489.662	28.38
489.786	18.38
489.911	22.38
490.035	3.38
490.16	-7.62
490.284	4.38
490.409	-10.62
490.533	8.38
490.658	38.38
490.782	13.38
490.906	2.38
491.031	32.38
491.155	15.38
491.28	19.38
491.404	16.38
491.528	12.38
491.653	2.38
491.777	19.38
491.902	-3.62
492.026	26.38
492.15	9.38
492.275	29.38
492.399	11.38
492.524	11.38
492.648	24.38
492.772	8.38
492.897	21.38
493.021	16.38
493.145	18.38
493.27	15.38
493.394	12.38
493.518	-11.62
493.643	-18.62
493.767	27.38
493.891	4.38
494.016	16.38
494.14	4.38
494.264	-4.62
494.389	17.38
494.513	16.38
494.637	-0.62
494.762	13.38
494.886	25.38
495.01	21.38
495.134	2.38
495.259	26.38
495.383	22.38
495.507	6.38
495.632	18.38
495.756	50.38
495.88	34.38
496.004	25.38
496.129	-3.62
496.253	19.38
496.377	4.38
496.501	14.38
496.626	11.38
496.75	21.38
496.874	25.38
496.998	9.38
497.123	16.38
497.247	15.38
497.371	16.38
497.495	8.38
497.62	14.38
497.744	-14.62
497.868	-0.62
497.992	3.38
498.116	4.38
498.241	12.38
498.365	8.38
498.489	-6.62
498.613	29.38
498.737	8.38
498.862	6.38
498.986	8.38
499.11	-8.62
499.234	-7.62
499.358	7.38
499.482	0.38
499.607	9.38
499.731	25.38
499.855	23.38
499.979	11.38
500.103	4.38
500.227	18.38
500.351	23.38
500.476	11.38
500.6	-1.62
500.724	22.38
500.848	12.38
500.972	10.38
501.096	10.38
501.22	24.38
501.344	18.38
501.469	17.38
501.593	-1.62
501.717	15.38
501.841	32.38
501.965	-4.62
502.089	5.38
502.213	-9.62
502.337	-0.62
502.461	-5.62
502.585	-0.62
502.709	-2.62
502.834	18.38
502.958	21.38
503.082	29.38
503.206	2.38
503.33	26.38
503.454	25.38
503.578	19.38
503.702	20.38
503.826	-1.62
503.95	19.38
504.074	5.38
504.198	18.38
504.322	-1.62
504.446	22.38
504.57	18.38
504.694	12.38
504.818	15.38
504.942	28.38
505.066	0.38
505.19	10.38
505.314	9.38
505.438	10.38
505.562	4.38
505.686	9.38
505.81	10.38
505.934	11.38
506.058	-3.62
506.182	16.38
506.306	12.38
506.43	-0.62
506.554	8.38
506.678	20.38
506.802	9.38
506.926	15.38
507.05	17.38
507.174	27.38
507.298	11.38
507.422	12.38
507.546	15.38
507.67	26.38
507.794	0.38
507.918	7.38
508.042	11.38
508.165	-0.62
508.289	2.38
508.413	2.38
508.537	-12.62
508.661	-2.62
508.785	10.38
508.909	8.38
509.033	12.38
509.157	-3.62
509.281	30.38
509.405	0.38
509.528	21.38
509.652	13.38
509.776	2.38
509.9	17.38
510.024	-3.62
510.148	11.38
510.272	21.38
510.396	17.38
510.519	6.38
510.643	16.38
510.767	1.38
510.891	-3.62
511.015	-1.62
511.139	2.38
511.263	30.38
511.386	11.38
511.51	6.38
511.634	-1.62
511.758	7.38
511.882	-10.62
512.006	2.38
512.129	12.38
512.253	37.38
512.377	5.38
512.501	-2.62
512.625	16.38
512.748	11.38
512.872	-2.62
512.996	3.38
513.12	-9.62
513.244	2.38
513.367	14.38
513.491	10.38
513.615	11.38
513.739	8.38
513.862	5.38
513.986	17.38
514.11	21.38
514.234	3.38
514.358	8.38
514.481	23.38
514.605	6.38
514.729	14.38
514.853	21.38
514.976	-9.62
515.1	-6.62
515.224	12.38
515.348	9.38
515.471	12.38
515.595	7.38
515.719	2.38
515.842	28.38
515.966	10.38
516.09	22.38
516.214	10.38
516.337	32.38
516.461	13.38
516.585	3.38
516.708	18.38
516.832	-3.62
516.956	15.38
517.08	13.38
517.203	18.38
517.327	20.38
517.451	18.38
517.574	37.38
517.698	2.38
517.822	20.38
517.945	22.38
518.069	27.38
518.193	37.38
518.316	19.38
518.44	27.38
518.564	14.38
518.687	28.38
518.811	42.38
518.935	60.38
519.058	28.38
519.182	32.38
519.306	37.38
519.429	17.38
519.553	52.38
519.676	24.38
519.8	9.38
519.924	11.38
520.047	15.38
520.171	6.38
520.294	1.38
520.418	21.38
520.542	8.38
520.665	13.38
520.789	7.38
520.913	14.38
521.036	-15.62
521.16	-5.62
521.283	10.38
521.407	2.38
521.53	9.38
521.654	-7.62
521.778	13.38
521.901	6.38
522.025	24.38
522.148	23.38
522.272	16.38
522.395	10.38
522.519	21.38
522.643	7.38
522.766	-6.62
522.89	25.38
523.013	19.38
523.137	-1.62
523.26	4.38
523.384	21.38
523.507	17.38
523.631	20.38
523.754	0.38
523.878	9.38
524.002	6.38
524.125	1.38
524.249	4.38
524.372	17.38
524.496	9.38
524.619	1.38
524.743	14.38
524.866	4.38
524.99	21.38
525.113	-9.62
525.237	21.38
525.36	18.38
525.484	12.38
525.607	-9.62
525.731	-5.62
525.854	6.38
525.978	18.38
526.101	-11.62
526.224	12.38
526.348	6.38
526.471	32.38
526.595	17.38
526.718	9.38
526.842	10.38
526.965	30.38
527.089	2.38
527.212	-26.62
527.336	-13.62
527.459	10.38
527.582	11.38
527.706	1.38
527.829	15.38
527.953	7.38
528.076	17.38
528.2	1.38
528.323	24.38
528.446	23.38
528.57	19.38
528.693	2.38
528.817	2.38
528.94	7.38
529.064	31.38
529.187	9.38
529.31	4.38
529.434	9.38
529.557	-4.62
529.68	15.38
529.804	22.38
529.927	-3.62
530.051	7.38
530.174	-8.62
530.297	-3.62
530.421	26.38
530.544	15.38
530.668	7.38
530.791	-5.62
530.914	36.38
531.038	20.38
531.161	-5.62
531.284	6.38
531.408	4.38
531.531	-1.62
531.654	-0.62
531.778	19.38
531.901	-5.62
532.024	-10.62
532.148	3.38
532.271	8.38
532.394	18.38
532.518	17.38
532.641	16.38
532.764	38.38
532.888	16.38
533.011	-5.62
533.134	10.38
533.258	35.38
533.381	-0.62
533.504	20.38
533.628	-1.62
533.751	9.38
533.874	-1.62
533.997	12.38
534.121	-1.62
534.244	13.38
534.367	4.38
534.491	-6.62
534.614	1.38
534.737	1.38
534.86	13.38
534.984	-5.62
535.107	-6.62
535.23	3.38
535.354	12.38
535.477	-12.62
535.6	0.38
535.723	19.38
535.847	-2.62
535.97	6.38
536.093	16.38
536.216	-1.62
536.34	17.38
536.463	-1.62
536.586	24.38
536.709	5.38
536.833	7.38
536.956	-8.62
537.079	13.38
537.202	37.38
537.325	5.38
537.449	-31.62
537.572	2.38
537.695	-5.62
537.818	-6.62
537.941	15.38
538.065	5.38
538.188	7.38
538.311	23.38
538.434	13.38
538.558	9.38
538.681	10.38
538.804	10.38
538.927	18.38
539.05	20.38
539.173	18.38
539.297	3.38
539.42	1.38
539.543	5.38
539.666	29.38
539.789	8.38
539.913	5.38
540.036	-5.62
540.159	-0.62
540.282	-11.62
540.405	-15.62
540.528	8.38
540.651	26.38
540.775	-6.62
540.898	16.38
541.021	24.38
541.144	13.38
541.267	-1.62
541.39	10.38
541.513	18.38
541.637	-2.62
541.76	-2.62
541.883	6.38
542.006	9.38
542.129	30.38
542.252	10.38
542.375	23.38
542.498	8.38
542.622	-5.62
542.745	-0.62
542.868	19.38
542.991	28.38
543.114	8.38
543.237	39.38
543.36	23.38
543.483	10.38
543.606	19.38
543.73	28.38
543.853	4.38
543.976	6.38
544.099	-1.62
544.222	17.38
544.345	12.38
544.468	24.38
544.591	18.38
544.714	19.38
544.837	30.38
544.96	16.38
545.083	5.38
545.206	14.38
545.329	8.38
545.453	4.38
545.576	10.38
545.699	8.38
545.822	9.38
545.945	16.38
546.068	-3.62
546.191	9.38
546.314	-4.62
546.437	30.38
546.56	7.38
546.683	2.38
546.806	11.38
546.929	12.38
547.052	-1.62
547.175	-4.62
547.298	18.38
547.421	0.38
547.544	-1.62
547.667	12.38
547.79	22.38
547.913	3.38
548.036	-6.62
548.159	-2.62
548.282	10.38
548.405	3.38
548.528	14.38
548.651	2.38
548.774	12.38
548.897	14.38
549.02	30.38
549.143	43.38
549.266	26.38
549.389	12.38
549.512	3.38
549.635	32.38
549.758	16.38
549.881	1.38
550.004	-2.62
550.127	6.38
550.25	7.38
550.373	2.38
550.496	11.38
550.619	-9.62
550.742	5.38
550.865	-13.62
550.988	24.38
551.111	20.38
551.234	13.38
551.356	8.38
551.479	21.38
551.602	0.38
551.725	8.38
551.848	15.38
551.971	21.38
552.094	5.38
552.217	9.38
552.34	15.38
552.463	-5.62
552.586	13.38
552.709	15.38
552.832	5.38
552.955	9.38
553.077	22.38
553.2	7.38
553.323	-5.62
553.446	1.38
553.569	-2.62
553.692	6.38
553.815	5.38
553.938	5.38
554.061	24.38
554.184	6.38
554.306	14.38
554.429	9.38
554.552	9.38
554.675	-1.62
554.798	-7.62
554.921	17.38
555.044	6.38
555.167	-9.62
555.29	-7.62
555.412	-2.62
555.535	1.38
555.658	5.38
555.781	17.38
555.904	0.38
556.027	-3.62
556.15	-7.62
556.272	1.38
556.395	27.38
556.518	-3.62
556.641	7.38
556.764	22.38
556.887	23.38
557.01	1.38
557.132	-3.62
557.255	-2.62
557.378	18.38
557.501	6.38
557.624	-7.62
557.747	4.38
557.869	4.38
557.992	13.38
558.115	12.38
558.238	-12.62
558.361	16.38
558.483	21.38
558.606	18.38
558.729	2.38
558.852	30.38
558.975	19.38
559.098	14.38
559.22	20.38
559.343	12.38
559.466	-0.62
559.589	-14.62
559.712	10.38
559.834	3.38
559.957	-0.62
560.08	1.38
560.203	13.38
560.325	38.38
560.448	23.38
560.571	18.38
560.694	-1.62
560.817	22.38
560.939	-13.62
561.062	-12.62
561.185	7.38
561.308	14.38
561.43	0.38
561.553	2.38
561.676	9.38
561.799	2.38
561.921	4.38
562.044	11.38
562.167	-14.62
562.29	32.38
562.413	7.38
562.535	13.38
562.658	-4.62
562.781	1.38
562.903	2.38
563.026	10.38
563.149	34.38
563.272	17.38
563.394	16.38
563.517	1.38
563.64	-12.62
563.763	0.38
563.885	17.38
564.008	21.38
564.131	25.38
564.254	-1.62
564.376	13.38
564.499	-11.62
564.622	14.38
564.744	9.38
564.867	-1.62
564.99	2.38
565.113	1.38
565.235	6.38
565.358	11.38
565.481	-13.62
565.603	7.38
565.726	-0.62
565.849	14.38
565.971	10.38
566.094	-0.62
566.217	10.38
566.34	16.38
566.462	2.38
566.585	18.38
566.708	25.38
566.83	-2.62
566.953	28.38
567.076	9.38
567.198	1.38
567.321	-3.62
567.444	7.38
567.566	3.38
567.689	-2.62
567.812	-3.62
567.934	5.38
568.057	10.38
568.18	15.38
568.302	10.38
568.425	-10.62
568.548	12.38
568.67	10.38
568.793	7.38
568.916	20.38
569.038	9.38
569.161	12.38
569.283	16.38
569.406	15.38
569.529	-10.62
569.651	2.38
569.774	1.38
569.897	-1.62
570.019	21.38
570.142	24.38
570.265	11.38
570.387	9.38
570.51	1.38
570.632	8.38
570.755	1.38
570.878	5.38
571	4.38
571.123	-0.62
571.246	25.38
571.368	11.38
571.491	7.38
571.613	-2.62
571.736	-13.62
571.859	-0.62
571.981	10.38
572.104	1.38
572.226	4.38
572.349	-14.62
572.472	7.38
572.594	7.38
572.717	14.38
572.839	3.38
572.962	-0.62
573.085	17.38
573.207	25.38
573.33	19.38
573.452	14.38
573.575	15.38
573.697	0.38
573.82	9.38
573.943	14.38
574.065	20.38
574.188	6.38
574.31	27.38
574.433	19.38
574.555	25.38
574.678	1.38
574.801	14.38
574.923	-8.62
575.046	13.38
575.168	7.38
575.291	3.38
575.413	11.38
575.536	-3.62
575.659	19.38
575.781	10.38
575.904	-7.62
576.026	20.38
576.149	12.38
576.271	29.38
576.394	16.38
576.516	0.38
576.639	18.38
576.761	-9.62
576.884	13.38
577.007	12.38
577.129	12.38
577.252	-0.62
577.374	18.38
577.497	3.38
577.619	2.38
577.742	2.38
577.864	19.38
577.987	20.38
578.109	22.38
578.232	0.38
578.354	27.38
578.477	16.38
578.599	9.38
578.722	8.38
578.844	-14.62
578.967	7.38
579.089	3.38
579.212	4.38
579.334	5.38
579.457	-2.62
579.579	17.38
579.702	5.38
579.824	17.38
579.947	-17.62
580.069	-1.62
580.192	-8.62
580.314	19.38
580.437	-1.62
580.559	28.38
580.682	17.38
580.804	12.38
580.927	16.38
581.049	31.38
581.172	16.38
581.294	19.38
581.417	19.38
581.539	14.38
581.662	21.38
581.784	23.38
581.907	25.38
582.029	13.38
582.152	2.38
582.274	16.38
582.396	11.38
582.519	9.38
582.641	-3.62
582.764	4.38
582.886	25.38
583.009	-1.62
583.131	-9.62
583.254	-2.62
583.376	18.38
583.499	28.38
583.621	16.38
583.743	17.38
583.866	-5.62
583.988	10.38
584.111	11.38
584.233	24.38
584.356	2.38
584.478	-2.62
584.601	-9.62
584.723	10.38
584.845	31.38
584.968	12.38
585.09	-12.62
585.213	21.38
585.335	4.38
585.458	17.38
585.58	3.38
585.702	16.38
585.825	23.38
585.947	7.38
586.07	-15.62
586.192	2.38
586.315	13.38
586.437	-2.62
586.559	2.38
586.682	-8.62
586.804	4.38
586.927	-0.62
587.049	0.38
587.171	-6.62
587.294	0.38
587.416	21.38
587.539	18.38
587.661	15.38
587.783	-2.62
587.906	3.38
588.028	8.38
588.151	9.38
588.273	24.38
588.395	7.38
588.518	28.38
588.64	15.38
588.763	13.38
588.885	7.38
589.007	18.38
589.13	-0.62
589.252	-7.62
589.375	2.38
589.497	3.38
589.619	-9.62
589.742	7.38
589.864	33.38
589.986	12.38
590.109	5.38
590.231	6.38
590.354	4.38
590.476	-18.62
590.598	0.38
590.721	-10.62
590.843	1.38
590.965	-6.62
591.088	14.38
591.21	12.38
591.332	10.38
591.455	-1.62
591.577	13.38
591.7	19.38
591.822	9.38
591.944	4.38
592.067	12.38
592.189	-8.62
592.311	10.38
592.434	0.38
592.556	12.38
592.678	22.38
592.801	13.38
592.923	18.38
593.045	18.38
593.168	9.38
593.29	16.38
593.412	16.38
593.535	4.38
593.657	-0.62
593.779	5.38
593.902	-1.62
594.024	25.38
594.146	31.38
594.269	9.38
594.391	-18.62
594.513	15.38
594.636	-9.62
594.758	-6.62
594.88	26.38
595.003	11.38
595.125	5.38
595.247	6.38
595.37	17.38
595.492	-5.62
595.614	16.38
595.737	8.38
595.859	12.38
595.981	10.38
596.104	14.38
596.226	1.38
596.348	-7.62
596.471	-0.62
596.593	25.38
596.715	4.38
596.838	2.38
596.96	-7.62
597.082	4.38
597.204	14.38
597.327	17.38
597.449	-6.62
597.571	5.38
597.694	25.38
597.816	4.38
597.938	9.38
598.061	-9.62
598.183	-3.62
598.305	11.38
598.427	14.38
598.55	4.38
598.672	17.38
598.794	26.38
598.917	6.38
599.039	16.38
599.161	5.38
599.283	8.38
599.406	3.38
599.528	13.38
599.65	32.38
599.773	-1.62
599.895	34.38
600.017	18.38
600.139	10.38
600.262	4.38
600.384	11.38
600.506	12.38
600.628	30.38
600.751	19.38
600.873	6.38
600.995	10.38
601.118	13.38
601.24	-5.62
601.362	22.38
601.484	20.38
601.607	24.38
601.729	20.38
601.851	-2.62
601.973	21.38
602.096	28.38
602.218	8.38
602.34	7.38
602.462	16.38
602.585	13.38
602.707	-1.62
602.829	7.38
602.951	8.38
603.074	-5.62
603.196	8.38
603.318	5.38
603.44	31.38
603.563	8.38
603.685	-7.62
603.807	6.38
603.929	2.38
604.052	21.38
604.174	12.38
604.296	5.38
604.418	8.38
604.541	28.38
604.663	2.38
604.785	5.38
604.907	0.38
605.03	-2.62
605.152	25.38
605.274	4.38
605.396	3.38
605.519	-3.62
605.641	14.38
605.763	-7.62
605.885	2.38
606.008	6.38
606.13	0.38
606.252	11.38
606.374	-5.62
606.496	4.38
606.619	-0.62
606.741	5.38
606.863	17.38
606.985	25.38
607.108	25.38
607.23	9.38
607.352	-5.62
607.474	3.38
607.596	13.38
607.719	0.38
607.841	23.38
607.963	9.38
608.085	14.38
608.207	22.38
608.33	13.38
608.452	0.38
608.574	9.38
608.696	30.38
608.819	9.38
608.941	8.38
609.063	4.38
609.185	3.38
609.307	9.38
609.43	24.38
609.552	13.38
609.674	-12.62
609.796	23.38
609.918	21.38
610.041	8.38
610.163	-10.62
610.285	12.38
610.407	14.38
610.529	-11.62
610.652	18.38
610.774	6.38
610.896	5.38
611.018	14.38
611.14	12.38
611.263	4.38
611.385	-6.62
611.507	11.38
611.629	0.38
611.751	7.38
611.873	30.38
611.996	32.38
612.118	20.38
612.24	11.38
612.362	23.38
612.484	-2.62
612.607	8.38
612.729	7.38
612.851	-1.62
612.973	-17.62
613.095	-5.62
613.218	3.38
613.34	28.38
613.462	20.38
613.584	4.38
613.706	0.38
613.828	32.38
613.951	22.38
614.073	1.38
614.195	-7.62
614.317	12.38
614.439	7.38
614.561	13.38
614.684	18.38
614.806	22.38
614.928	24.38
615.05	33.38
615.172	11.38
615.294	31.38
615.417	18.38
615.539	11.38
615.661	7.38
615.783	30.38
615.905	27.38
616.027	69.38
616.15	98.38
616.272	70.38
616.394	48.38
616.516	32.38
616.638	9.38
616.76	16.38
616.883	26.38
617.005	11.38
617.127	5.38
617.249	16.38
617.371	8.38
617.493	4.38
617.615	11.38
617.738	-0.62
617.86	0.38
617.982	9.38
618.104	11.38
618.226	-14.62
618.348	-11.62
618.471	11.38
618.593	19.38
618.715	-0.62
618.837	5.38
618.959	-9.62
619.081	24.38
619.203	9.38
619.326	-1.62
619.448	18.38
619.57	11.38
619.692	7.38
619.814	9.38
619.936	2.38
620.058	6.38
620.181	2.38
620.303	15.38
620.425	10.38
620.547	13.38
620.669	17.38
620.791	10.38
620.913	13.38
621.036	-5.62
621.158	12.38
621.28	12.38
621.402	3.38
621.524	7.38
621.646	22.38
621.768	-5.62
621.891	-14.62
622.013	4.38
622.135	0.38
622.257	-1.62
622.379	5.38
622.501	11.38
622.623	7.38
622.745	8.38
622.868	2.38
622.99	5.38
623.112	8.38
623.234	0.38
623.356	12.38
623.478	-3.62
623.6	14.38
623.722	22.38
623.845	5.38
623.967	7.38
624.089	3.38
624.211	11.38
624.333	13.38
624.455	18.38
624.577	22.38
624.699	26.38
624.822	18.38
624.944	4.38
625.066	9.38
625.188	5.38
625.31	18.38
625.432	24.38
625.554	10.38
625.676	30.38
625.799	13.38
625.921	16.38
626.043	-9.62
626.165	8.38
626.287	-3.62
626.409	13.38
626.531	0.38
626.653	8.38
626.775	16.38
626.898	19.38
627.02	12.38
627.142	19.38
627.264	10.38
627.386	21.38
627.508	0.38
627.63	8.38
627.752	17.38
627.874	8.38
627.997	5.38
628.119	24.38
628.241	10.38
628.363	35.38
628.485	-1.62
628.607	-0.62
628.729	-0.62
628.851	0.38
628.973	-6.62
629.096	-26.62
629.218	-6.62
629.34	-2.62
629.462	-7.62
629.584	1.38
629.706	5.38
629.828	26.38
629.95	18.38
630.072	-6.62
630.195	-5.62
630.317	8.38
630.439	11.38
630.561	6.38
630.683	1.38
630.805	11.38
630.927	10.38
631.049	3.38
631.171	0.38
631.293	4.38
631.416	0.38
631.538	8.38
631.66	9.38
631.782	14.38
631.904	13.38
632.026	14.38
632.148	24.38
632.27	-18.62
632.392	12.38
632.514	1.38
632.637	30.38
632.759	-1.62
632.881	-7.62
633.003	4.38
633.125	8.38
633.247	9.38
633.369	-12.62
633.491	8.38
633.613	16.38
633.735	-3.62
633.858	21.38
633.98	8.38
634.102	-28.62
634.224	-27.62
634.346	-7.62
634.468	-0.62
634.59	16.38
634.712	6.38
634.834	-2.62
634.956	-1.62
635.078	2.38
635.201	2.38
635.323	1.38
635.445	10.38
635.567	-18.62
635.689	20.38
635.811	9.38
635.933	-1.62
636.055	4.38
636.177	-1.62
636.299	6.38
636.421	-15.62
636.544	-6.62
636.666	8.38
636.788	21.38
636.91	17.38
637.032	-3.62
637.154	10.38
637.276	30.38
637.398	2.38
637.52	12.38
637.642	12.38
637.764	14.38
637.887	2.38
638.009	-15.62
638.131	7.38
638.253	-10.62
638.375	8.38
638.497	13.38
638.619	5.38
638.741	-3.62
638.863	-3.62
638.985	1.38
639.107	6.38
639.23	-2.62
639.352	18.38
639.474	20.38
639.596	-1.62
639.718	14.38
639.84	2.38
639.962	1.38
640.084	23.38
640.206	9.38
640.328	0.38
640.45	7.38
640.573	-1.62
640.695	4.38
640.817	-1.62
640.939	14.38
641.061	3.38
641.183	-6.62
641.305	17.38
641.427	8.38
641.549	15.38
641.671	7.38
641.793	-7.62
641.915	29.38
642.038	16.38
642.16	-8.62
642.282	2.38
642.404	6.38
642.526	5.38
642.648	4.38
642.77	2.38
642.892	-6.62
643.014	21.38
643.136	12.38
643.258	11.38
643.381	22.38
643.503	17.38
643.625	11.38
643.747	-1.62
643.869	13.38
643.991	21.38
644.113	22.38
644.235	-0.62
644.357	5.38
644.479	12.38
644.601	6.38
644.723	10.38
644.846	7.38
644.968	5.38
645.09	0.38
645.212	-14.62
645.334	10.38
645.456	18.38
645.578	19.38
645.7	-0.62
645.822	22.38
645.944	16.38
646.066	4.38
646.188	-8.62
646.311	9.38
646.433	2.38
646.555	44.38
646.677	34.38
646.799	16.38
646.921	18.38
647.043	27.38
647.165	-9.62
647.287	9.38
647.409	0.38
647.531	7.38
647.654	-15.62
647.776	10.38
647.898	13.38
648.02	1.38
648.142	-8.62
648.264	-10.62
648.386	-7.62
648.508	-6.62
648.63	2.38
648.752	8.38
648.874	-8.62
648.997	-1.62
649.119	15.38
649.241	4.38
649.363	12.38
649.485	20.38
649.607	1.38
649.729	3.38
649.851	13.38
649.973	1.38
650.095	1.38
650.217	0.38
650.34	-2.62
650.462	11.38
650.584	23.38
650.706	6.38
650.828	15.38
650.95	-18.62
651.072	2.38
651.194	-0.62
651.316	6.38
651.438	1.38
651.56	-8.62
651.683	-5.62
651.805	16.38
651.927	16.38
652.049	8.38
652.171	-7.62
652.293	6.38
652.415	9.38
652.537	-1.62
652.659	-13.62
652.781	17.38
652.903	16.38
653.026	18.38
653.148	-1.62
653.27	6.38
653.392	20.38
653.514	2.38
653.636	9.38
653.758	15.38
653.88	-2.62
654.002	-1.62
654.124	-14.62
654.247	2.38
654.369	21.38
654.491	-0.62
654.613	6.38
654.735	-1.62
654.857	26.38
654.979	12.38
655.101	10.38
655.223	41.38
655.345	18.38
655.468	26.38
655.59	15.38
655.712	30.38
655.834	27.38
655.956	40.38
656.078	19.38
656.2	45.38
656.322	36.38
656.444	16.38
656.566	39.38
656.689	38.38
656.811	62.38
656.933	78.38
657.055	87.38
657.177	139.38
657.299	252.38
657.421	507.38
657.543	1879.38
657.665	12513.38
657.787	15162.38
657.91	15230.38
658.032	15659.38
658.154	4591.38
658.276	3339.38
658.398	1096.38
658.52	1011.38
658.642	457.38
658.764	584.38
658.886	282.38
659.009	389.38
659.131	206.38
659.253	323.38
659.375	148.38
659.497	229.38
659.619	133.38
659.741	189.38
659.863	96.38
659.985	156.38
660.108	85.38
660.23	132.38
660.352	60.38
660.474	143.38
660.596	83.38
660.718	114.38
660.84	58.38
660.962	113.38
661.084	57.38
661.207	93.38
661.329	48.38
661.451	86.38
661.573	44.38
661.695	94.38
661.817	55.38
661.939	101.38
662.061	65.38
662.184	70.38
662.306	53.38
662.428	71.38
662.55	52.38
662.672	61.38
662.794	34.38
662.916	36.38
663.038	16.38
663.161	75.38
663.283	50.38
663.405	56.38
663.527	27.38
663.649	68.38
663.771	26.38
663.893	51.38
664.015	36.38
664.138	45.38
664.26	27.38
664.382	49.38
664.504	18.38
664.626	22.38
664.748	22.38
664.87	16.38
664.992	24.38
665.115	36.38
665.237	32.38
665.359	42.38
665.481	5.38
665.603	23.38
665.725	2.38
665.847	30.38
665.97	20.38
666.092	44.38
666.214	26.38
666.336	41.38
666.458	24.38
666.58	39.38
666.702	16.38
666.825	21.38
666.947	-4.62
667.069	19.38
667.191	11.38
667.313	29.38
667.435	9.38
667.557	6.38
667.68	12.38
667.802	14.38
667.924	8.38
668.046	36.38
668.168	8.38
668.29	44.38
668.412	1.38
668.535	40.38
668.657	19.38
668.779	18.38
668.901	16.38
669.023	33.38
669.145	1.38
669.267	23.38
669.39	-1.62
669.512	34.38
669.634	16.38
669.756	0.38
669.878	8.38
670	43.38
670.123	4.38
670.245	31.38
670.367	26.38
670.489	21.38
670.611	7.38
670.733	0.38
670.856	-3.62
670.978	30.38
671.1	5.38
671.222	31.38
671.344	14.38
671.466	18.38
671.589	-2.62
671.711	12.38
671.833	4.38
671.955	25.38
672.077	-0.62
672.199	34.38
672.322	21.38
672.444	4.38
672.566	30.38
672.688	22.38
672.81	26.38
672.932	29.38
673.055	16.38
673.177	16.38
673.299	-6.62
673.421	0.38
673.543	10.38
673.665	26.38
673.788	16.38
673.91	-3.62
674.032	-24.62
674.154	14.38
674.276	28.38
674.399	-5.62
674.521	1.38
674.643	26.38
674.765	6.38
674.887	30.38
675.009	12.38
675.132	5.38
675.254	5.38
675.376	28.38
675.498	17.38
675.62	15.38
675.743	0.38
675.865	17.38
675.987	10.38
676.109	-0.62
676.231	11.38
676.354	45.38
676.476	18.38
676.598	22.38
676.72	2.38
676.842	23.38
676.965	4.38
677.087	10.38
677.209	-5.62
677.331	19.38
677.453	14.38
677.576	8.38
677.698	-8.62
677.82	16.38
677.942	-8.62
678.064	-11.62
678.187	7.38
678.309	10.38
678.431	9.38
678.553	8.38
678.675	20.38
678.798	25.38
678.92	-6.62
679.042	13.38
679.164	-15.62
679.286	29.38
679.409	10.38
679.531	-10.62
679.653	14.38
679.775	13.38
679.898	-2.62
680.02	11.38
680.142	-3.62
680.264	27.38
680.386	-10.62
680.509	24.38
680.631	10.38
680.753	22.38
680.875	8.38
680.998	2.38
681.12	-1.62
681.242	20.38
681.364	-1.62
681.486	12.38
681.609	-11.62
681.731	9.38
681.853	-2.62
681.975	6.38
682.098	9.38
682.22	35.38
682.342	0.38
682.464	18.38
682.587	-5.62
682.709	3.38
682.831	-3.62
682.953	9.38
683.076	5.38
683.198	16.38
683.32	17.38
683.442	28.38
683.565	22.38
683.687	23.38
683.809	7.38
683.931	-3.62
684.054	2.38
684.176	1.38
684.298	7.38
684.42	4.38
684.543	-4.62
684.665	3.38
684.787	9.38
684.909	8.38
685.032	13.38
685.154	-4.62
685.276	-11.62
685.398	20.38
685.521	-11.62
685.643	12.38
685.765	20.38
685.887	1.38
686.01	14.38
686.132	19.38
686.254	20.38
686.377	22.38
686.499	9.38
686.621	37.38
686.743	14.38
686.866	1.38
686.988	26.38
687.11	23.38
687.232	1.38
687.355	-2.62
687.477	5.38
687.599	8.38
687.722	1.38
687.844	13.38
687.966	10.38
688.088	13.38
688.211	20.38
688.333	0.38
688.455	12.38
688.578	4.38
688.7	20.38
688.822	24.38
688.944	-13.62
689.067	46.38
689.189	0.38
689.311	-14.62
689.434	-7.62
689.556	22.38
689.678	3.38
689.801	-5.62
689.923	15.38
690.045	6.38
690.167	15.38
690.29	24.38
690.412	-0.62
690.534	4.38
690.657	-2.62
690.779	-2.62
690.901	10.38
691.024	10.38
691.146	1.38
691.268	12.38
691.391	5.38
691.513	7.38
691.635	-6.62
691.758	30.38
691.88	32.38
692.002	-9.62
692.125	-8.62
692.247	-3.62
692.369	-7.62
692.492	-7.62
692.614	2.38
692.736	0.38
692.859	-1.62
692.981	21.38
693.103	10.38
693.226	16.38
693.348	32.38
693.47	9.38
693.593	4.38
693.715	-14.62
693.837	-9.62
693.96	4.38
694.082	7.38
694.204	22.38
694.327	-3.62
694.449	-6.62
694.571	15.38
694.694	16.38
694.816	15.38
694.938	3.38
695.061	-3.62
695.183	9.38
695.305	15.38
695.428	5.38
695.55	0.38
695.672	-7.62
695.795	5.38
695.917	15.38
696.04	-5.62
696.162	4.38
696.284	6.38
696.407	0.38
696.529	-1.62
696.651	18.38
696.774	4.38
696.896	10.38
697.019	7.38
697.141	19.38
697.263	-3.62
697.386	-6.62
697.508	0.38
697.63	-0.62
697.753	0.38
697.875	-4.62
697.998	-12.62
698.12	21.38
698.242	9.38
698.365	12.38
698.487	9.38
698.61	6.38
698.732	4.38
698.854	29.38
698.977	14.38
699.099	27.38
699.221	1.38
699.344	-3.62
699.466	-0.62
699.589	13.38
699.711	-6.62
699.834	9.38
699.956	11.38
700.078	5.38
700.201	-12.62
700.323	22.38
700.446	17.38
700.568	-9.62
700.69	-0.62
700.813	5.38
700.935	5.38
701.058	9.38
701.18	2.38
701.302	24.38
701.425	7.38
701.547	10.38
701.67	10.38
701.792	-2.62
701.915	-14.62
702.037	-8.62
702.159	-2.62
702.282	11.38
702.404	8.38
702.527	8.38
702.649	33.38
702.772	22.38
702.894	10.38
703.017	30.38
703.139	19.38
703.261	24.38
703.384	17.38
703.506	-19.62
703.629	-1.62
703.751	13.38
703.874	5.38
703.996	-9.62
704.119	-11.62
704.241	11.38
704.364	-10.62
704.486	7.38
704.608	0.38
704.731	13.38
704.853	29.38
704.976	0.38
705.098	15.38
705.221	0.38
705.343	-1.62
705.466	20.38
705.588	11.38
705.711	12.38
705.833	32.38
705.956	0.38
706.078	1.38
706.201	1.38
706.323	3.38
706.446	1.38
