Data from LowRes_H2_15_26_11_07_2024_HR4C61881__62__15-28-19-837.txt Node

Date: Thu Nov 07 15:28:19 EST 2024
User: crc00042
Spectrometer: HR4C6188
Trigger mode: 4
Integration Time (sec): 1.000000E-1
Scans to average: 1
Electric dark correction enabled: true
Nonlinearity correction enabled: false
Boxcar width: 0
XAxis mode: Wavelengths
Number of Pixels in Spectrum: 3648
>>>>>Begin Spectral Data<<<<<
245.66	-100.31
245.797	-100.31
245.934	-100.31
246.071	-77.31
246.208	11.69
246.344	1.69
246.481	-5.31
246.618	12.69
246.755	17.69
246.892	1.69
247.029	-13.31
247.165	-22.31
247.302	6.69
247.439	-6.31
247.576	16.69
247.713	-15.31
247.849	14.69
247.986	-9.31
248.123	14.69
248.26	0.69
248.396	8.69
248.533	1.69
248.67	-8.31
248.806	-5.31
248.943	-29.31
249.08	-3.31
249.216	11.69
249.353	-16.31
249.49	-7.31
249.626	-2.31
249.763	-25.31
249.9	-15.31
250.036	5.69
250.173	6.69
250.309	16.69
250.446	26.69
250.582	7.69
250.719	-13.31
250.856	-10.31
250.992	18.69
251.129	17.69
251.265	-2.31
251.402	0.69
251.538	11.69
251.675	1.69
251.811	4.69
251.948	25.69
252.084	9.69
252.221	-15.31
252.357	-5.31
252.493	31.69
252.63	24.69
252.766	13.69
252.903	7.69
253.039	-15.31
253.175	7.69
253.312	9.69
253.448	-15.31
253.585	-8.31
253.721	9.69
253.857	1.69
253.994	19.69
254.13	-5.31
254.266	-11.31
254.403	17.69
254.539	-0.31
254.675	25.69
254.811	9.69
254.948	17.69
255.084	-7.31
255.22	-10.31
255.356	-3.31
255.493	13.69
255.629	-2.31
255.765	10.69
255.901	31.69
256.037	10.69
256.174	5.69
256.31	-1.31
256.446	-6.31
256.582	6.69
256.718	24.69
256.854	25.69
256.991	18.69
257.127	9.69
257.263	25.69
257.399	17.69
257.535	11.69
257.671	13.69
257.807	-5.31
257.943	3.69
258.079	-3.31
258.215	-0.31
258.351	1.69
258.487	5.69
258.623	22.69
258.759	2.69
258.895	3.69
259.031	-3.31
259.167	-6.31
259.303	10.69
259.439	-6.31
259.575	-2.31
259.711	1.69
259.847	-2.31
259.983	-3.31
260.119	19.69
260.255	-5.31
260.391	6.69
260.527	6.69
260.663	24.69
260.799	9.69
260.934	-0.31
261.07	-2.31
261.206	-2.31
261.342	-4.31
261.478	37.69
261.614	16.69
261.749	8.69
261.885	-7.31
262.021	2.69
262.157	18.69
262.293	3.69
262.428	14.69
262.564	3.69
262.7	-4.31
262.836	-10.31
262.971	17.69
263.107	30.69
263.243	11.69
263.378	9.69
263.514	3.69
263.65	19.69
263.785	3.69
263.921	-6.31
264.057	5.69
264.192	16.69
264.328	12.69
264.464	12.69
264.599	8.69
264.735	32.69
264.871	-0.31
265.006	18.69
265.142	15.69
265.277	11.69
265.413	17.69
265.548	18.69
265.684	27.69
265.819	3.69
265.955	-2.31
266.091	-2.31
266.226	0.69
266.362	20.69
266.497	6.69
266.633	3.69
266.768	-8.31
266.903	6.69
267.039	17.69
267.174	25.69
267.31	12.69
267.445	-13.31
267.581	-9.31
267.716	28.69
267.851	21.69
267.987	18.69
268.122	30.69
268.258	-2.31
268.393	1.69
268.528	25.69
268.664	5.69
268.799	4.69
268.934	12.69
269.07	-5.31
269.205	6.69
269.34	37.69
269.476	-6.31
269.611	2.69
269.746	15.69
269.881	8.69
270.017	36.69
270.152	13.69
270.287	5.69
270.422	17.69
270.558	1.69
270.693	8.69
270.828	14.69
270.963	2.69
271.098	-12.31
271.234	-5.31
271.369	8.69
271.504	0.69
271.639	-4.31
271.774	2.69
271.909	-0.31
272.045	-1.31
272.18	-10.31
272.315	-5.31
272.45	7.69
272.585	-9.31
272.72	0.69
272.855	18.69
272.99	16.69
273.125	16.69
273.26	-0.31
273.395	5.69
273.53	5.69
273.665	21.69
273.8	5.69
273.935	14.69
274.07	21.69
274.205	16.69
274.34	1.69
274.475	7.69
274.61	26.69
274.745	8.69
274.88	1.69
275.015	-10.31
275.15	10.69
275.285	6.69
275.42	-13.31
275.555	5.69
275.69	-0.31
275.825	5.69
275.959	26.69
276.094	11.69
276.229	14.69
276.364	2.69
276.499	13.69
276.634	3.69
276.768	-2.31
276.903	11.69
277.038	20.69
277.173	9.69
277.308	-2.31
277.442	-15.31
277.577	-3.31
277.712	14.69
277.847	1.69
277.981	4.69
278.116	-9.31
278.251	21.69
278.386	-4.31
278.52	15.69
278.655	-5.31
278.79	0.69
278.924	-7.31
279.059	21.69
279.194	-4.31
279.328	34.69
279.463	17.69
279.598	40.69
279.732	13.69
279.867	9.69
280.001	17.69
280.136	-6.31
280.271	-0.31
280.405	20.69
280.54	4.69
280.674	1.69
280.809	7.69
280.943	9.69
281.078	-0.31
281.213	16.69
281.347	29.69
281.482	7.69
281.616	-8.31
281.751	-7.31
281.885	-14.31
282.02	18.69
282.154	5.69
282.288	-6.31
282.423	-22.31
282.557	-15.31
282.692	4.69
282.826	17.69
282.961	19.69
283.095	-4.31
283.229	8.69
283.364	-16.31
283.498	-8.31
283.633	16.69
283.767	6.69
283.901	17.69
284.036	20.69
284.17	10.69
284.304	-1.31
284.439	5.69
284.573	9.69
284.707	17.69
284.842	7.69
284.976	2.69
285.11	1.69
285.244	12.69
285.379	39.69
285.513	-13.31
285.647	8.69
285.781	3.69
285.916	14.69
286.05	-0.31
286.184	21.69
286.318	-1.31
286.453	-11.31
286.587	-4.31
286.721	-19.31
286.855	11.69
286.989	23.69
287.123	11.69
287.258	-9.31
287.392	0.69
287.526	4.69
287.66	5.69
287.794	16.69
287.928	13.69
288.062	14.69
288.196	-9.31
288.33	0.69
288.464	13.69
288.598	14.69
288.733	9.69
288.867	4.69
289.001	-3.31
289.135	-3.31
289.269	-10.31
289.403	8.69
289.537	26.69
289.671	24.69
289.805	-14.31
289.939	-2.31
290.073	-1.31
290.207	7.69
290.34	-3.31
290.474	28.69
290.608	19.69
290.742	6.69
290.876	0.69
291.01	3.69
291.144	14.69
291.278	16.69
291.412	14.69
291.546	14.69
291.679	-7.31
291.813	-0.31
291.947	3.69
292.081	-9.31
292.215	15.69
292.349	24.69
292.482	29.69
292.616	5.69
292.75	9.69
292.884	20.69
293.018	9.69
293.151	-14.31
293.285	-3.31
293.419	-1.31
293.553	24.69
293.686	-0.31
293.82	5.69
293.954	11.69
294.088	26.69
294.221	5.69
294.355	-14.31
294.489	-6.31
294.622	4.69
294.756	6.69
294.89	9.69
295.023	10.69
295.157	15.69
295.291	10.69
295.424	17.69
295.558	-1.31
295.691	17.69
295.825	-14.31
295.959	13.69
296.092	-10.31
296.226	10.69
296.359	10.69
296.493	2.69
296.627	18.69
296.76	-2.31
296.894	0.69
297.027	14.69
297.161	14.69
297.294	-9.31
297.428	-4.31
297.561	26.69
297.695	4.69
297.828	-6.31
297.962	10.69
298.095	-6.31
298.229	-15.31
298.362	-22.31
298.495	-0.31
298.629	-10.31
298.762	15.69
298.896	10.69
299.029	-20.31
299.162	14.69
299.296	25.69
299.429	11.69
299.563	5.69
299.696	2.69
299.829	11.69
299.963	30.69
300.096	26.69
300.229	1.69
300.363	14.69
300.496	14.69
300.629	-21.31
300.763	5.69
300.896	2.69
301.029	19.69
301.162	-5.31
301.296	-5.31
301.429	11.69
301.562	-11.31
301.695	25.69
301.829	22.69
301.962	22.69
302.095	21.69
302.228	-6.31
302.362	11.69
302.495	-13.31
302.628	-11.31
302.761	-2.31
302.894	3.69
303.027	15.69
303.161	-10.31
303.294	15.69
303.427	30.69
303.56	9.69
303.693	-3.31
303.826	1.69
303.959	7.69
304.092	-16.31
304.225	-9.31
304.359	8.69
304.492	9.69
304.625	5.69
304.758	1.69
304.891	5.69
305.024	-7.31
305.157	-18.31
305.29	-21.31
305.423	4.69
305.556	3.69
305.689	24.69
305.822	20.69
305.955	-1.31
306.088	-0.31
306.221	10.69
306.354	12.69
306.487	-4.31
306.62	-3.31
306.752	-7.31
306.885	5.69
307.018	20.69
307.151	26.69
307.284	7.69
307.417	-5.31
307.55	21.69
307.683	0.69
307.816	12.69
307.948	24.69
308.081	12.69
308.214	18.69
308.347	-1.31
308.48	-11.31
308.613	-11.31
308.745	-3.31
308.878	-0.31
309.011	-5.31
309.144	25.69
309.277	-19.31
309.409	30.69
309.542	2.69
309.675	15.69
309.808	11.69
309.94	25.69
310.073	-9.31
310.206	-3.31
310.339	-3.31
310.471	6.69
310.604	18.69
310.737	7.69
310.869	-4.31
311.002	5.69
311.135	7.69
311.267	-15.31
311.4	3.69
311.533	35.69
311.665	-15.31
311.798	-10.31
311.93	8.69
312.063	27.69
312.196	4.69
312.328	2.69
312.461	18.69
312.593	2.69
312.726	11.69
312.859	18.69
312.991	18.69
313.124	-2.31
313.256	14.69
313.389	26.69
313.521	13.69
313.654	5.69
313.786	-1.31
313.919	-10.31
314.051	-2.31
314.184	15.69
314.316	20.69
314.449	-10.31
314.581	2.69
314.714	7.69
314.846	26.69
314.978	-0.31
315.111	-5.31
315.243	12.69
315.376	15.69
315.508	28.69
315.641	29.69
315.773	24.69
315.905	10.69
316.038	1.69
316.17	12.69
316.302	23.69
316.435	3.69
316.567	7.69
316.699	49.69
316.832	1.69
316.964	2.69
317.096	2.69
317.229	-7.31
317.361	1.69
317.493	14.69
317.625	0.69
317.758	12.69
317.89	31.69
318.022	21.69
318.155	0.69
318.287	17.69
318.419	3.69
318.551	22.69
318.683	10.69
318.816	-8.31
318.948	-7.31
319.08	-9.31
319.212	17.69
319.344	14.69
319.477	0.69
319.609	-6.31
319.741	3.69
319.873	4.69
320.005	2.69
320.137	12.69
320.269	10.69
320.401	9.69
320.534	15.69
320.666	-3.31
320.798	-0.31
320.93	4.69
321.062	-1.31
321.194	14.69
321.326	10.69
321.458	12.69
321.59	3.69
321.722	12.69
321.854	11.69
321.986	-2.31
322.118	10.69
322.25	-4.31
322.382	25.69
322.514	0.69
322.646	-6.31
322.778	14.69
322.91	0.69
323.042	7.69
323.174	17.69
323.306	-3.31
323.438	-27.31
323.57	1.69
323.702	21.69
323.834	19.69
323.966	-18.31
324.097	10.69
324.229	15.69
324.361	18.69
324.493	3.69
324.625	5.69
324.757	15.69
324.889	-1.31
325.021	12.69
325.152	33.69
325.284	18.69
325.416	5.69
325.548	16.69
325.68	11.69
325.811	34.69
325.943	21.69
326.075	1.69
326.207	8.69
326.339	18.69
326.47	-1.31
326.602	7.69
326.734	20.69
326.866	18.69
326.997	-14.31
327.129	5.69
327.261	-0.31
327.392	-19.31
327.524	21.69
327.656	6.69
327.787	16.69
327.919	12.69
328.051	14.69
328.182	31.69
328.314	33.69
328.446	14.69
328.577	13.69
328.709	3.69
328.841	-1.31
328.972	-12.31
329.104	0.69
329.235	9.69
329.367	9.69
329.499	9.69
329.63	14.69
329.762	-5.31
329.893	9.69
330.025	-6.31
330.156	14.69
330.288	6.69
330.419	30.69
330.551	12.69
330.683	10.69
330.814	-2.31
330.946	11.69
331.077	-6.31
331.208	-6.31
331.34	-0.31
331.471	4.69
331.603	9.69
331.734	-2.31
331.866	4.69
331.997	21.69
332.129	15.69
332.26	-5.31
332.392	24.69
332.523	15.69
332.654	-17.31
332.786	14.69
332.917	-3.31
333.048	15.69
333.18	10.69
333.311	-14.31
333.443	-1.31
333.574	4.69
333.705	-1.31
333.837	1.69
333.968	12.69
334.099	21.69
334.231	6.69
334.362	-9.31
334.493	23.69
334.624	26.69
334.756	14.69
334.887	11.69
335.018	28.69
335.15	22.69
335.281	20.69
335.412	29.69
335.543	16.69
335.675	10.69
335.806	16.69
335.937	8.69
336.068	6.69
336.199	39.69
336.331	-8.31
336.462	7.69
336.593	14.69
336.724	6.69
336.855	-0.31
336.986	34.69
337.118	27.69
337.249	21.69
337.38	11.69
337.511	9.69
337.642	10.69
337.773	17.69
337.904	26.69
338.035	19.69
338.166	19.69
338.298	11.69
338.429	-4.31
338.56	16.69
338.691	24.69
338.822	25.69
338.953	14.69
339.084	30.69
339.215	14.69
339.346	24.69
339.477	7.69
339.608	11.69
339.739	2.69
339.87	4.69
340.001	-6.31
340.132	14.69
340.263	2.69
340.394	17.69
340.525	21.69
340.656	-13.31
340.787	-4.31
340.918	17.69
341.049	29.69
341.179	9.69
341.31	16.69
341.441	10.69
341.572	24.69
341.703	8.69
341.834	-2.31
341.965	15.69
342.096	-1.31
342.227	21.69
342.357	1.69
342.488	12.69
342.619	13.69
342.75	16.69
342.881	4.69
343.012	31.69
343.142	20.69
343.273	10.69
343.404	12.69
343.535	39.69
343.666	17.69
343.796	9.69
343.927	24.69
344.058	37.69
344.189	12.69
344.319	19.69
344.45	19.69
344.581	8.69
344.712	-0.31
344.842	34.69
344.973	1.69
345.104	25.69
345.234	14.69
345.365	-3.31
345.496	22.69
345.626	23.69
345.757	23.69
345.888	-4.31
346.018	18.69
346.149	12.69
346.28	19.69
346.41	2.69
346.541	2.69
346.672	0.69
346.802	17.69
346.933	0.69
347.063	0.69
347.194	-3.31
347.325	12.69
347.455	17.69
347.586	15.69
347.716	2.69
347.847	13.69
347.977	7.69
348.108	1.69
348.238	0.69
348.369	-3.31
348.499	25.69
348.63	28.69
348.76	11.69
348.891	-2.31
349.021	22.69
349.152	20.69
349.282	-5.31
349.413	1.69
349.543	26.69
349.674	5.69
349.804	30.69
349.935	-2.31
350.065	4.69
350.196	0.69
350.326	5.69
350.456	-0.31
350.587	35.69
350.717	28.69
350.848	35.69
350.978	19.69
351.108	4.69
351.239	36.69
351.369	-0.31
351.499	13.69
351.63	14.69
351.76	3.69
351.89	2.69
352.021	12.69
352.151	-1.31
352.281	25.69
352.412	9.69
352.542	10.69
352.672	10.69
352.803	8.69
352.933	5.69
353.063	17.69
353.193	1.69
353.324	16.69
353.454	22.69
353.584	30.69
353.714	6.69
353.845	10.69
353.975	2.69
354.105	8.69
354.235	20.69
354.365	10.69
354.496	7.69
354.626	8.69
354.756	43.69
354.886	15.69
355.016	22.69
355.146	11.69
355.277	9.69
355.407	1.69
355.537	-1.31
355.667	2.69
355.797	-0.31
355.927	4.69
356.057	19.69
356.187	4.69
356.318	-9.31
356.448	6.69
356.578	8.69
356.708	17.69
356.838	3.69
356.968	0.69
357.098	24.69
357.228	25.69
357.358	18.69
357.488	-5.31
357.618	27.69
357.748	6.69
357.878	13.69
358.008	21.69
358.138	7.69
358.268	9.69
358.398	24.69
358.528	-5.31
358.658	12.69
358.788	-13.31
358.918	15.69
359.048	5.69
359.178	26.69
359.308	30.69
359.438	24.69
359.568	25.69
359.698	3.69
359.827	-2.31
359.957	8.69
360.087	19.69
360.217	8.69
360.347	21.69
360.477	25.69
360.607	21.69
360.737	34.69
360.866	7.69
360.996	-6.31
361.126	-1.31
361.256	41.69
361.386	23.69
361.516	14.69
361.645	-13.31
361.775	-4.31
361.905	-10.31
362.035	23.69
362.165	8.69
362.294	4.69
362.424	25.69
362.554	16.69
362.684	7.69
362.813	11.69
362.943	19.69
363.073	-4.31
363.203	-6.31
363.332	-4.31
363.462	-16.31
363.592	1.69
363.721	-8.31
363.851	9.69
363.981	27.69
364.111	4.69
364.24	1.69
364.37	8.69
364.5	23.69
364.629	20.69
364.759	-6.31
364.888	-9.31
365.018	28.69
365.148	23.69
365.277	15.69
365.407	5.69
365.537	19.69
365.666	14.69
365.796	9.69
365.925	18.69
366.055	22.69
366.184	23.69
366.314	6.69
366.444	1.69
366.573	9.69
366.703	5.69
366.832	10.69
366.962	23.69
367.091	21.69
367.221	17.69
367.35	6.69
367.48	41.69
367.609	16.69
367.739	31.69
367.868	16.69
367.998	16.69
368.127	24.69
368.257	29.69
368.386	34.69
368.516	30.69
368.645	-9.31
368.775	12.69
368.904	10.69
369.033	0.69
369.163	9.69
369.292	25.69
369.422	25.69
369.551	29.69
369.68	23.69
369.81	19.69
369.939	6.69
370.069	21.69
370.198	19.69
370.327	-7.31
370.457	9.69
370.586	2.69
370.715	25.69
370.845	-0.31
370.974	28.69
371.103	26.69
371.233	19.69
371.362	9.69
371.491	11.69
371.621	21.69
371.75	9.69
371.879	0.69
372.008	5.69
372.138	-1.31
372.267	23.69
372.396	12.69
372.525	12.69
372.655	21.69
372.784	3.69
372.913	6.69
373.042	12.69
373.172	8.69
373.301	-8.31
373.43	-1.31
373.559	14.69
373.688	21.69
373.818	35.69
373.947	43.69
374.076	5.69
374.205	22.69
374.334	6.69
374.463	-5.31
374.593	24.69
374.722	14.69
374.851	36.69
374.98	-4.31
375.109	8.69
375.238	-1.31
375.367	46.69
375.496	5.69
375.625	-9.31
375.755	22.69
375.884	21.69
376.013	1.69
376.142	-4.31
376.271	7.69
376.4	17.69
376.529	10.69
376.658	11.69
376.787	20.69
376.916	11.69
377.045	21.69
377.174	1.69
377.303	-3.31
377.432	15.69
377.561	22.69
377.69	9.69
377.819	27.69
377.948	18.69
378.077	-6.31
378.206	-3.31
378.335	15.69
378.464	13.69
378.593	24.69
378.722	8.69
378.851	5.69
378.98	31.69
379.108	-2.31
379.237	-16.31
379.366	22.69
379.495	10.69
379.624	21.69
379.753	7.69
379.882	4.69
380.011	-11.31
380.14	6.69
380.268	24.69
380.397	5.69
380.526	28.69
380.655	-5.31
380.784	-17.31
380.913	1.69
381.041	5.69
381.17	-15.31
381.299	9.69
381.428	0.69
381.557	5.69
381.685	2.69
381.814	10.69
381.943	-1.31
382.072	21.69
382.2	12.69
382.329	3.69
382.458	-5.31
382.587	27.69
382.715	37.69
382.844	20.69
382.973	27.69
383.102	12.69
383.23	18.69
383.359	-16.31
383.488	39.69
383.616	20.69
383.745	0.69
383.874	21.69
384.003	-0.31
384.131	5.69
384.26	-3.31
384.389	9.69
384.517	-6.31
384.646	-5.31
384.774	-12.31
384.903	10.69
385.032	29.69
385.16	17.69
385.289	13.69
385.418	6.69
385.546	20.69
385.675	21.69
385.803	22.69
385.932	9.69
386.06	-11.31
386.189	-0.31
386.318	7.69
386.446	6.69
386.575	14.69
386.703	6.69
386.832	-3.31
386.96	8.69
387.089	12.69
387.217	10.69
387.346	20.69
387.474	17.69
387.603	13.69
387.731	-6.31
387.86	25.69
387.988	22.69
388.117	4.69
388.245	1.69
388.374	4.69
388.502	13.69
388.631	9.69
388.759	1.69
388.888	17.69
389.016	-6.31
389.144	22.69
389.273	8.69
389.401	-4.31
389.53	-3.31
389.658	24.69
389.786	-4.31
389.915	-4.31
390.043	-2.31
390.172	-7.31
390.3	43.69
390.428	0.69
390.557	7.69
390.685	16.69
390.813	7.69
390.942	30.69
391.07	8.69
391.198	26.69
391.327	12.69
391.455	-3.31
391.583	26.69
391.712	1.69
391.84	35.69
391.968	22.69
392.096	16.69
392.225	26.69
392.353	15.69
392.481	3.69
392.609	30.69
392.738	10.69
392.866	23.69
392.994	4.69
393.122	17.69
393.251	5.69
393.379	8.69
393.507	-9.31
393.635	-0.31
393.764	26.69
393.892	18.69
394.02	-2.31
394.148	6.69
394.276	0.69
394.404	44.69
394.533	-2.31
394.661	13.69
394.789	42.69
394.917	18.69
395.045	-3.31
395.173	-11.31
395.302	12.69
395.43	23.69
395.558	18.69
395.686	26.69
395.814	30.69
395.942	-2.31
396.07	29.69
396.198	14.69
396.326	11.69
396.454	26.69
396.582	19.69
396.711	19.69
396.839	25.69
396.967	26.69
397.095	6.69
397.223	27.69
397.351	16.69
397.479	33.69
397.607	-1.31
397.735	12.69
397.863	18.69
397.991	29.69
398.119	9.69
398.247	8.69
398.375	14.69
398.503	4.69
398.631	15.69
398.759	24.69
398.887	-2.31
399.015	12.69
399.143	6.69
399.271	17.69
399.399	9.69
399.526	25.69
399.654	24.69
399.782	-2.31
399.91	34.69
400.038	23.69
400.166	-1.31
400.294	2.69
400.422	-17.31
400.55	25.69
400.678	30.69
400.805	16.69
400.933	4.69
401.061	30.69
401.189	4.69
401.317	46.69
401.445	34.69
401.573	30.69
401.7	1.69
401.828	1.69
401.956	2.69
402.084	32.69
402.212	12.69
402.34	-4.31
402.467	1.69
402.595	0.69
402.723	17.69
402.851	32.69
402.978	7.69
403.106	29.69
403.234	8.69
403.362	33.69
403.489	27.69
403.617	9.69
403.745	0.69
403.873	-5.31
404	11.69
404.128	13.69
404.256	18.69
404.384	49.69
404.511	31.69
404.639	8.69
404.767	13.69
404.894	11.69
405.022	-0.31
405.15	18.69
405.277	17.69
405.405	-14.31
405.533	16.69
405.66	8.69
405.788	-17.31
405.916	3.69
406.043	11.69
406.171	9.69
406.299	24.69
406.426	11.69
406.554	13.69
406.681	39.69
406.809	26.69
406.937	13.69
407.064	11.69
407.192	15.69
407.319	21.69
407.447	1.69
407.574	32.69
407.702	12.69
407.83	-9.31
407.957	-2.31
408.085	-2.31
408.212	10.69
408.34	6.69
408.467	8.69
408.595	-6.31
408.722	22.69
408.85	33.69
408.977	-4.31
409.105	-2.31
409.232	10.69
409.36	26.69
409.487	21.69
409.615	22.69
409.742	29.69
409.87	20.69
409.997	37.69
410.125	28.69
410.252	58.69
410.379	53.69
410.507	39.69
410.634	15.69
410.762	5.69
410.889	7.69
411.017	-1.31
411.144	5.69
411.271	3.69
411.399	19.69
411.526	37.69
411.653	24.69
411.781	35.69
411.908	34.69
412.036	8.69
412.163	46.69
412.29	18.69
412.418	6.69
412.545	23.69
412.672	2.69
412.8	44.69
412.927	13.69
413.054	16.69
413.182	24.69
413.309	19.69
413.436	-7.31
413.564	2.69
413.691	16.69
413.818	25.69
413.945	3.69
414.073	-4.31
414.2	-3.31
414.327	13.69
414.454	20.69
414.582	8.69
414.709	1.69
414.836	28.69
414.963	19.69
415.091	5.69
415.218	25.69
415.345	17.69
415.472	7.69
415.6	-8.31
415.727	13.69
415.854	8.69
415.981	10.69
416.108	6.69
416.236	15.69
416.363	21.69
416.49	18.69
416.617	4.69
416.744	15.69
416.871	19.69
416.998	7.69
417.126	17.69
417.253	14.69
417.38	26.69
417.507	10.69
417.634	20.69
417.761	14.69
417.888	36.69
418.015	4.69
418.143	13.69
418.27	21.69
418.397	22.69
418.524	5.69
418.651	0.69
418.778	37.69
418.905	54.69
419.032	16.69
419.159	15.69
419.286	45.69
419.413	18.69
419.54	22.69
419.667	8.69
419.794	-7.31
419.921	21.69
420.048	18.69
420.175	22.69
420.302	-1.31
420.429	19.69
420.556	3.69
420.683	-1.31
420.81	17.69
420.937	5.69
421.064	9.69
421.191	12.69
421.318	25.69
421.445	28.69
421.572	9.69
421.699	32.69
421.826	6.69
421.953	3.69
422.08	7.69
422.207	2.69
422.334	-10.31
422.461	16.69
422.588	-4.31
422.714	18.69
422.841	26.69
422.968	24.69
423.095	32.69
423.222	24.69
423.349	30.69
423.476	19.69
423.603	20.69
423.729	7.69
423.856	-4.31
423.983	15.69
424.11	5.69
424.237	17.69
424.364	27.69
424.491	19.69
424.617	-7.31
424.744	8.69
424.871	26.69
424.998	-6.31
425.125	8.69
425.251	0.69
425.378	18.69
425.505	-5.31
425.632	13.69
425.758	18.69
425.885	31.69
426.012	13.69
426.139	36.69
426.266	2.69
426.392	15.69
426.519	16.69
426.646	16.69
426.772	28.69
426.899	17.69
427.026	22.69
427.153	11.69
427.279	33.69
427.406	9.69
427.533	13.69
427.659	-1.31
427.786	7.69
427.913	23.69
428.039	8.69
428.166	-0.31
428.293	19.69
428.419	24.69
428.546	23.69
428.673	8.69
428.799	0.69
428.926	4.69
429.053	44.69
429.179	20.69
429.306	24.69
429.433	35.69
429.559	26.69
429.686	10.69
429.812	5.69
429.939	-7.31
430.066	9.69
430.192	-6.31
430.319	6.69
430.445	5.69
430.572	14.69
430.699	-6.31
430.825	0.69
430.952	27.69
431.078	18.69
431.205	34.69
431.331	9.69
431.458	20.69
431.584	18.69
431.711	20.69
431.837	36.69
431.964	20.69
432.09	9.69
432.217	-8.31
432.343	0.69
432.47	17.69
432.596	18.69
432.723	19.69
432.849	26.69
432.976	20.69
433.102	4.69
433.229	0.69
433.355	16.69
433.482	84.69
433.608	145.69
433.735	127.69
433.861	124.69
433.987	165.69
434.114	251.69
434.24	217.69
434.367	63.69
434.493	19.69
434.62	28.69
434.746	33.69
434.872	21.69
434.999	37.69
435.125	28.69
435.252	16.69
435.378	10.69
435.504	11.69
435.631	19.69
435.757	21.69
435.883	5.69
436.01	23.69
436.136	4.69
436.262	22.69
436.389	24.69
436.515	21.69
436.641	10.69
436.768	28.69
436.894	15.69
437.02	14.69
437.147	30.69
437.273	0.69
437.399	18.69
437.526	23.69
437.652	0.69
437.778	23.69
437.904	-1.31
438.031	20.69
438.157	27.69
438.283	0.69
438.409	-6.31
438.536	-0.31
438.662	24.69
438.788	32.69
438.914	28.69
439.041	26.69
439.167	32.69
439.293	9.69
439.419	9.69
439.546	11.69
439.672	11.69
439.798	19.69
439.924	26.69
440.05	32.69
440.177	11.69
440.303	21.69
440.429	5.69
440.555	26.69
440.681	8.69
440.807	17.69
440.934	26.69
441.06	8.69
441.186	16.69
441.312	4.69
441.438	28.69
441.564	20.69
441.69	23.69
441.816	31.69
441.943	7.69
442.069	0.69
442.195	4.69
442.321	20.69
442.447	-7.31
442.573	1.69
442.699	6.69
442.825	15.69
442.951	31.69
443.077	24.69
443.203	25.69
443.33	2.69
443.456	-17.31
443.582	9.69
443.708	10.69
443.834	28.69
443.96	29.69
444.086	31.69
444.212	52.69
444.338	39.69
444.464	38.69
444.59	33.69
444.716	9.69
444.842	14.69
444.968	11.69
445.094	4.69
445.22	8.69
445.346	4.69
445.472	8.69
445.598	9.69
445.724	4.69
445.85	19.69
445.976	5.69
446.102	24.69
446.228	43.69
446.354	17.69
446.48	28.69
446.605	37.69
446.731	28.69
446.857	-11.31
446.983	26.69
447.109	6.69
447.235	7.69
447.361	13.69
447.487	18.69
447.613	14.69
447.739	12.69
447.865	12.69
447.99	31.69
448.116	27.69
448.242	11.69
448.368	4.69
448.494	8.69
448.62	26.69
448.746	14.69
448.872	10.69
448.997	18.69
449.123	17.69
449.249	28.69
449.375	30.69
449.501	15.69
449.627	0.69
449.752	29.69
449.878	10.69
450.004	14.69
450.13	14.69
450.256	1.69
450.381	-0.31
450.507	14.69
450.633	8.69
450.759	10.69
450.884	20.69
451.01	24.69
451.136	25.69
451.262	13.69
451.388	1.69
451.513	6.69
451.639	17.69
451.765	6.69
451.89	18.69
452.016	4.69
452.142	28.69
452.268	19.69
452.393	14.69
452.519	-0.31
452.645	25.69
452.771	22.69
452.896	8.69
453.022	14.69
453.148	46.69
453.273	22.69
453.399	18.69
453.525	5.69
453.65	10.69
453.776	18.69
453.902	29.69
454.027	31.69
454.153	16.69
454.279	29.69
454.404	34.69
454.53	25.69
454.656	44.69
454.781	20.69
454.907	-1.31
455.032	10.69
455.158	26.69
455.284	18.69
455.409	22.69
455.535	11.69
455.66	24.69
455.786	40.69
455.912	18.69
456.037	5.69
456.163	37.69
456.288	36.69
456.414	15.69
456.539	-3.31
456.665	18.69
456.791	30.69
456.916	15.69
457.042	46.69
457.167	-1.31
457.293	20.69
457.418	13.69
457.544	12.69
457.669	5.69
457.795	17.69
457.92	8.69
458.046	9.69
458.171	18.69
458.297	1.69
458.422	7.69
458.548	-7.31
458.673	28.69
458.799	10.69
458.924	2.69
459.05	10.69
459.175	14.69
459.301	15.69
459.426	16.69
459.552	9.69
459.677	-0.31
459.803	12.69
459.928	27.69
460.053	5.69
460.179	11.69
460.304	24.69
460.43	6.69
460.555	18.69
460.681	12.69
460.806	15.69
460.931	14.69
461.057	19.69
461.182	14.69
461.308	19.69
461.433	26.69
461.558	14.69
461.684	22.69
461.809	36.69
461.934	18.69
462.06	30.69
462.185	4.69
462.311	8.69
462.436	26.69
462.561	21.69
462.687	14.69
462.812	9.69
462.937	9.69
463.063	16.69
463.188	0.69
463.313	24.69
463.439	21.69
463.564	19.69
463.689	18.69
463.814	23.69
463.94	7.69
464.065	24.69
464.19	14.69
464.316	7.69
464.441	5.69
464.566	-6.31
464.692	13.69
464.817	21.69
464.942	11.69
465.067	10.69
465.193	-16.31
465.318	-12.31
465.443	16.69
465.568	21.69
465.694	21.69
465.819	22.69
465.944	-5.31
466.069	10.69
466.194	12.69
466.32	3.69
466.445	20.69
466.57	16.69
466.695	15.69
466.82	20.69
466.946	17.69
467.071	20.69
467.196	3.69
467.321	7.69
467.446	9.69
467.572	4.69
467.697	0.69
467.822	10.69
467.947	31.69
468.072	0.69
468.197	-15.31
468.323	-19.31
468.448	10.69
468.573	20.69
468.698	6.69
468.823	26.69
468.948	19.69
469.073	11.69
469.198	21.69
469.324	37.69
469.449	8.69
469.574	28.69
469.699	28.69
469.824	13.69
469.949	25.69
470.074	18.69
470.199	38.69
470.324	30.69
470.449	13.69
470.574	9.69
470.7	-18.31
470.825	13.69
470.95	30.69
471.075	17.69
471.2	31.69
471.325	19.69
471.45	9.69
471.575	15.69
471.7	30.69
471.825	7.69
471.95	2.69
472.075	9.69
472.2	-3.31
472.325	-5.31
472.45	1.69
472.575	16.69
472.7	11.69
472.825	19.69
472.95	22.69
473.075	28.69
473.2	8.69
473.325	21.69
473.45	-1.31
473.575	-3.31
473.7	15.69
473.825	14.69
473.95	21.69
474.075	33.69
474.2	21.69
474.325	7.69
474.45	14.69
474.574	20.69
474.699	18.69
474.824	20.69
474.949	9.69
475.074	-4.31
475.199	28.69
475.324	20.69
475.449	22.69
475.574	14.69
475.699	12.69
475.824	14.69
475.949	19.69
476.073	23.69
476.198	9.69
476.323	17.69
476.448	13.69
476.573	15.69
476.698	31.69
476.823	26.69
476.947	21.69
477.072	11.69
477.197	20.69
477.322	11.69
477.447	-6.31
477.572	17.69
477.697	17.69
477.821	22.69
477.946	16.69
478.071	21.69
478.196	11.69
478.321	22.69
478.445	11.69
478.57	10.69
478.695	8.69
478.82	29.69
478.945	26.69
479.069	11.69
479.194	23.69
479.319	32.69
479.444	23.69
479.569	10.69
479.693	23.69
479.818	10.69
479.943	34.69
480.068	32.69
480.192	47.69
480.317	25.69
480.442	22.69
480.567	17.69
480.691	28.69
480.816	9.69
480.941	-10.31
481.066	20.69
481.19	39.69
481.315	28.69
481.44	12.69
481.564	14.69
481.689	32.69
481.814	12.69
481.938	20.69
482.063	15.69
482.188	35.69
482.313	33.69
482.437	19.69
482.562	24.69
482.687	26.69
482.811	10.69
482.936	23.69
483.061	18.69
483.185	30.69
483.31	26.69
483.435	31.69
483.559	14.69
483.684	14.69
483.808	51.69
483.933	21.69
484.058	-1.31
484.182	17.69
484.307	26.69
484.432	21.69
484.556	13.69
484.681	14.69
484.805	24.69
484.93	25.69
485.055	49.69
485.179	87.69
485.304	133.69
485.428	350.69
485.553	1226.69
485.678	1719.69
485.802	1622.69
485.927	1808.69
486.051	2660.69
486.176	1632.69
486.3	465.69
486.425	162.69
486.549	107.69
486.674	67.69
486.799	61.69
486.923	34.69
487.048	17.69
487.172	29.69
487.297	27.69
487.421	26.69
487.546	31.69
487.67	29.69
487.795	14.69
487.919	36.69
488.044	28.69
488.168	24.69
488.293	33.69
488.417	17.69
488.542	26.69
488.666	43.69
488.791	35.69
488.915	19.69
489.04	22.69
489.164	16.69
489.289	40.69
489.413	6.69
489.538	23.69
489.662	27.69
489.786	21.69
489.911	10.69
490.035	19.69
490.16	19.69
490.284	17.69
490.409	2.69
490.533	12.69
490.658	52.69
490.782	29.69
490.906	-0.31
491.031	29.69
491.155	18.69
491.28	34.69
491.404	21.69
491.528	30.69
491.653	27.69
491.777	46.69
491.902	12.69
492.026	12.69
492.15	34.69
492.275	33.69
492.399	29.69
492.524	14.69
492.648	42.69
492.772	31.69
492.897	33.69
493.021	33.69
493.145	39.69
493.27	27.69
493.394	14.69
493.518	13.69
493.643	2.69
493.767	25.69
493.891	8.69
494.016	18.69
494.14	18.69
494.264	28.69
494.389	24.69
494.513	20.69
494.637	1.69
494.762	37.69
494.886	17.69
495.01	24.69
495.134	17.69
495.259	27.69
495.383	15.69
495.507	19.69
495.632	34.69
495.756	41.69
495.88	17.69
496.004	0.69
496.129	4.69
496.253	29.69
496.377	25.69
496.501	42.69
496.626	25.69
496.75	24.69
496.874	27.69
496.998	18.69
497.123	21.69
497.247	19.69
497.371	12.69
497.495	27.69
497.62	8.69
497.744	20.69
497.868	0.69
497.992	22.69
498.116	10.69
498.241	29.69
498.365	6.69
498.489	5.69
498.613	38.69
498.737	12.69
498.862	16.69
498.986	9.69
499.11	18.69
499.234	29.69
499.358	5.69
499.482	9.69
499.607	12.69
499.731	22.69
499.855	20.69
499.979	16.69
500.103	21.69
500.227	32.69
500.351	-5.31
500.476	16.69
500.6	17.69
500.724	22.69
500.848	11.69
500.972	35.69
501.096	28.69
501.22	21.69
501.344	15.69
501.469	15.69
501.593	27.69
501.717	21.69
501.841	15.69
501.965	12.69
502.089	6.69
502.213	23.69
502.337	16.69
502.461	1.69
502.585	19.69
502.709	33.69
502.834	22.69
502.958	32.69
503.082	24.69
503.206	22.69
503.33	28.69
503.454	21.69
503.578	35.69
503.702	46.69
503.826	23.69
503.95	35.69
504.074	9.69
504.198	29.69
504.322	12.69
504.446	3.69
504.57	9.69
504.694	30.69
504.818	0.69
504.942	26.69
505.066	16.69
505.19	27.69
505.314	32.69
505.438	18.69
505.562	12.69
505.686	24.69
505.81	28.69
505.934	28.69
506.058	7.69
506.182	29.69
506.306	12.69
506.43	14.69
506.554	19.69
506.678	11.69
506.802	-1.31
506.926	16.69
507.05	18.69
507.174	18.69
507.298	29.69
507.422	26.69
507.546	16.69
507.67	39.69
507.794	-5.31
507.918	15.69
508.042	-5.31
508.165	14.69
508.289	15.69
508.413	12.69
508.537	-1.31
508.661	24.69
508.785	30.69
508.909	26.69
509.033	14.69
509.157	18.69
509.281	6.69
509.405	11.69
509.528	32.69
509.652	23.69
509.776	9.69
509.9	23.69
510.024	2.69
510.148	24.69
510.272	19.69
510.396	25.69
510.519	14.69
510.643	17.69
510.767	21.69
510.891	26.69
511.015	12.69
511.139	14.69
511.263	26.69
511.386	24.69
511.51	16.69
511.634	16.69
511.758	14.69
511.882	19.69
512.006	12.69
512.129	20.69
512.253	43.69
512.377	16.69
512.501	25.69
512.625	15.69
512.748	9.69
512.872	12.69
512.996	9.69
513.12	23.69
513.244	9.69
513.367	20.69
513.491	10.69
513.615	25.69
513.739	10.69
513.862	26.69
513.986	14.69
514.11	41.69
514.234	14.69
514.358	41.69
514.481	31.69
514.605	18.69
514.729	14.69
514.853	30.69
514.976	16.69
515.1	17.69
515.224	35.69
515.348	10.69
515.471	17.69
515.595	23.69
515.719	16.69
515.842	38.69
515.966	13.69
516.09	43.69
516.214	16.69
516.337	62.69
516.461	18.69
516.585	19.69
516.708	18.69
516.832	4.69
516.956	24.69
517.08	33.69
517.203	25.69
517.327	36.69
517.451	32.69
517.574	32.69
517.698	8.69
517.822	20.69
517.945	21.69
518.069	25.69
518.193	54.69
518.316	24.69
518.44	36.69
518.564	32.69
518.687	27.69
518.811	55.69
518.935	82.69
519.058	34.69
519.182	46.69
519.306	33.69
519.429	30.69
519.553	59.69
519.676	49.69
519.8	17.69
519.924	9.69
520.047	18.69
520.171	22.69
520.294	19.69
520.418	20.69
520.542	17.69
520.665	22.69
520.789	26.69
520.913	9.69
521.036	-1.31
521.16	9.69
521.283	30.69
521.407	5.69
521.53	-3.31
521.654	1.69
521.778	37.69
521.901	16.69
522.025	27.69
522.148	8.69
522.272	17.69
522.395	20.69
522.519	32.69
522.643	8.69
522.766	14.69
522.89	12.69
523.013	18.69
523.137	10.69
523.26	11.69
523.384	11.69
523.507	21.69
523.631	20.69
523.754	19.69
523.878	22.69
524.002	33.69
524.125	24.69
524.249	14.69
524.372	23.69
524.496	23.69
524.619	16.69
524.743	25.69
524.866	20.69
524.99	14.69
525.113	6.69
525.237	27.69
525.36	24.69
525.484	40.69
525.607	7.69
525.731	0.69
525.854	6.69
525.978	38.69
526.101	14.69
526.224	12.69
526.348	23.69
526.471	30.69
526.595	15.69
526.718	18.69
526.842	-1.31
526.965	22.69
527.089	-2.31
527.212	8.69
527.336	14.69
527.459	19.69
527.582	25.69
527.706	31.69
527.829	22.69
527.953	26.69
528.076	-8.31
528.2	11.69
528.323	31.69
528.446	36.69
528.57	11.69
528.693	30.69
528.817	19.69
528.94	25.69
529.064	31.69
529.187	20.69
529.31	20.69
529.434	5.69
529.557	9.69
529.68	15.69
529.804	17.69
529.927	14.69
530.051	12.69
530.174	5.69
530.297	19.69
530.421	17.69
530.544	22.69
530.668	38.69
530.791	11.69
530.914	41.69
531.038	18.69
531.161	24.69
531.284	12.69
531.408	4.69
531.531	19.69
531.654	9.69
531.778	10.69
531.901	-2.31
532.024	23.69
532.148	1.69
532.271	13.69
532.394	23.69
532.518	35.69
532.641	25.69
532.764	16.69
532.888	12.69
533.011	0.69
533.134	6.69
533.258	19.69
533.381	5.69
533.504	16.69
533.628	15.69
533.751	16.69
533.874	2.69
533.997	6.69
534.121	11.69
534.244	-5.31
534.367	13.69
534.491	4.69
534.614	14.69
534.737	21.69
534.86	19.69
534.984	-4.31
535.107	-0.31
535.23	13.69
535.354	4.69
535.477	-0.31
535.6	10.69
535.723	8.69
535.847	7.69
535.97	-1.31
536.093	25.69
536.216	28.69
536.34	6.69
536.463	10.69
536.586	19.69
536.709	6.69
536.833	14.69
536.956	9.69
537.079	19.69
537.202	11.69
537.325	12.69
537.449	4.69
537.572	18.69
537.695	17.69
537.818	15.69
537.941	10.69
538.065	10.69
538.188	13.69
538.311	32.69
538.434	24.69
538.558	15.69
538.681	21.69
538.804	9.69
538.927	26.69
539.05	29.69
539.173	1.69
539.297	3.69
539.42	22.69
539.543	37.69
539.666	32.69
539.789	17.69
539.913	7.69
540.036	21.69
540.159	15.69
540.282	12.69
540.405	-15.31
540.528	6.69
540.651	20.69
540.775	2.69
540.898	18.69
541.021	13.69
541.144	23.69
541.267	23.69
541.39	7.69
541.513	32.69
541.637	15.69
541.76	21.69
541.883	-1.31
542.006	29.69
542.129	22.69
542.252	2.69
542.375	19.69
542.498	1.69
542.622	18.69
542.745	44.69
542.868	13.69
542.991	21.69
543.114	32.69
543.237	48.69
543.36	50.69
543.483	30.69
543.606	17.69
543.73	29.69
543.853	9.69
543.976	-2.31
544.099	31.69
544.222	26.69
544.345	12.69
544.468	10.69
544.591	14.69
544.714	18.69
544.837	23.69
544.96	15.69
545.083	22.69
545.206	20.69
545.329	32.69
545.453	19.69
545.576	12.69
545.699	11.69
545.822	21.69
545.945	48.69
546.068	7.69
546.191	28.69
546.314	22.69
546.437	28.69
546.56	23.69
546.683	11.69
546.806	35.69
546.929	22.69
547.052	20.69
547.175	18.69
547.298	20.69
547.421	10.69
547.544	9.69
547.667	26.69
547.79	28.69
547.913	11.69
548.036	4.69
548.159	15.69
548.282	23.69
548.405	-3.31
548.528	10.69
548.651	9.69
548.774	9.69
548.897	24.69
549.02	40.69
549.143	38.69
549.266	18.69
549.389	26.69
549.512	19.69
549.635	42.69
549.758	26.69
549.881	10.69
550.004	14.69
550.127	10.69
550.25	16.69
550.373	-14.31
550.496	15.69
550.619	15.69
550.742	-0.31
550.865	-2.31
550.988	9.69
551.111	26.69
551.234	27.69
551.356	16.69
551.479	8.69
551.602	7.69
551.725	19.69
551.848	16.69
551.971	43.69
552.094	13.69
552.217	3.69
552.34	-6.31
552.463	-6.31
552.586	13.69
552.709	4.69
552.832	2.69
552.955	16.69
553.077	32.69
553.2	14.69
553.323	16.69
553.446	8.69
553.569	10.69
553.692	7.69
553.815	15.69
553.938	13.69
554.061	23.69
554.184	19.69
554.306	12.69
554.429	23.69
554.552	22.69
554.675	3.69
554.798	19.69
554.921	16.69
555.044	13.69
555.167	4.69
555.29	0.69
555.412	1.69
555.535	15.69
555.658	17.69
555.781	34.69
555.904	13.69
556.027	27.69
556.15	11.69
556.272	20.69
556.395	18.69
556.518	7.69
556.641	26.69
556.764	25.69
556.887	23.69
557.01	8.69
557.132	-11.31
557.255	0.69
557.378	28.69
557.501	21.69
557.624	15.69
557.747	25.69
557.869	37.69
557.992	40.69
558.115	28.69
558.238	18.69
558.361	16.69
558.483	38.69
558.606	27.69
558.729	10.69
558.852	24.69
558.975	44.69
559.098	37.69
559.22	28.69
559.343	10.69
559.466	21.69
559.589	10.69
559.712	14.69
559.834	10.69
559.957	10.69
560.08	9.69
560.203	27.69
560.325	39.69
560.448	48.69
560.571	21.69
560.694	16.69
560.817	20.69
560.939	6.69
561.062	6.69
561.185	5.69
561.308	12.69
561.43	-5.31
561.553	7.69
561.676	26.69
561.799	11.69
561.921	2.69
562.044	13.69
562.167	-9.31
562.29	33.69
562.413	25.69
562.535	15.69
562.658	-5.31
562.781	5.69
562.903	20.69
563.026	28.69
563.149	30.69
563.272	13.69
563.394	14.69
563.517	6.69
563.64	-3.31
563.763	10.69
563.885	31.69
564.008	20.69
564.131	26.69
564.254	8.69
564.376	19.69
564.499	3.69
564.622	11.69
564.744	12.69
564.867	9.69
564.99	16.69
565.113	24.69
565.235	9.69
565.358	19.69
565.481	13.69
565.603	12.69
565.726	-2.31
565.849	16.69
565.971	20.69
566.094	8.69
566.217	8.69
566.34	9.69
566.462	22.69
566.585	25.69
566.708	27.69
566.83	27.69
566.953	36.69
567.076	27.69
567.198	14.69
567.321	-14.31
567.444	15.69
567.566	18.69
567.689	-6.31
567.812	8.69
567.934	18.69
568.057	22.69
568.18	5.69
568.302	1.69
568.425	3.69
568.548	-2.31
568.67	6.69
568.793	21.69
568.916	22.69
569.038	14.69
569.161	30.69
569.283	12.69
569.406	4.69
569.529	22.69
569.651	-1.31
569.774	-5.31
569.897	4.69
570.019	11.69
570.142	7.69
570.265	7.69
570.387	26.69
570.51	26.69
570.632	25.69
570.755	19.69
570.878	4.69
571	8.69
571.123	-2.31
571.246	25.69
571.368	20.69
571.491	10.69
571.613	9.69
571.736	-6.31
571.859	11.69
571.981	8.69
572.104	-0.31
572.226	5.69
572.349	-1.31
572.472	18.69
572.594	32.69
572.717	13.69
572.839	8.69
572.962	10.69
573.085	21.69
573.207	23.69
573.33	23.69
573.452	31.69
573.575	28.69
573.697	23.69
573.82	9.69
573.943	7.69
574.065	12.69
574.188	10.69
574.31	35.69
574.433	20.69
574.555	53.69
574.678	21.69
574.801	20.69
574.923	15.69
575.046	7.69
575.168	10.69
575.291	17.69
575.413	15.69
575.536	-1.31
575.659	11.69
575.781	17.69
575.904	13.69
576.026	11.69
576.149	3.69
576.271	11.69
576.394	24.69
576.516	13.69
576.639	21.69
576.761	-9.31
576.884	-25.31
577.007	-1.31
577.129	22.69
577.252	15.69
577.374	19.69
577.497	34.69
577.619	26.69
577.742	19.69
577.864	40.69
577.987	22.69
578.109	27.69
578.232	17.69
578.354	21.69
578.477	3.69
578.599	19.69
578.722	11.69
578.844	11.69
578.967	12.69
579.089	30.69
579.212	11.69
579.334	34.69
579.457	15.69
579.579	19.69
579.702	-5.31
579.824	12.69
579.947	-11.31
580.069	-6.31
580.192	23.69
580.314	42.69
580.437	14.69
580.559	42.69
580.682	26.69
580.804	29.69
580.927	17.69
581.049	38.69
581.172	16.69
581.294	21.69
581.417	18.69
581.539	17.69
581.662	7.69
581.784	28.69
581.907	22.69
582.029	28.69
582.152	8.69
582.274	8.69
582.396	16.69
582.519	17.69
582.641	-0.31
582.764	6.69
582.886	22.69
583.009	9.69
583.131	26.69
583.254	14.69
583.376	24.69
583.499	14.69
583.621	19.69
583.743	24.69
583.866	21.69
583.988	16.69
584.111	26.69
584.233	32.69
584.356	16.69
584.478	12.69
584.601	3.69
584.723	22.69
584.845	22.69
584.968	14.69
585.09	10.69
585.213	20.69
585.335	-2.31
585.458	1.69
585.58	5.69
585.702	24.69
585.825	4.69
585.947	-1.31
586.07	-6.31
586.192	-0.31
586.315	29.69
586.437	16.69
586.559	10.69
586.682	-8.31
586.804	14.69
586.927	7.69
587.049	19.69
587.171	31.69
587.294	10.69
587.416	40.69
587.539	9.69
587.661	-10.31
587.783	2.69
587.906	11.69
588.028	26.69
588.151	24.69
588.273	34.69
588.395	10.69
588.518	9.69
588.64	13.69
588.763	39.69
588.885	29.69
589.007	32.69
589.13	-11.31
589.252	1.69
589.375	25.69
589.497	4.69
589.619	21.69
589.742	-1.31
589.864	17.69
589.986	20.69
590.109	5.69
590.231	-8.31
590.354	30.69
590.476	4.69
590.598	-10.31
590.721	4.69
590.843	17.69
590.965	7.69
591.088	27.69
591.21	18.69
591.332	28.69
591.455	5.69
591.577	5.69
591.7	12.69
591.822	24.69
591.944	21.69
592.067	13.69
592.189	17.69
592.311	26.69
592.434	-5.31
592.556	18.69
592.678	16.69
592.801	15.69
592.923	18.69
593.045	18.69
593.168	16.69
593.29	17.69
593.412	25.69
593.535	17.69
593.657	4.69
593.779	9.69
593.902	12.69
594.024	21.69
594.146	32.69
594.269	22.69
594.391	14.69
594.513	19.69
594.636	19.69
594.758	4.69
594.88	23.69
595.003	24.69
595.125	10.69
595.247	20.69
595.37	33.69
595.492	3.69
595.614	42.69
595.737	26.69
595.859	8.69
595.981	17.69
596.104	25.69
596.226	23.69
596.348	23.69
596.471	16.69
596.593	27.69
596.715	21.69
596.838	13.69
596.96	-7.31
597.082	21.69
597.204	18.69
597.327	19.69
597.449	-2.31
597.571	22.69
597.694	28.69
597.816	22.69
597.938	7.69
598.061	-1.31
598.183	15.69
598.305	33.69
598.427	22.69
598.55	13.69
598.672	35.69
598.794	24.69
598.917	8.69
599.039	22.69
599.161	25.69
599.283	17.69
599.406	41.69
599.528	29.69
599.65	32.69
599.773	5.69
599.895	41.69
600.017	32.69
600.139	6.69
600.262	2.69
600.384	31.69
600.506	18.69
600.628	28.69
600.751	22.69
600.873	10.69
600.995	15.69
601.118	38.69
601.24	5.69
601.362	33.69
601.484	33.69
601.607	18.69
601.729	4.69
601.851	6.69
601.973	22.69
602.096	33.69
602.218	30.69
602.34	18.69
602.462	20.69
602.585	8.69
602.707	6.69
602.829	24.69
602.951	2.69
603.074	16.69
603.196	14.69
603.318	0.69
603.44	8.69
603.563	14.69
603.685	4.69
603.807	28.69
603.929	34.69
604.052	28.69
604.174	22.69
604.296	32.69
604.418	21.69
604.541	26.69
604.663	-1.31
604.785	8.69
604.907	1.69
605.03	-1.31
605.152	44.69
605.274	29.69
605.396	12.69
605.519	17.69
605.641	22.69
605.763	30.69
605.885	21.69
606.008	15.69
606.13	9.69
606.252	22.69
606.374	-2.31
606.496	0.69
606.619	27.69
606.741	14.69
606.863	40.69
606.985	33.69
607.108	26.69
607.23	15.69
607.352	9.69
607.474	4.69
607.596	40.69
607.719	14.69
607.841	3.69
607.963	21.69
608.085	16.69
608.207	44.69
608.33	24.69
608.452	12.69
608.574	17.69
608.696	18.69
608.819	10.69
608.941	13.69
609.063	14.69
609.185	26.69
609.307	27.69
609.43	34.69
609.552	6.69
609.674	-21.31
609.796	8.69
609.918	21.69
610.041	10.69
610.163	35.69
610.285	18.69
610.407	38.69
610.529	12.69
610.652	7.69
610.774	25.69
610.896	18.69
611.018	0.69
611.14	32.69
611.263	-1.31
611.385	-2.31
611.507	18.69
611.629	-0.31
611.751	3.69
611.873	41.69
611.996	27.69
612.118	20.69
612.24	-0.31
612.362	21.69
612.484	6.69
612.607	24.69
612.729	31.69
612.851	32.69
612.973	13.69
613.095	9.69
613.218	17.69
613.34	25.69
613.462	33.69
613.584	27.69
613.706	22.69
613.828	30.69
613.951	12.69
614.073	2.69
614.195	-16.31
614.317	26.69
614.439	27.69
614.561	33.69
614.684	24.69
614.806	25.69
614.928	26.69
615.05	32.69
615.172	18.69
615.294	10.69
615.417	7.69
615.539	23.69
615.661	15.69
615.783	35.69
615.905	29.69
616.027	66.69
616.15	101.69
616.272	88.69
616.394	51.69
616.516	46.69
616.638	21.69
616.76	29.69
616.883	20.69
617.005	15.69
617.127	13.69
617.249	35.69
617.371	13.69
617.493	15.69
617.615	26.69
617.738	13.69
617.86	9.69
617.982	11.69
618.104	0.69
618.226	-2.31
618.348	-5.31
618.471	16.69
618.593	0.69
618.715	20.69
618.837	4.69
618.959	7.69
619.081	25.69
619.203	11.69
619.326	7.69
619.448	2.69
619.57	27.69
619.692	21.69
619.814	38.69
619.936	26.69
620.058	19.69
620.181	6.69
620.303	15.69
620.425	16.69
620.547	6.69
620.669	20.69
620.791	16.69
620.913	11.69
621.036	-3.31
621.158	11.69
621.28	19.69
621.402	9.69
621.524	-12.31
621.646	14.69
621.768	10.69
621.891	-9.31
622.013	22.69
622.135	13.69
622.257	-4.31
622.379	4.69
622.501	8.69
622.623	29.69
622.745	9.69
622.868	21.69
622.99	15.69
623.112	15.69
623.234	10.69
623.356	7.69
623.478	18.69
623.6	22.69
623.722	12.69
623.845	14.69
623.967	3.69
624.089	18.69
624.211	11.69
624.333	9.69
624.455	11.69
624.577	8.69
624.699	7.69
624.822	25.69
624.944	-2.31
625.066	22.69
625.188	-5.31
625.31	28.69
625.432	29.69
625.554	17.69
625.676	24.69
625.799	6.69
625.921	26.69
626.043	20.69
626.165	17.69
626.287	-7.31
626.409	8.69
626.531	13.69
626.653	5.69
626.775	16.69
626.898	13.69
627.02	10.69
627.142	34.69
627.264	20.69
627.386	-2.31
627.508	13.69
627.63	15.69
627.752	23.69
627.874	4.69
627.997	35.69
628.119	28.69
628.241	26.69
628.363	24.69
628.485	21.69
628.607	11.69
628.729	12.69
628.851	9.69
628.973	17.69
629.096	-2.31
629.218	24.69
629.34	39.69
629.462	-2.31
629.584	4.69
629.706	32.69
629.828	30.69
629.95	12.69
630.072	7.69
630.195	14.69
630.317	23.69
630.439	13.69
630.561	19.69
630.683	6.69
630.805	18.69
630.927	11.69
631.049	15.69
631.171	9.69
631.293	23.69
631.416	8.69
631.538	10.69
631.66	0.69
631.782	9.69
631.904	43.69
632.026	6.69
632.148	20.69
632.27	-1.31
632.392	13.69
632.514	19.69
632.637	11.69
632.759	13.69
632.881	12.69
633.003	10.69
633.125	0.69
633.247	14.69
633.369	5.69
633.491	8.69
633.613	14.69
633.735	10.69
633.858	20.69
633.98	26.69
634.102	-0.31
634.224	18.69
634.346	17.69
634.468	13.69
634.59	14.69
634.712	16.69
634.834	29.69
634.956	28.69
635.078	7.69
635.201	20.69
635.323	22.69
635.445	4.69
635.567	8.69
635.689	19.69
635.811	34.69
635.933	16.69
636.055	21.69
636.177	7.69
636.299	18.69
636.421	-1.31
636.544	0.69
636.666	15.69
636.788	8.69
636.91	23.69
637.032	-1.31
637.154	12.69
637.276	29.69
637.398	24.69
637.52	18.69
637.642	13.69
637.764	9.69
637.887	-10.31
638.009	13.69
638.131	5.69
638.253	20.69
638.375	17.69
638.497	36.69
638.619	2.69
638.741	7.69
638.863	-10.31
638.985	3.69
639.107	-5.31
639.23	-3.31
639.352	10.69
639.474	24.69
639.596	10.69
639.718	26.69
639.84	16.69
639.962	8.69
640.084	30.69
640.206	28.69
640.328	-7.31
640.45	10.69
640.573	8.69
640.695	6.69
640.817	20.69
640.939	19.69
641.061	27.69
641.183	20.69
641.305	16.69
641.427	14.69
641.549	8.69
641.671	13.69
641.793	21.69
641.915	31.69
642.038	20.69
642.16	20.69
642.282	18.69
642.404	15.69
642.526	22.69
642.648	20.69
642.77	6.69
642.892	7.69
643.014	29.69
643.136	12.69
643.258	5.69
643.381	21.69
643.503	37.69
643.625	7.69
643.747	-10.31
643.869	20.69
643.991	19.69
644.113	6.69
644.235	23.69
644.357	30.69
644.479	22.69
644.601	22.69
644.723	9.69
644.846	14.69
644.968	10.69
645.09	13.69
645.212	7.69
645.334	30.69
645.456	22.69
645.578	20.69
645.7	27.69
645.822	28.69
645.944	26.69
646.066	14.69
646.188	15.69
646.311	14.69
646.433	8.69
646.555	54.69
646.677	56.69
646.799	31.69
646.921	28.69
647.043	33.69
647.165	26.69
647.287	13.69
647.409	9.69
647.531	23.69
647.654	-1.31
647.776	2.69
647.898	14.69
648.02	7.69
648.142	14.69
648.264	-14.31
648.386	10.69
648.508	5.69
648.63	-10.31
648.752	6.69
648.874	1.69
648.997	20.69
649.119	17.69
649.241	-0.31
649.363	22.69
649.485	26.69
649.607	1.69
649.729	0.69
649.851	18.69
649.973	18.69
650.095	7.69
650.217	4.69
650.34	-6.31
650.462	16.69
650.584	9.69
650.706	25.69
650.828	19.69
650.95	-4.31
651.072	16.69
651.194	13.69
651.316	24.69
651.438	21.69
651.56	0.69
651.683	19.69
651.805	9.69
651.927	9.69
652.049	15.69
652.171	12.69
652.293	25.69
652.415	13.69
652.537	10.69
652.659	3.69
652.781	12.69
652.903	29.69
653.026	37.69
653.148	26.69
653.27	1.69
653.392	23.69
653.514	-1.31
653.636	6.69
653.758	18.69
653.88	9.69
654.002	-5.31
654.124	1.69
654.247	24.69
654.369	12.69
654.491	23.69
654.613	17.69
654.735	27.69
654.857	28.69
654.979	38.69
655.101	25.69
655.223	60.69
655.345	45.69
655.468	44.69
655.59	24.69
655.712	34.69
655.834	38.69
655.956	36.69
656.078	45.69
656.2	47.69
656.322	52.69
656.444	25.69
656.566	49.69
656.689	53.69
656.811	60.69
656.933	84.69
657.055	82.69
657.177	148.69
657.299	250.69
657.421	510.69
657.543	1862.69
657.665	12549.69
657.787	15179.69
657.91	15278.69
658.032	15667.69
658.154	4656.69
658.276	3716.69
658.398	1210.69
658.52	1054.69
658.642	503.69
658.764	585.69
658.886	274.69
659.009	416.69
659.131	220.69
659.253	317.69
659.375	169.69
659.497	238.69
659.619	132.69
659.741	209.69
659.863	89.69
659.985	164.69
660.108	91.69
660.23	153.69
660.352	84.69
660.474	130.69
660.596	97.69
660.718	141.69
660.84	77.69
660.962	118.69
661.084	38.69
661.207	92.69
661.329	63.69
661.451	91.69
661.573	40.69
661.695	99.69
661.817	56.69
661.939	106.69
662.061	89.69
662.184	96.69
662.306	61.69
662.428	78.69
662.55	56.69
662.672	65.69
662.794	46.69
662.916	65.69
663.038	43.69
663.161	76.69
663.283	46.69
663.405	81.69
663.527	38.69
663.649	79.69
663.771	39.69
663.893	52.69
664.015	31.69
664.138	65.69
664.26	26.69
664.382	56.69
664.504	30.69
664.626	38.69
664.748	22.69
664.87	41.69
664.992	35.69
665.115	74.69
665.237	37.69
665.359	27.69
665.481	28.69
665.603	37.69
665.725	16.69
665.847	18.69
665.97	24.69
666.092	37.69
666.214	32.69
666.336	27.69
666.458	33.69
666.58	46.69
666.702	-1.31
666.825	38.69
666.947	16.69
667.069	48.69
667.191	22.69
667.313	56.69
667.435	12.69
667.557	24.69
667.68	21.69
667.802	34.69
667.924	29.69
668.046	45.69
668.168	26.69
668.29	41.69
668.412	24.69
668.535	30.69
668.657	16.69
668.779	28.69
668.901	25.69
669.023	24.69
669.145	15.69
669.267	40.69
669.39	26.69
669.512	24.69
669.634	29.69
669.756	31.69
669.878	12.69
670	44.69
670.123	20.69
670.245	38.69
670.367	22.69
670.489	39.69
670.611	19.69
670.733	24.69
670.856	0.69
670.978	28.69
671.1	22.69
671.222	46.69
671.344	24.69
671.466	17.69
671.589	-2.31
671.711	10.69
671.833	12.69
671.955	11.69
672.077	19.69
672.199	40.69
672.322	37.69
672.444	21.69
672.566	23.69
672.688	20.69
672.81	22.69
672.932	27.69
673.055	9.69
673.177	21.69
673.299	16.69
673.421	12.69
673.543	8.69
673.665	48.69
673.788	20.69
673.91	17.69
674.032	18.69
674.154	23.69
674.276	38.69
674.399	17.69
674.521	13.69
674.643	30.69
674.765	-5.31
674.887	29.69
675.009	14.69
675.132	10.69
675.254	17.69
675.376	26.69
675.498	22.69
675.62	41.69
675.743	22.69
675.865	32.69
675.987	22.69
676.109	29.69
676.231	24.69
676.354	24.69
676.476	15.69
676.598	38.69
676.72	19.69
676.842	23.69
676.965	23.69
677.087	10.69
677.209	31.69
677.331	31.69
677.453	25.69
677.576	30.69
677.698	28.69
677.82	15.69
677.942	13.69
678.064	30.69
678.187	18.69
678.309	24.69
678.431	17.69
678.553	26.69
678.675	28.69
678.798	47.69
678.92	7.69
679.042	22.69
679.164	6.69
679.286	25.69
679.409	15.69
679.531	7.69
679.653	8.69
679.775	14.69
679.898	16.69
680.02	4.69
680.142	3.69
680.264	22.69
680.386	0.69
680.509	45.69
680.631	15.69
680.753	22.69
680.875	-9.31
680.998	26.69
681.12	23.69
681.242	24.69
681.364	2.69
681.486	12.69
681.609	0.69
681.731	9.69
681.853	2.69
681.975	24.69
682.098	27.69
682.22	25.69
682.342	14.69
682.464	46.69
682.587	7.69
682.709	12.69
682.831	10.69
682.953	5.69
683.076	-7.31
683.198	11.69
683.32	8.69
683.442	6.69
683.565	21.69
683.687	28.69
683.809	0.69
683.931	-14.31
684.054	13.69
684.176	27.69
684.298	12.69
684.42	16.69
684.543	8.69
684.665	24.69
684.787	12.69
684.909	25.69
685.032	24.69
685.154	-5.31
685.276	14.69
685.398	26.69
685.521	4.69
685.643	20.69
685.765	9.69
685.887	13.69
686.01	13.69
686.132	14.69
686.254	24.69
686.377	22.69
686.499	8.69
686.621	20.69
686.743	18.69
686.866	11.69
686.988	33.69
687.11	31.69
687.232	12.69
687.355	10.69
687.477	26.69
687.599	27.69
687.722	1.69
687.844	16.69
687.966	25.69
688.088	14.69
688.211	33.69
688.333	32.69
688.455	31.69
688.578	33.69
688.7	15.69
688.822	28.69
688.944	11.69
689.067	52.69
689.189	6.69
689.311	10.69
689.434	17.69
689.556	23.69
689.678	23.69
689.801	22.69
689.923	24.69
690.045	41.69
690.167	22.69
690.29	41.69
690.412	7.69
690.534	18.69
690.657	12.69
690.779	11.69
690.901	5.69
691.024	1.69
691.146	3.69
691.268	22.69
691.391	17.69
691.513	28.69
691.635	17.69
691.758	36.69
691.88	14.69
692.002	14.69
692.125	1.69
692.247	-2.31
692.369	19.69
692.492	5.69
692.614	6.69
692.736	12.69
692.859	17.69
692.981	17.69
693.103	0.69
693.226	29.69
693.348	23.69
693.47	0.69
693.593	14.69
693.715	13.69
693.837	8.69
693.96	2.69
694.082	4.69
694.204	27.69
694.327	6.69
694.449	7.69
694.571	21.69
694.694	22.69
694.816	11.69
694.938	15.69
695.061	21.69
695.183	14.69
695.305	10.69
695.428	34.69
695.55	0.69
695.672	-14.31
695.795	26.69
695.917	39.69
696.04	10.69
696.162	16.69
696.284	-0.31
696.407	21.69
696.529	5.69
696.651	22.69
696.774	-3.31
696.896	20.69
697.019	10.69
697.141	9.69
697.263	18.69
697.386	11.69
697.508	20.69
697.63	29.69
697.753	15.69
697.875	18.69
697.998	18.69
698.12	15.69
698.242	12.69
698.365	15.69
698.487	17.69
698.61	21.69
698.732	5.69
698.854	17.69
698.977	20.69
699.099	14.69
699.221	6.69
699.344	17.69
699.466	19.69
699.589	17.69
699.711	6.69
699.834	15.69
699.956	3.69
700.078	20.69
700.201	6.69
700.323	22.69
700.446	15.69
700.568	12.69
700.69	10.69
700.813	19.69
700.935	13.69
701.058	5.69
701.18	11.69
701.302	8.69
701.425	9.69
701.547	14.69
701.67	1.69
701.792	17.69
701.915	15.69
702.037	10.69
702.159	17.69
702.282	36.69
702.404	11.69
702.527	27.69
702.649	25.69
702.772	12.69
702.894	20.69
703.017	6.69
703.139	12.69
703.261	49.69
703.384	38.69
703.506	9.69
703.629	2.69
703.751	16.69
703.874	21.69
703.996	-5.31
704.119	-0.31
704.241	23.69
704.364	5.69
704.486	8.69
704.608	7.69
704.731	12.69
704.853	26.69
704.976	2.69
705.098	5.69
705.221	15.69
705.343	12.69
705.466	24.69
705.588	23.69
705.711	13.69
705.833	24.69
705.956	19.69
706.078	29.69
706.201	17.69
706.323	3.69
706.446	6.69
