Data from LowRes_H2_15_26_11_07_2024_HR4C61881__15__15-28-15-137.txt Node

Date: Thu Nov 07 15:28:15 EST 2024
User: crc00042
Spectrometer: HR4C6188
Trigger mode: 4
Integration Time (sec): 1.000000E-1
Scans to average: 1
Electric dark correction enabled: true
Nonlinearity correction enabled: false
Boxcar width: 0
XAxis mode: Wavelengths
Number of Pixels in Spectrum: 3648
>>>>>Begin Spectral Data<<<<<
245.66	-117.92
245.797	-117.92
245.934	-117.92
246.071	-83.92
246.208	1.08
246.344	-2.92
246.481	1.08
246.618	6.08
246.755	9.08
246.892	-9.92
247.029	-11.92
247.165	4.08
247.302	2.08
247.439	11.08
247.576	-1.92
247.713	-10.92
247.849	7.08
247.986	-2.92
248.123	1.08
248.26	-5.92
248.396	19.08
248.533	11.08
248.67	-0.92
248.806	0.08
248.943	-12.92
249.08	11.08
249.216	18.08
249.353	-8.92
249.49	-14.92
249.626	18.08
249.763	-6.92
249.9	-21.92
250.036	-9.92
250.173	-3.92
250.309	17.08
250.446	3.08
250.582	17.08
250.719	1.08
250.856	1.08
250.992	-0.92
251.129	10.08
251.265	-18.92
251.402	3.08
251.538	-8.92
251.675	-5.92
251.811	11.08
251.948	27.08
252.084	12.08
252.221	4.08
252.357	-4.92
252.493	23.08
252.63	-1.92
252.766	31.08
252.903	24.08
253.039	5.08
253.175	20.08
253.312	17.08
253.448	-3.92
253.585	-13.92
253.721	7.08
253.857	13.08
253.994	7.08
254.13	-9.92
254.266	1.08
254.403	6.08
254.539	14.08
254.675	3.08
254.811	16.08
254.948	-10.92
255.084	1.08
255.22	-0.92
255.356	19.08
255.493	-1.92
255.629	7.08
255.765	12.08
255.901	14.08
256.037	12.08
256.174	-4.92
256.31	-24.92
256.446	-19.92
256.582	7.08
256.718	21.08
256.854	17.08
256.991	33.08
257.127	8.08
257.263	17.08
257.399	13.08
257.535	-0.92
257.671	-0.92
257.807	3.08
257.943	-1.92
258.079	-21.92
258.215	5.08
258.351	20.08
258.487	-2.92
258.623	12.08
258.759	11.08
258.895	-10.92
259.031	-1.92
259.167	-7.92
259.303	12.08
259.439	-9.92
259.575	-18.92
259.711	-4.92
259.847	-2.92
259.983	-11.92
260.119	-5.92
260.255	-1.92
260.391	17.08
260.527	8.08
260.663	17.08
260.799	10.08
260.934	-9.92
261.07	-6.92
261.206	-10.92
261.342	-14.92
261.478	6.08
261.614	21.08
261.749	-10.92
261.885	-4.92
262.021	2.08
262.157	12.08
262.293	2.08
262.428	-0.92
262.564	5.08
262.7	9.08
262.836	4.08
262.971	0.08
263.107	-3.92
263.243	16.08
263.378	12.08
263.514	-7.92
263.65	-14.92
263.785	-19.92
263.921	-8.92
264.057	10.08
264.192	-3.92
264.328	3.08
264.464	-20.92
264.599	5.08
264.735	22.08
264.871	-7.92
265.006	6.08
265.142	-12.92
265.277	-16.92
265.413	15.08
265.548	11.08
265.684	24.08
265.819	0.08
265.955	-21.92
266.091	-1.92
266.226	-13.92
266.362	0.08
266.497	10.08
266.633	-4.92
266.768	-1.92
266.903	2.08
267.039	18.08
267.174	16.08
267.31	-2.92
267.445	-2.92
267.581	-14.92
267.716	12.08
267.851	15.08
267.987	26.08
268.122	25.08
268.258	1.08
268.393	9.08
268.528	26.08
268.664	-12.92
268.799	-4.92
268.934	4.08
269.07	-1.92
269.205	11.08
269.34	13.08
269.476	13.08
269.611	6.08
269.746	11.08
269.881	-22.92
270.017	9.08
270.152	6.08
270.287	4.08
270.422	17.08
270.558	0.08
270.693	23.08
270.828	-25.92
270.963	-7.92
271.098	-0.92
271.234	-1.92
271.369	16.08
271.504	-10.92
271.639	-16.92
271.774	-0.92
271.909	-2.92
272.045	7.08
272.18	2.08
272.315	1.08
272.45	26.08
272.585	-6.92
272.72	-5.92
272.855	9.08
272.99	16.08
273.125	0.08
273.26	-18.92
273.395	5.08
273.53	13.08
273.665	24.08
273.8	6.08
273.935	-7.92
274.07	-4.92
274.205	2.08
274.34	1.08
274.475	-6.92
274.61	13.08
274.745	-21.92
274.88	16.08
275.015	-0.92
275.15	11.08
275.285	17.08
275.42	19.08
275.555	24.08
275.69	4.08
275.825	0.08
275.959	15.08
276.094	-15.92
276.229	1.08
276.364	-13.92
276.499	15.08
276.634	11.08
276.768	3.08
276.903	3.08
277.038	5.08
277.173	4.08
277.308	14.08
277.442	-4.92
277.577	-5.92
277.712	1.08
277.847	5.08
277.981	20.08
278.116	-8.92
278.251	9.08
278.386	8.08
278.52	-9.92
278.655	-9.92
278.79	22.08
278.924	9.08
279.059	24.08
279.194	-2.92
279.328	35.08
279.463	13.08
279.598	29.08
279.732	4.08
279.867	18.08
280.001	-8.92
280.136	-5.92
280.271	4.08
280.405	2.08
280.54	8.08
280.674	-4.92
280.809	11.08
280.943	-12.92
281.078	-9.92
281.213	20.08
281.347	-2.92
281.482	4.08
281.616	-0.92
281.751	10.08
281.885	3.08
282.02	-10.92
282.154	18.08
282.288	-13.92
282.423	4.08
282.557	-12.92
282.692	5.08
282.826	1.08
282.961	10.08
283.095	8.08
283.229	-1.92
283.364	-11.92
283.498	-3.92
283.633	-9.92
283.767	-8.92
283.901	21.08
284.036	14.08
284.17	-0.92
284.304	1.08
284.439	1.08
284.573	-7.92
284.707	11.08
284.842	-5.92
284.976	-20.92
285.11	-12.92
285.244	-6.92
285.379	58.08
285.513	-2.92
285.647	5.08
285.781	3.08
285.916	26.08
286.05	5.08
286.184	38.08
286.318	17.08
286.453	-8.92
286.587	-10.92
286.721	-5.92
286.855	6.08
286.989	15.08
287.123	-9.92
287.258	-10.92
287.392	13.08
287.526	11.08
287.66	10.08
287.794	1.08
287.928	-0.92
288.062	13.08
288.196	14.08
288.33	-2.92
288.464	26.08
288.598	-7.92
288.733	5.08
288.867	0.08
289.001	9.08
289.135	10.08
289.269	-11.92
289.403	-9.92
289.537	11.08
289.671	9.08
289.805	-24.92
289.939	-4.92
290.073	-14.92
290.207	10.08
290.34	-0.92
290.474	25.08
290.608	3.08
290.742	3.08
290.876	-9.92
291.01	-11.92
291.144	0.08
291.278	2.08
291.412	0.08
291.546	7.08
291.679	1.08
291.813	5.08
291.947	3.08
292.081	-11.92
292.215	-3.92
292.349	7.08
292.482	10.08
292.616	9.08
292.75	18.08
292.884	21.08
293.018	6.08
293.151	-7.92
293.285	8.08
293.419	0.08
293.553	16.08
293.686	-12.92
293.82	4.08
293.954	12.08
294.088	25.08
294.221	8.08
294.355	-11.92
294.489	-2.92
294.622	-4.92
294.756	7.08
294.89	-2.92
295.023	7.08
295.157	27.08
295.291	19.08
295.424	29.08
295.558	25.08
295.691	5.08
295.825	1.08
295.959	22.08
296.092	1.08
296.226	14.08
296.359	10.08
296.493	12.08
296.627	7.08
296.76	-2.92
296.894	3.08
297.027	-0.92
297.161	-24.92
297.294	-25.92
297.428	-4.92
297.561	30.08
297.695	-8.92
297.828	-1.92
297.962	21.08
298.095	2.08
298.229	3.08
298.362	-3.92
298.495	-13.92
298.629	-5.92
298.762	15.08
298.896	1.08
299.029	-16.92
299.162	3.08
299.296	2.08
299.429	-11.92
299.563	-15.92
299.696	-4.92
299.829	-4.92
299.963	20.08
300.096	1.08
300.229	13.08
300.363	25.08
300.496	-9.92
300.629	-12.92
300.763	7.08
300.896	-10.92
301.029	-3.92
301.162	20.08
301.296	-14.92
301.429	6.08
301.562	-24.92
301.695	13.08
301.829	2.08
301.962	14.08
302.095	1.08
302.228	-15.92
302.362	14.08
302.495	-15.92
302.628	7.08
302.761	-4.92
302.894	3.08
303.027	9.08
303.161	-13.92
303.294	-16.92
303.427	19.08
303.56	7.08
303.693	-4.92
303.826	-5.92
303.959	-2.92
304.092	-3.92
304.225	-14.92
304.359	0.08
304.492	2.08
304.625	-20.92
304.758	6.08
304.891	-11.92
305.024	5.08
305.157	18.08
305.29	-6.92
305.423	-14.92
305.556	6.08
305.689	21.08
305.822	-4.92
305.955	3.08
306.088	7.08
306.221	-8.92
306.354	-9.92
306.487	-8.92
306.62	-27.92
306.752	-10.92
306.885	3.08
307.018	4.08
307.151	-8.92
307.284	-11.92
307.417	-5.92
307.55	3.08
307.683	-0.92
307.816	20.08
307.948	12.08
308.081	10.08
308.214	7.08
308.347	17.08
308.48	-12.92
308.613	-20.92
308.745	5.08
308.878	0.08
309.011	8.08
309.144	10.08
309.277	-2.92
309.409	11.08
309.542	-10.92
309.675	8.08
309.808	15.08
309.94	7.08
310.073	-19.92
310.206	-0.92
310.339	0.08
310.471	-15.92
310.604	24.08
310.737	-8.92
310.869	10.08
311.002	-9.92
311.135	-8.92
311.267	-16.92
311.4	1.08
311.533	23.08
311.665	9.08
311.798	-0.92
311.93	12.08
312.063	23.08
312.196	5.08
312.328	-1.92
312.461	-2.92
312.593	12.08
312.726	14.08
312.859	18.08
312.991	9.08
313.124	-17.92
313.256	0.08
313.389	-13.92
313.521	-2.92
313.654	16.08
313.786	-7.92
313.919	0.08
314.051	20.08
314.184	2.08
314.316	7.08
314.449	-7.92
314.581	-7.92
314.714	14.08
314.846	-4.92
314.978	3.08
315.111	1.08
315.243	25.08
315.376	29.08
315.508	11.08
315.641	-5.92
315.773	16.08
315.905	8.08
316.038	12.08
316.17	4.08
316.302	-0.92
316.435	-5.92
316.567	-1.92
316.699	17.08
316.832	-15.92
316.964	-6.92
317.096	6.08
317.229	2.08
317.361	-8.92
317.493	1.08
317.625	0.08
317.758	7.08
317.89	12.08
318.022	10.08
318.155	-17.92
318.287	12.08
318.419	6.08
318.551	-1.92
318.683	-2.92
318.816	-6.92
318.948	-10.92
319.08	-14.92
319.212	-20.92
319.344	14.08
319.477	15.08
319.609	-0.92
319.741	10.08
319.873	-6.92
320.005	-3.92
320.137	-8.92
320.269	-4.92
320.401	-8.92
320.534	-21.92
320.666	-26.92
320.798	-7.92
320.93	-8.92
321.062	-11.92
321.194	-1.92
321.326	12.08
321.458	0.08
321.59	-4.92
321.722	-12.92
321.854	-4.92
321.986	-2.92
322.118	-1.92
322.25	-14.92
322.382	-16.92
322.514	3.08
322.646	-5.92
322.778	6.08
322.91	2.08
323.042	-6.92
323.174	4.08
323.306	-6.92
323.438	-1.92
323.57	11.08
323.702	-4.92
323.834	-1.92
323.966	-5.92
324.097	9.08
324.229	20.08
324.361	1.08
324.493	22.08
324.625	-5.92
324.757	13.08
324.889	12.08
325.021	7.08
325.152	18.08
325.284	25.08
325.416	-4.92
325.548	35.08
325.68	-2.92
325.811	10.08
325.943	13.08
326.075	-8.92
326.207	-5.92
326.339	11.08
326.47	-4.92
326.602	-8.92
326.734	8.08
326.866	21.08
326.997	-11.92
327.129	-16.92
327.261	-21.92
327.392	-7.92
327.524	11.08
327.656	12.08
327.787	20.08
327.919	14.08
328.051	-9.92
328.182	22.08
328.314	18.08
328.446	-21.92
328.577	4.08
328.709	-10.92
328.841	-1.92
328.972	-16.92
329.104	-12.92
329.235	11.08
329.367	-6.92
329.499	4.08
329.63	16.08
329.762	14.08
329.893	21.08
330.025	1.08
330.156	-19.92
330.288	9.08
330.419	2.08
330.551	27.08
330.683	33.08
330.814	12.08
330.946	21.08
331.077	9.08
331.208	-4.92
331.34	-8.92
331.471	3.08
331.603	6.08
331.734	-10.92
331.866	6.08
331.997	15.08
332.129	2.08
332.26	-1.92
332.392	29.08
332.523	-0.92
332.654	6.08
332.786	2.08
332.917	1.08
333.048	15.08
333.18	15.08
333.311	-7.92
333.443	-15.92
333.574	-0.92
333.705	21.08
333.837	-34.92
333.968	-12.92
334.099	14.08
334.231	18.08
334.362	-3.92
334.493	14.08
334.624	4.08
334.756	4.08
334.887	13.08
335.018	16.08
335.15	8.08
335.281	5.08
335.412	12.08
335.543	-5.92
335.675	-17.92
335.806	4.08
335.937	24.08
336.068	13.08
336.199	30.08
336.331	2.08
336.462	3.08
336.593	9.08
336.724	-8.92
336.855	-2.92
336.986	27.08
337.118	12.08
337.249	-2.92
337.38	4.08
337.511	13.08
337.642	22.08
337.773	11.08
337.904	18.08
338.035	7.08
338.166	2.08
338.298	-6.92
338.429	5.08
338.56	0.08
338.691	14.08
338.822	-11.92
338.953	27.08
339.084	24.08
339.215	21.08
339.346	28.08
339.477	8.08
339.608	15.08
339.739	4.08
339.87	0.08
340.001	2.08
340.132	-0.92
340.263	4.08
340.394	11.08
340.525	9.08
340.656	9.08
340.787	-12.92
340.918	26.08
341.049	12.08
341.179	4.08
341.31	12.08
341.441	-9.92
341.572	22.08
341.703	3.08
341.834	-4.92
341.965	2.08
342.096	-2.92
342.227	4.08
342.357	-0.92
342.488	-3.92
342.619	13.08
342.75	10.08
342.881	1.08
343.012	31.08
343.142	17.08
343.273	-12.92
343.404	13.08
343.535	9.08
343.666	6.08
343.796	-1.92
343.927	5.08
344.058	29.08
344.189	3.08
344.319	15.08
344.45	13.08
344.581	3.08
344.712	-4.92
344.842	-7.92
344.973	1.08
345.104	11.08
345.234	-0.92
345.365	-19.92
345.496	20.08
345.626	16.08
345.757	17.08
345.888	-12.92
346.018	10.08
346.149	-2.92
346.28	22.08
346.41	-11.92
346.541	14.08
346.672	16.08
346.802	18.08
346.933	10.08
347.063	20.08
347.194	-10.92
347.325	16.08
347.455	15.08
347.586	-2.92
347.716	-15.92
347.847	18.08
347.977	12.08
348.108	26.08
348.238	21.08
348.369	17.08
348.499	12.08
348.63	21.08
348.76	7.08
348.891	2.08
349.021	3.08
349.152	-11.92
349.282	14.08
349.413	2.08
349.543	27.08
349.674	-4.92
349.804	6.08
349.935	-18.92
350.065	0.08
350.196	10.08
350.326	2.08
350.456	0.08
350.587	29.08
350.717	3.08
350.848	22.08
350.978	22.08
351.108	-1.92
351.239	10.08
351.369	10.08
351.499	-9.92
351.63	7.08
351.76	7.08
351.89	18.08
352.021	15.08
352.151	-5.92
352.281	12.08
352.412	10.08
352.542	19.08
352.672	11.08
352.803	4.08
352.933	9.08
353.063	27.08
353.193	5.08
353.324	-7.92
353.454	-0.92
353.584	12.08
353.714	1.08
353.845	10.08
353.975	0.08
354.105	-6.92
354.235	2.08
354.365	-9.92
354.496	5.08
354.626	16.08
354.756	7.08
354.886	-2.92
355.016	14.08
355.146	7.08
355.277	2.08
355.407	11.08
355.537	17.08
355.667	6.08
355.797	-1.92
355.927	17.08
356.057	8.08
356.187	-14.92
356.318	-8.92
356.448	16.08
356.578	-2.92
356.708	8.08
356.838	3.08
356.968	-15.92
357.098	18.08
357.228	1.08
357.358	-15.92
357.488	-0.92
357.618	30.08
357.748	25.08
357.878	18.08
358.008	6.08
358.138	-1.92
358.268	2.08
358.398	19.08
358.528	-4.92
358.658	7.08
358.788	5.08
358.918	20.08
359.048	-3.92
359.178	16.08
359.308	22.08
359.438	19.08
359.568	24.08
359.698	3.08
359.827	6.08
359.957	-6.92
360.087	8.08
360.217	4.08
360.347	9.08
360.477	27.08
360.607	-0.92
360.737	17.08
360.866	-17.92
360.996	-11.92
361.126	-7.92
361.256	18.08
361.386	10.08
361.516	19.08
361.645	4.08
361.775	14.08
361.905	-2.92
362.035	-7.92
362.165	-12.92
362.294	6.08
362.424	26.08
362.554	21.08
362.684	-8.92
362.813	-8.92
362.943	17.08
363.073	0.08
363.203	11.08
363.332	15.08
363.462	-11.92
363.592	-1.92
363.721	-24.92
363.851	3.08
363.981	24.08
364.111	0.08
364.24	-22.92
364.37	15.08
364.5	16.08
364.629	-11.92
364.759	-5.92
364.888	-7.92
365.018	7.08
365.148	7.08
365.277	16.08
365.407	5.08
365.537	16.08
365.666	20.08
365.796	-8.92
365.925	-12.92
366.055	19.08
366.184	6.08
366.314	32.08
366.444	2.08
366.573	-0.92
366.703	2.08
366.832	3.08
366.962	6.08
367.091	17.08
367.221	31.08
367.35	16.08
367.48	35.08
367.609	-3.92
367.739	1.08
367.868	-11.92
367.998	3.08
368.127	29.08
368.257	21.08
368.386	27.08
368.516	17.08
368.645	-1.92
368.775	15.08
368.904	8.08
369.033	-12.92
369.163	-5.92
369.292	21.08
369.422	21.08
369.551	1.08
369.68	12.08
369.81	11.08
369.939	1.08
370.069	19.08
370.198	1.08
370.327	-11.92
370.457	12.08
370.586	8.08
370.715	6.08
370.845	2.08
370.974	16.08
371.103	23.08
371.233	6.08
371.362	3.08
371.491	-7.92
371.621	1.08
371.75	4.08
371.879	-1.92
372.008	3.08
372.138	-9.92
372.267	19.08
372.396	-6.92
372.525	23.08
372.655	6.08
372.784	4.08
372.913	-1.92
373.042	5.08
373.172	8.08
373.301	-11.92
373.43	12.08
373.559	10.08
373.688	-3.92
373.818	14.08
373.947	18.08
374.076	8.08
374.205	4.08
374.334	-15.92
374.463	-14.92
374.593	14.08
374.722	11.08
374.851	16.08
374.98	-8.92
375.109	21.08
375.238	14.08
375.367	33.08
375.496	-11.92
375.625	-18.92
375.755	5.08
375.884	7.08
376.013	14.08
376.142	-3.92
376.271	-0.92
376.4	6.08
376.529	5.08
376.658	29.08
376.787	13.08
376.916	10.08
377.045	-2.92
377.174	12.08
377.303	-10.92
377.432	28.08
377.561	20.08
377.69	0.08
377.819	25.08
377.948	1.08
378.077	0.08
378.206	0.08
378.335	8.08
378.464	29.08
378.593	18.08
378.722	12.08
378.851	2.08
378.98	32.08
379.108	-11.92
379.237	-5.92
379.366	12.08
379.495	5.08
379.624	-0.92
379.753	-2.92
379.882	2.08
380.011	-10.92
380.14	4.08
380.268	14.08
380.397	14.08
380.526	40.08
380.655	-3.92
380.784	3.08
380.913	2.08
381.041	1.08
381.17	-13.92
381.299	17.08
381.428	2.08
381.557	16.08
381.685	-3.92
381.814	22.08
381.943	4.08
382.072	-14.92
382.2	-3.92
382.329	2.08
382.458	-1.92
382.587	30.08
382.715	23.08
382.844	22.08
382.973	2.08
383.102	-5.92
383.23	-18.92
383.359	-15.92
383.488	18.08
383.616	13.08
383.745	-8.92
383.874	0.08
384.003	-9.92
384.131	-6.92
384.26	-12.92
384.389	7.08
384.517	-4.92
384.646	4.08
384.774	-4.92
384.903	26.08
385.032	12.08
385.16	-9.92
385.289	1.08
385.418	0.08
385.546	-2.92
385.675	22.08
385.803	-10.92
385.932	6.08
386.06	-15.92
386.189	2.08
386.318	8.08
386.446	-13.92
386.575	3.08
386.703	11.08
386.832	7.08
386.96	-13.92
387.089	18.08
387.217	19.08
387.346	1.08
387.474	2.08
387.603	26.08
387.731	9.08
387.86	21.08
387.988	0.08
388.117	15.08
388.245	14.08
388.374	-8.92
388.502	8.08
388.631	3.08
388.759	0.08
388.888	12.08
389.016	-10.92
389.144	6.08
389.273	17.08
389.401	3.08
389.53	-14.92
389.658	13.08
389.786	-15.92
389.915	5.08
390.043	-7.92
390.172	36.08
390.3	19.08
390.428	1.08
390.557	2.08
390.685	-5.92
390.813	5.08
390.942	5.08
391.07	-2.92
391.198	2.08
391.327	9.08
391.455	-29.92
391.583	22.08
391.712	10.08
391.84	1.08
391.968	-3.92
392.096	-5.92
392.225	3.08
392.353	-1.92
392.481	22.08
392.609	24.08
392.738	-2.92
392.866	3.08
392.994	-6.92
393.122	10.08
393.251	1.08
393.379	-12.92
393.507	-16.92
393.635	-9.92
393.764	2.08
393.892	12.08
394.02	-21.92
394.148	-1.92
394.276	-1.92
394.404	44.08
394.533	-7.92
394.661	19.08
394.789	30.08
394.917	22.08
395.045	-4.92
395.173	-27.92
395.302	-19.92
395.43	4.08
395.558	13.08
395.686	13.08
395.814	11.08
395.942	-1.92
396.07	8.08
396.198	-2.92
396.326	3.08
396.454	2.08
396.582	16.08
396.711	-3.92
396.839	-7.92
396.967	11.08
397.095	-7.92
397.223	19.08
397.351	12.08
397.479	20.08
397.607	5.08
397.735	19.08
397.863	11.08
397.991	19.08
398.119	1.08
398.247	6.08
398.375	-6.92
398.503	15.08
398.631	-2.92
398.759	10.08
398.887	-3.92
399.015	-5.92
399.143	9.08
399.271	7.08
399.399	22.08
399.526	-6.92
399.654	15.08
399.782	-0.92
399.91	8.08
400.038	28.08
400.166	6.08
400.294	10.08
400.422	-14.92
400.55	8.08
400.678	-0.92
400.805	8.08
400.933	7.08
401.061	10.08
401.189	-12.92
401.317	12.08
401.445	16.08
401.573	17.08
401.7	17.08
401.828	-7.92
401.956	-10.92
402.084	23.08
402.212	27.08
402.34	9.08
402.467	6.08
402.595	14.08
402.723	3.08
402.851	34.08
402.978	-0.92
403.106	6.08
403.234	-11.92
403.362	7.08
403.489	18.08
403.617	8.08
403.745	11.08
403.873	8.08
404	15.08
404.128	-3.92
404.256	12.08
404.384	20.08
404.511	26.08
404.639	15.08
404.767	-1.92
404.894	-2.92
405.022	-7.92
405.15	33.08
405.277	-9.92
405.405	8.08
405.533	21.08
405.66	-10.92
405.788	-16.92
405.916	-7.92
406.043	-5.92
406.171	13.08
406.299	10.08
406.426	7.08
406.554	14.08
406.681	25.08
406.809	23.08
406.937	7.08
407.064	11.08
407.192	0.08
407.319	-4.92
407.447	-7.92
407.574	17.08
407.702	-0.92
407.83	-3.92
407.957	1.08
408.085	1.08
408.212	15.08
408.34	5.08
408.467	8.08
408.595	9.08
408.722	20.08
408.85	26.08
408.977	-5.92
409.105	-1.92
409.232	8.08
409.36	5.08
409.487	5.08
409.615	6.08
409.742	29.08
409.87	15.08
409.997	34.08
410.125	39.08
410.252	64.08
410.379	45.08
410.507	58.08
410.634	9.08
410.762	19.08
410.889	10.08
411.017	24.08
411.144	20.08
411.271	8.08
411.399	2.08
411.526	10.08
411.653	5.08
411.781	18.08
411.908	2.08
412.036	10.08
412.163	40.08
412.29	10.08
412.418	1.08
412.545	27.08
412.672	20.08
412.8	29.08
412.927	15.08
413.054	24.08
413.182	21.08
413.309	-8.92
413.436	-17.92
413.564	-5.92
413.691	11.08
413.818	23.08
413.945	-2.92
414.073	-3.92
414.2	18.08
414.327	11.08
414.454	27.08
414.582	26.08
414.709	-26.92
414.836	-11.92
414.963	-4.92
415.091	26.08
415.218	-1.92
415.345	-6.92
415.472	3.08
415.6	1.08
415.727	11.08
415.854	20.08
415.981	12.08
416.108	2.08
416.236	5.08
416.363	15.08
416.49	0.08
416.617	3.08
416.744	-0.92
416.871	12.08
416.998	12.08
417.126	9.08
417.253	17.08
417.38	13.08
417.507	-11.92
417.634	14.08
417.761	0.08
417.888	21.08
418.015	18.08
418.143	8.08
418.27	16.08
418.397	6.08
418.524	10.08
418.651	0.08
418.778	12.08
418.905	27.08
419.032	20.08
419.159	-4.92
419.286	33.08
419.413	12.08
419.54	21.08
419.667	-10.92
419.794	-18.92
419.921	-2.92
420.048	12.08
420.175	12.08
420.302	-4.92
420.429	3.08
420.556	-3.92
420.683	-0.92
420.81	9.08
420.937	11.08
421.064	13.08
421.191	-4.92
421.318	6.08
421.445	29.08
421.572	-14.92
421.699	10.08
421.826	14.08
421.953	0.08
422.08	-6.92
422.207	-0.92
422.334	-12.92
422.461	33.08
422.588	0.08
422.714	5.08
422.841	8.08
422.968	16.08
423.095	5.08
423.222	-5.92
423.349	8.08
423.476	8.08
423.603	-3.92
423.729	4.08
423.856	-21.92
423.983	9.08
424.11	3.08
424.237	23.08
424.364	20.08
424.491	13.08
424.617	-12.92
424.744	-4.92
424.871	18.08
424.998	4.08
425.125	17.08
425.251	12.08
425.378	-5.92
425.505	7.08
425.632	-6.92
425.758	-9.92
425.885	-8.92
426.012	11.08
426.139	21.08
426.266	5.08
426.392	25.08
426.519	13.08
426.646	11.08
426.772	22.08
426.899	17.08
427.026	21.08
427.153	5.08
427.279	31.08
427.406	10.08
427.533	-7.92
427.659	-2.92
427.786	10.08
427.913	17.08
428.039	14.08
428.166	11.08
428.293	12.08
428.419	19.08
428.546	24.08
428.673	-6.92
428.799	-5.92
428.926	-1.92
429.053	16.08
429.179	9.08
429.306	16.08
429.433	17.08
429.559	30.08
429.686	-8.92
429.812	5.08
429.939	13.08
430.066	8.08
430.192	-4.92
430.319	16.08
430.445	-3.92
430.572	10.08
430.699	-0.92
430.825	1.08
430.952	5.08
431.078	23.08
431.205	14.08
431.331	9.08
431.458	12.08
431.584	3.08
431.711	-5.92
431.837	18.08
431.964	9.08
432.09	19.08
432.217	5.08
432.343	27.08
432.47	5.08
432.596	3.08
432.723	10.08
432.849	11.08
432.976	20.08
433.102	10.08
433.229	-1.92
433.355	32.08
433.482	65.08
433.608	144.08
433.735	132.08
433.861	121.08
433.987	156.08
434.114	245.08
434.24	179.08
434.367	70.08
434.493	9.08
434.62	19.08
434.746	27.08
434.872	9.08
434.999	7.08
435.125	3.08
435.252	16.08
435.378	5.08
435.504	3.08
435.631	6.08
435.757	10.08
435.883	21.08
436.01	11.08
436.136	13.08
436.262	27.08
436.389	0.08
436.515	12.08
436.641	12.08
436.768	4.08
436.894	3.08
437.02	10.08
437.147	24.08
437.273	5.08
437.399	19.08
437.526	36.08
437.652	6.08
437.778	6.08
437.904	-12.92
438.031	-4.92
438.157	34.08
438.283	22.08
438.409	4.08
438.536	5.08
438.662	28.08
438.788	12.08
438.914	11.08
439.041	12.08
439.167	24.08
439.293	20.08
439.419	12.08
439.546	8.08
439.672	4.08
439.798	16.08
439.924	14.08
440.05	19.08
440.177	28.08
440.303	29.08
440.429	24.08
440.555	18.08
440.681	8.08
440.807	7.08
440.934	33.08
441.06	19.08
441.186	-1.92
441.312	-6.92
441.438	3.08
441.564	28.08
441.69	31.08
441.816	18.08
441.943	0.08
442.069	11.08
442.195	11.08
442.321	12.08
442.447	-6.92
442.573	-3.92
442.699	-0.92
442.825	20.08
442.951	19.08
443.077	29.08
443.203	28.08
443.33	20.08
443.456	-7.92
443.582	16.08
443.708	16.08
443.834	19.08
443.96	21.08
444.086	9.08
444.212	30.08
444.338	12.08
444.464	26.08
444.59	19.08
444.716	12.08
444.842	19.08
444.968	-7.92
445.094	8.08
445.22	11.08
445.346	9.08
445.472	8.08
445.598	6.08
445.724	-1.92
445.85	1.08
445.976	8.08
446.102	16.08
446.228	38.08
446.354	3.08
446.48	-3.92
446.605	16.08
446.731	14.08
446.857	-7.92
446.983	4.08
447.109	25.08
447.235	9.08
447.361	1.08
447.487	9.08
447.613	10.08
447.739	11.08
447.865	16.08
447.99	-1.92
448.116	1.08
448.242	12.08
448.368	13.08
448.494	2.08
448.62	12.08
448.746	24.08
448.872	16.08
448.997	3.08
449.123	4.08
449.249	-1.92
449.375	5.08
449.501	16.08
449.627	-7.92
449.752	17.08
449.878	6.08
450.004	3.08
450.13	12.08
450.256	3.08
450.381	5.08
450.507	3.08
450.633	5.08
450.759	14.08
450.884	-8.92
451.01	33.08
451.136	5.08
451.262	11.08
451.388	1.08
451.513	1.08
451.639	17.08
451.765	19.08
451.89	15.08
452.016	8.08
452.142	22.08
452.268	28.08
452.393	6.08
452.519	-0.92
452.645	5.08
452.771	18.08
452.896	-20.92
453.022	-4.92
453.148	10.08
453.273	13.08
453.399	1.08
453.525	-4.92
453.65	2.08
453.776	11.08
453.902	22.08
454.027	25.08
454.153	5.08
454.279	15.08
454.404	3.08
454.53	34.08
454.656	25.08
454.781	11.08
454.907	12.08
455.032	-3.92
455.158	27.08
455.284	23.08
455.409	18.08
455.535	4.08
455.66	9.08
455.786	34.08
455.912	13.08
456.037	0.08
456.163	1.08
456.288	22.08
456.414	-8.92
456.539	0.08
456.665	13.08
456.791	9.08
456.916	16.08
457.042	17.08
457.167	-0.92
457.293	3.08
457.418	8.08
457.544	-7.92
457.669	-1.92
457.795	-3.92
457.92	28.08
458.046	9.08
458.171	24.08
458.297	16.08
458.422	-0.92
458.548	-10.92
458.673	8.08
458.799	4.08
458.924	-6.92
459.05	13.08
459.175	10.08
459.301	14.08
459.426	24.08
459.552	-0.92
459.677	5.08
459.803	35.08
459.928	8.08
460.053	9.08
460.179	19.08
460.304	31.08
460.43	-7.92
460.555	-0.92
460.681	-7.92
460.806	13.08
460.931	15.08
461.057	0.08
461.182	3.08
461.308	20.08
461.433	38.08
461.558	4.08
461.684	17.08
461.809	30.08
461.934	14.08
462.06	17.08
462.185	0.08
462.311	12.08
462.436	19.08
462.561	-1.92
462.687	10.08
462.812	17.08
462.937	5.08
463.063	6.08
463.188	-16.92
463.313	14.08
463.439	5.08
463.564	-10.92
463.689	8.08
463.814	22.08
463.94	0.08
464.065	4.08
464.19	20.08
464.316	12.08
464.441	8.08
464.566	-12.92
464.692	22.08
464.817	-2.92
464.942	-4.92
465.067	1.08
465.193	-11.92
465.318	4.08
465.443	20.08
465.568	17.08
465.694	-2.92
465.819	15.08
465.944	2.08
466.069	8.08
466.194	16.08
466.32	16.08
466.445	-3.92
466.57	11.08
466.695	-3.92
466.82	17.08
466.946	26.08
467.071	-8.92
467.196	-1.92
467.321	12.08
467.446	-9.92
467.572	13.08
467.697	-0.92
467.822	11.08
467.947	19.08
468.072	-4.92
468.197	1.08
468.323	-3.92
468.448	0.08
468.573	0.08
468.698	8.08
468.823	11.08
468.948	26.08
469.073	8.08
469.198	25.08
469.324	7.08
469.449	1.08
469.574	19.08
469.699	17.08
469.824	19.08
469.949	18.08
470.074	10.08
470.199	26.08
470.324	11.08
470.449	12.08
470.574	17.08
470.7	17.08
470.825	26.08
470.95	37.08
471.075	0.08
471.2	15.08
471.325	19.08
471.45	4.08
471.575	-14.92
471.7	11.08
471.825	-14.92
471.95	16.08
472.075	-0.92
472.2	7.08
472.325	3.08
472.45	-10.92
472.575	9.08
472.7	5.08
472.825	14.08
472.95	28.08
473.075	10.08
473.2	4.08
473.325	15.08
473.45	1.08
473.575	7.08
473.7	4.08
473.825	15.08
473.95	24.08
474.075	7.08
474.2	8.08
474.325	-3.92
474.45	36.08
474.574	10.08
474.699	3.08
474.824	20.08
474.949	0.08
475.074	-15.92
475.199	13.08
475.324	26.08
475.449	17.08
475.574	15.08
475.699	20.08
475.824	0.08
475.949	13.08
476.073	6.08
476.198	19.08
476.323	21.08
476.448	3.08
476.573	9.08
476.698	23.08
476.823	24.08
476.947	44.08
477.072	16.08
477.197	1.08
477.322	-0.92
477.447	1.08
477.572	14.08
477.697	17.08
477.821	9.08
477.946	8.08
478.071	34.08
478.196	19.08
478.321	23.08
478.445	15.08
478.57	-10.92
478.695	5.08
478.82	11.08
478.945	-6.92
479.069	-12.92
479.194	-5.92
479.319	8.08
479.444	10.08
479.569	4.08
479.693	32.08
479.818	21.08
479.943	26.08
480.068	12.08
480.192	29.08
480.317	24.08
480.442	4.08
480.567	1.08
480.691	8.08
480.816	15.08
480.941	-3.92
481.066	4.08
481.19	17.08
481.315	33.08
481.44	35.08
481.564	5.08
481.689	24.08
481.814	11.08
481.938	16.08
482.063	10.08
482.188	-4.92
482.313	28.08
482.437	5.08
482.562	23.08
482.687	47.08
482.811	37.08
482.936	35.08
483.061	37.08
483.185	12.08
483.31	25.08
483.435	8.08
483.559	17.08
483.684	15.08
483.808	16.08
483.933	1.08
484.058	7.08
484.182	22.08
484.307	1.08
484.432	10.08
484.556	8.08
484.681	21.08
484.805	29.08
484.93	20.08
485.055	47.08
485.179	80.08
485.304	118.08
485.428	361.08
485.553	1233.08
485.678	1736.08
485.802	1583.08
485.927	1775.08
486.051	2659.08
486.176	1622.08
486.3	447.08
486.425	133.08
486.549	76.08
486.674	52.08
486.799	42.08
486.923	31.08
487.048	23.08
487.172	24.08
487.297	26.08
487.421	32.08
487.546	15.08
487.67	25.08
487.795	25.08
487.919	10.08
488.044	21.08
488.168	17.08
488.293	36.08
488.417	33.08
488.542	24.08
488.666	19.08
488.791	23.08
488.915	6.08
489.04	23.08
489.164	19.08
489.289	32.08
489.413	-0.92
489.538	19.08
489.662	37.08
489.786	6.08
489.911	17.08
490.035	13.08
490.16	15.08
490.284	8.08
490.409	-26.92
490.533	1.08
490.658	16.08
490.782	28.08
490.906	17.08
491.031	18.08
491.155	18.08
491.28	24.08
491.404	-2.92
491.528	26.08
491.653	1.08
491.777	33.08
491.902	14.08
492.026	10.08
492.15	30.08
492.275	32.08
492.399	19.08
492.524	-0.92
492.648	40.08
492.772	3.08
492.897	11.08
493.021	8.08
493.145	26.08
493.27	35.08
493.394	33.08
493.518	19.08
493.643	18.08
493.767	34.08
493.891	3.08
494.016	17.08
494.14	-0.92
494.264	-9.92
494.389	21.08
494.513	14.08
494.637	-11.92
494.762	12.08
494.886	25.08
495.01	18.08
495.134	10.08
495.259	14.08
495.383	20.08
495.507	7.08
495.632	37.08
495.756	31.08
495.88	18.08
496.004	19.08
496.129	-4.92
496.253	21.08
496.377	29.08
496.501	36.08
496.626	-0.92
496.75	18.08
496.874	25.08
496.998	20.08
497.123	36.08
497.247	20.08
497.371	5.08
497.495	14.08
497.62	5.08
497.744	-0.92
497.868	-3.92
497.992	8.08
498.116	0.08
498.241	16.08
498.365	0.08
498.489	11.08
498.613	8.08
498.737	1.08
498.862	11.08
498.986	6.08
499.11	6.08
499.234	20.08
499.358	18.08
499.482	17.08
499.607	25.08
499.731	29.08
499.855	16.08
499.979	11.08
500.103	11.08
500.227	29.08
500.351	11.08
500.476	19.08
500.6	8.08
500.724	17.08
500.848	24.08
500.972	25.08
501.096	5.08
501.22	21.08
501.344	18.08
501.469	5.08
501.593	12.08
501.717	20.08
501.841	-4.92
501.965	9.08
502.089	7.08
502.213	10.08
502.337	7.08
502.461	16.08
502.585	8.08
502.709	16.08
502.834	21.08
502.958	9.08
503.082	33.08
503.206	16.08
503.33	9.08
503.454	16.08
503.578	19.08
503.702	10.08
503.826	5.08
503.95	11.08
504.074	-5.92
504.198	15.08
504.322	2.08
504.446	0.08
504.57	7.08
504.694	9.08
504.818	14.08
504.942	35.08
505.066	4.08
505.19	8.08
505.314	22.08
505.438	9.08
505.562	13.08
505.686	29.08
505.81	21.08
505.934	21.08
506.058	5.08
506.182	5.08
506.306	3.08
506.43	-13.92
506.554	3.08
506.678	8.08
506.802	14.08
506.926	23.08
507.05	31.08
507.174	27.08
507.298	28.08
507.422	18.08
507.546	19.08
507.67	15.08
507.794	-10.92
507.918	-2.92
508.042	3.08
508.165	4.08
508.289	-2.92
508.413	7.08
508.537	4.08
508.661	14.08
508.785	-4.92
508.909	12.08
509.033	3.08
509.157	7.08
509.281	1.08
509.405	3.08
509.528	28.08
509.652	27.08
509.776	8.08
509.9	29.08
510.024	10.08
510.148	20.08
510.272	6.08
510.396	9.08
510.519	12.08
510.643	7.08
510.767	9.08
510.891	16.08
511.015	14.08
511.139	22.08
511.263	25.08
511.386	16.08
511.51	18.08
511.634	15.08
511.758	23.08
511.882	15.08
512.006	21.08
512.129	3.08
512.253	36.08
512.377	20.08
512.501	17.08
512.625	4.08
512.748	13.08
512.872	11.08
512.996	6.08
513.12	17.08
513.244	3.08
513.367	24.08
513.491	22.08
513.615	15.08
513.739	8.08
513.862	9.08
513.986	15.08
514.11	21.08
514.234	13.08
514.358	32.08
514.481	43.08
514.605	35.08
514.729	29.08
514.853	15.08
514.976	8.08
515.1	20.08
515.224	28.08
515.348	21.08
515.471	-4.92
515.595	7.08
515.719	2.08
515.842	27.08
515.966	3.08
516.09	21.08
516.214	13.08
516.337	26.08
516.461	24.08
516.585	30.08
516.708	16.08
516.832	23.08
516.956	-0.92
517.08	8.08
517.203	-1.92
517.327	20.08
517.451	24.08
517.574	32.08
517.698	14.08
517.822	35.08
517.945	22.08
518.069	16.08
518.193	28.08
518.316	22.08
518.44	45.08
518.564	20.08
518.687	9.08
518.811	33.08
518.935	48.08
519.058	17.08
519.182	17.08
519.306	39.08
519.429	20.08
519.553	51.08
519.676	47.08
519.8	14.08
519.924	5.08
520.047	11.08
520.171	-3.92
520.294	17.08
520.418	23.08
520.542	11.08
520.665	20.08
520.789	7.08
520.913	-10.92
521.036	-7.92
521.16	6.08
521.283	7.08
521.407	3.08
521.53	-3.92
521.654	-20.92
521.778	27.08
521.901	9.08
522.025	9.08
522.148	-15.92
522.272	19.08
522.395	17.08
522.519	32.08
522.643	21.08
522.766	14.08
522.89	11.08
523.013	19.08
523.137	16.08
523.26	11.08
523.384	11.08
523.507	23.08
523.631	9.08
523.754	5.08
523.878	-0.92
524.002	11.08
524.125	2.08
524.249	11.08
524.372	23.08
524.496	25.08
524.619	4.08
524.743	-0.92
524.866	2.08
524.99	21.08
525.113	-0.92
525.237	8.08
525.36	23.08
525.484	23.08
525.607	15.08
525.731	-6.92
525.854	20.08
525.978	38.08
526.101	12.08
526.224	1.08
526.348	12.08
526.471	12.08
526.595	6.08
526.718	-3.92
526.842	-6.92
526.965	23.08
527.089	12.08
527.212	11.08
527.336	15.08
527.459	24.08
527.582	18.08
527.706	4.08
527.829	23.08
527.953	-0.92
528.076	-10.92
528.2	3.08
528.323	1.08
528.446	45.08
528.57	24.08
528.693	28.08
528.817	-8.92
528.94	-0.92
529.064	44.08
529.187	11.08
529.31	-0.92
529.434	14.08
529.557	10.08
529.68	15.08
529.804	6.08
529.927	17.08
530.051	0.08
530.174	2.08
530.297	1.08
530.421	12.08
530.544	20.08
530.668	17.08
530.791	1.08
530.914	24.08
531.038	16.08
531.161	3.08
531.284	-2.92
531.408	7.08
531.531	-1.92
531.654	-4.92
531.778	5.08
531.901	14.08
532.024	26.08
532.148	-4.92
532.271	-6.92
532.394	-8.92
532.518	19.08
532.641	29.08
532.764	27.08
532.888	19.08
533.011	1.08
533.134	-10.92
533.258	4.08
533.381	3.08
533.504	3.08
533.628	30.08
533.751	7.08
533.874	12.08
533.997	13.08
534.121	0.08
534.244	0.08
534.367	-5.92
534.491	-2.92
534.614	22.08
534.737	13.08
534.86	33.08
534.984	-4.92
535.107	16.08
535.23	20.08
535.354	12.08
535.477	-4.92
535.6	-13.92
535.723	3.08
535.847	20.08
535.97	-15.92
536.093	17.08
536.216	1.08
536.34	23.08
536.463	0.08
536.586	17.08
536.709	23.08
536.833	17.08
536.956	6.08
537.079	5.08
537.202	11.08
537.325	2.08
537.449	-15.92
537.572	37.08
537.695	-1.92
537.818	3.08
537.941	4.08
538.065	-6.92
538.188	14.08
538.311	23.08
538.434	13.08
538.558	-1.92
538.681	22.08
538.804	7.08
538.927	29.08
539.05	9.08
539.173	5.08
539.297	21.08
539.42	17.08
539.543	3.08
539.666	1.08
539.789	23.08
539.913	5.08
540.036	11.08
540.159	20.08
540.282	1.08
540.405	-6.92
540.528	3.08
540.651	19.08
540.775	17.08
540.898	22.08
541.021	24.08
541.144	10.08
541.267	0.08
541.39	2.08
541.513	14.08
541.637	2.08
541.76	2.08
541.883	4.08
542.006	14.08
542.129	21.08
542.252	16.08
542.375	8.08
542.498	8.08
542.622	10.08
542.745	5.08
542.868	-1.92
542.991	11.08
543.114	22.08
543.237	31.08
543.36	35.08
543.483	17.08
543.606	27.08
543.73	32.08
543.853	-6.92
543.976	3.08
544.099	29.08
544.222	11.08
544.345	5.08
544.468	-2.92
544.591	7.08
544.714	11.08
544.837	19.08
544.96	27.08
545.083	17.08
545.206	14.08
545.329	24.08
545.453	3.08
545.576	2.08
545.699	15.08
545.822	4.08
545.945	22.08
546.068	1.08
546.191	10.08
546.314	9.08
546.437	17.08
546.56	32.08
546.683	26.08
546.806	13.08
546.929	5.08
547.052	-13.92
547.175	3.08
547.298	16.08
547.421	-2.92
547.544	-1.92
547.667	14.08
547.79	11.08
547.913	5.08
548.036	6.08
548.159	16.08
548.282	9.08
548.405	3.08
548.528	12.08
548.651	7.08
548.774	11.08
548.897	27.08
549.02	23.08
549.143	27.08
549.266	9.08
549.389	26.08
549.512	4.08
549.635	21.08
549.758	11.08
549.881	-2.92
550.004	10.08
550.127	5.08
550.25	7.08
550.373	-4.92
550.496	17.08
550.619	23.08
550.742	3.08
550.865	-0.92
550.988	10.08
551.111	27.08
551.234	8.08
551.356	-16.92
551.479	-22.92
551.602	-12.92
551.725	16.08
551.848	15.08
551.971	22.08
552.094	6.08
552.217	1.08
552.34	7.08
552.463	8.08
552.586	17.08
552.709	7.08
552.832	1.08
552.955	16.08
553.077	29.08
553.2	15.08
553.323	-7.92
553.446	10.08
553.569	3.08
553.692	8.08
553.815	3.08
553.938	22.08
554.061	15.08
554.184	11.08
554.306	37.08
554.429	10.08
554.552	8.08
554.675	-4.92
554.798	11.08
554.921	18.08
555.044	11.08
555.167	-6.92
555.29	-0.92
555.412	-10.92
555.535	5.08
555.658	1.08
555.781	-3.92
555.904	3.08
556.027	14.08
556.15	11.08
556.272	4.08
556.395	11.08
556.518	15.08
556.641	11.08
556.764	18.08
556.887	13.08
557.01	25.08
557.132	-8.92
557.255	3.08
557.378	17.08
557.501	12.08
557.624	22.08
557.747	1.08
557.869	8.08
557.992	23.08
558.115	14.08
558.238	9.08
558.361	9.08
558.483	20.08
558.606	12.08
558.729	-2.92
558.852	31.08
558.975	20.08
559.098	28.08
559.22	14.08
559.343	23.08
559.466	28.08
559.589	3.08
559.712	5.08
559.834	1.08
559.957	16.08
560.08	37.08
560.203	28.08
560.325	25.08
560.448	28.08
560.571	15.08
560.694	9.08
560.817	16.08
560.939	3.08
561.062	7.08
561.185	19.08
561.308	10.08
561.43	5.08
561.553	7.08
561.676	2.08
561.799	32.08
561.921	13.08
562.044	6.08
562.167	4.08
562.29	32.08
562.413	18.08
562.535	21.08
562.658	-14.92
562.781	-3.92
562.903	0.08
563.026	26.08
563.149	34.08
563.272	18.08
563.394	6.08
563.517	-3.92
563.64	-9.92
563.763	-0.92
563.885	24.08
564.008	29.08
564.131	22.08
564.254	15.08
564.376	16.08
564.499	-20.92
564.622	4.08
564.744	15.08
564.867	21.08
564.99	18.08
565.113	0.08
565.235	6.08
565.358	17.08
565.481	16.08
565.603	10.08
565.726	-8.92
565.849	19.08
565.971	12.08
566.094	3.08
566.217	-1.92
566.34	23.08
566.462	0.08
566.585	1.08
566.708	13.08
566.83	7.08
566.953	34.08
567.076	-1.92
567.198	3.08
567.321	-4.92
567.444	13.08
567.566	16.08
567.689	-0.92
567.812	-4.92
567.934	16.08
568.057	11.08
568.18	4.08
568.302	-15.92
568.425	-14.92
568.548	13.08
568.67	14.08
568.793	2.08
568.916	20.08
569.038	0.08
569.161	9.08
569.283	4.08
569.406	9.08
569.529	12.08
569.651	18.08
569.774	18.08
569.897	1.08
570.019	21.08
570.142	12.08
570.265	20.08
570.387	8.08
570.51	20.08
570.632	3.08
570.755	9.08
570.878	9.08
571	3.08
571.123	6.08
571.246	24.08
571.368	-4.92
571.491	12.08
571.613	-11.92
571.736	-7.92
571.859	4.08
571.981	7.08
572.104	-0.92
572.226	13.08
572.349	-10.92
572.472	6.08
572.594	7.08
572.717	16.08
572.839	-11.92
572.962	-2.92
573.085	6.08
573.207	11.08
573.33	6.08
573.452	30.08
573.575	19.08
573.697	11.08
573.82	-2.92
573.943	1.08
574.065	-0.92
574.188	9.08
574.31	16.08
574.433	13.08
574.555	37.08
574.678	0.08
574.801	16.08
574.923	1.08
575.046	4.08
575.168	25.08
575.291	26.08
575.413	15.08
575.536	12.08
575.659	20.08
575.781	19.08
575.904	11.08
576.026	24.08
576.149	21.08
576.271	18.08
576.394	20.08
576.516	18.08
576.639	8.08
576.761	8.08
576.884	0.08
577.007	19.08
577.129	3.08
577.252	16.08
577.374	29.08
577.497	11.08
577.619	13.08
577.742	10.08
577.864	24.08
577.987	13.08
578.109	40.08
578.232	21.08
578.354	12.08
578.477	-3.92
578.599	-6.92
578.722	13.08
578.844	14.08
578.967	21.08
579.089	3.08
579.212	1.08
579.334	29.08
579.457	13.08
579.579	17.08
579.702	-8.92
579.824	17.08
579.947	4.08
580.069	2.08
580.192	10.08
580.314	18.08
580.437	6.08
580.559	36.08
580.682	11.08
580.804	34.08
580.927	17.08
581.049	24.08
581.172	21.08
581.294	19.08
581.417	11.08
581.539	13.08
581.662	20.08
581.784	18.08
581.907	14.08
582.029	32.08
582.152	10.08
582.274	9.08
582.396	13.08
582.519	19.08
582.641	-2.92
582.764	20.08
582.886	18.08
583.009	0.08
583.131	-11.92
583.254	-0.92
583.376	31.08
583.499	19.08
583.621	4.08
583.743	16.08
583.866	15.08
583.988	9.08
584.111	22.08
584.233	19.08
584.356	21.08
584.478	13.08
584.601	-14.92
584.723	12.08
584.845	3.08
584.968	4.08
585.09	-14.92
585.213	26.08
585.335	-2.92
585.458	-3.92
585.58	-3.92
585.702	31.08
585.825	31.08
585.947	3.08
586.07	8.08
586.192	-3.92
586.315	18.08
586.437	-11.92
586.559	6.08
586.682	-11.92
586.804	9.08
586.927	1.08
587.049	4.08
587.171	25.08
587.294	26.08
587.416	27.08
587.539	-1.92
587.661	7.08
587.783	8.08
587.906	1.08
588.028	6.08
588.151	20.08
588.273	41.08
588.395	3.08
588.518	3.08
588.64	7.08
588.763	23.08
588.885	8.08
589.007	31.08
589.13	-0.92
589.252	-3.92
589.375	14.08
589.497	1.08
589.619	-0.92
589.742	3.08
589.864	11.08
589.986	4.08
590.109	-2.92
590.231	7.08
590.354	0.08
590.476	-16.92
590.598	1.08
590.721	3.08
590.843	7.08
590.965	11.08
591.088	29.08
591.21	13.08
591.332	23.08
591.455	-6.92
591.577	-1.92
591.7	10.08
591.822	9.08
591.944	14.08
592.067	-8.92
592.189	9.08
592.311	23.08
592.434	17.08
592.556	28.08
592.678	-0.92
592.801	33.08
592.923	19.08
593.045	-3.92
593.168	24.08
593.29	13.08
593.412	16.08
593.535	-2.92
593.657	1.08
593.779	22.08
593.902	25.08
594.024	8.08
594.146	17.08
594.269	10.08
594.391	-8.92
594.513	10.08
594.636	2.08
594.758	0.08
594.88	28.08
595.003	23.08
595.125	21.08
595.247	36.08
595.37	29.08
595.492	12.08
595.614	20.08
595.737	15.08
595.859	8.08
595.981	-0.92
596.104	29.08
596.226	1.08
596.348	6.08
596.471	2.08
596.593	6.08
596.715	8.08
596.838	5.08
596.96	-6.92
597.082	11.08
597.204	17.08
597.327	8.08
597.449	4.08
597.571	20.08
597.694	23.08
597.816	10.08
597.938	17.08
598.061	0.08
598.183	19.08
598.305	9.08
598.427	12.08
598.55	21.08
598.672	29.08
598.794	22.08
598.917	1.08
599.039	12.08
599.161	23.08
599.283	3.08
599.406	32.08
599.528	39.08
599.65	31.08
599.773	-0.92
599.895	37.08
600.017	16.08
600.139	15.08
600.262	5.08
600.384	11.08
600.506	11.08
600.628	16.08
600.751	18.08
600.873	11.08
600.995	3.08
601.118	17.08
601.24	17.08
601.362	27.08
601.484	1.08
601.607	13.08
601.729	17.08
601.851	16.08
601.973	17.08
602.096	16.08
602.218	27.08
602.34	25.08
602.462	20.08
602.585	34.08
602.707	-18.92
602.829	3.08
602.951	12.08
603.074	16.08
603.196	13.08
603.318	4.08
603.44	15.08
603.563	15.08
603.685	-7.92
603.807	19.08
603.929	8.08
604.052	1.08
604.174	23.08
604.296	25.08
604.418	32.08
604.541	34.08
604.663	5.08
604.785	4.08
604.907	4.08
605.03	2.08
605.152	41.08
605.274	27.08
605.396	16.08
605.519	8.08
605.641	-3.92
605.763	11.08
605.885	15.08
606.008	15.08
606.13	21.08
606.252	29.08
606.374	-19.92
606.496	13.08
606.619	4.08
606.741	-2.92
606.863	21.08
606.985	23.08
607.108	33.08
607.23	23.08
607.352	21.08
607.474	17.08
607.596	17.08
607.719	8.08
607.841	8.08
607.963	2.08
608.085	26.08
608.207	41.08
608.33	19.08
608.452	16.08
608.574	-6.92
608.696	31.08
608.819	10.08
608.941	20.08
609.063	15.08
609.185	10.08
609.307	23.08
609.43	25.08
609.552	30.08
609.674	1.08
609.796	4.08
609.918	29.08
610.041	16.08
610.163	14.08
610.285	19.08
610.407	18.08
610.529	-22.92
610.652	-4.92
610.774	17.08
610.896	17.08
611.018	-5.92
611.14	-1.92
611.263	-0.92
611.385	3.08
611.507	15.08
611.629	11.08
611.751	11.08
611.873	18.08
611.996	3.08
612.118	4.08
612.24	3.08
612.362	5.08
612.484	14.08
612.607	11.08
612.729	23.08
612.851	9.08
612.973	-2.92
613.095	-0.92
613.218	-5.92
613.34	22.08
613.462	17.08
613.584	24.08
613.706	17.08
613.828	20.08
613.951	1.08
614.073	3.08
614.195	1.08
614.317	21.08
614.439	7.08
614.561	5.08
614.684	13.08
614.806	22.08
614.928	12.08
615.05	11.08
615.172	7.08
615.294	21.08
615.417	8.08
615.539	-3.92
615.661	1.08
615.783	34.08
615.905	18.08
616.027	67.08
616.15	95.08
616.272	75.08
616.394	36.08
616.516	29.08
616.638	24.08
616.76	19.08
616.883	20.08
617.005	2.08
617.127	23.08
617.249	12.08
617.371	8.08
617.493	13.08
617.615	3.08
617.738	7.08
617.86	14.08
617.982	7.08
618.104	-1.92
618.226	-4.92
618.348	11.08
618.471	16.08
618.593	6.08
618.715	-7.92
618.837	3.08
618.959	22.08
619.081	18.08
619.203	9.08
619.326	7.08
619.448	21.08
619.57	7.08
619.692	9.08
619.814	32.08
619.936	18.08
620.058	6.08
620.181	26.08
620.303	23.08
620.425	25.08
620.547	4.08
620.669	11.08
620.791	13.08
620.913	-2.92
621.036	-11.92
621.158	8.08
621.28	31.08
621.402	-3.92
621.524	-0.92
621.646	7.08
621.768	-9.92
621.891	-15.92
622.013	11.08
622.135	11.08
622.257	4.08
622.379	16.08
622.501	4.08
622.623	-0.92
622.745	4.08
622.868	5.08
622.99	20.08
623.112	11.08
623.234	5.08
623.356	7.08
623.478	-15.92
623.6	22.08
623.722	19.08
623.845	20.08
623.967	20.08
624.089	23.08
624.211	2.08
624.333	7.08
624.455	13.08
624.577	9.08
624.699	-1.92
624.822	7.08
624.944	-1.92
625.066	10.08
625.188	-1.92
625.31	12.08
625.432	11.08
625.554	17.08
625.676	29.08
625.799	-0.92
625.921	15.08
626.043	7.08
626.165	21.08
626.287	-7.92
626.409	13.08
626.531	15.08
626.653	8.08
626.775	7.08
626.898	-6.92
627.02	11.08
627.142	18.08
627.264	-5.92
627.386	-6.92
627.508	17.08
627.63	-6.92
627.752	4.08
627.874	8.08
627.997	17.08
628.119	3.08
628.241	4.08
628.363	25.08
628.485	7.08
628.607	9.08
628.729	0.08
628.851	-11.92
628.973	0.08
629.096	-5.92
629.218	14.08
629.34	11.08
629.462	4.08
629.584	3.08
629.706	14.08
629.828	32.08
629.95	9.08
630.072	-5.92
630.195	16.08
630.317	10.08
630.439	18.08
630.561	22.08
630.683	20.08
630.805	8.08
630.927	24.08
631.049	-2.92
631.171	-3.92
631.293	11.08
631.416	9.08
631.538	11.08
631.66	4.08
631.782	31.08
631.904	23.08
632.026	12.08
632.148	7.08
632.27	3.08
632.392	19.08
632.514	6.08
632.637	13.08
632.759	9.08
632.881	-2.92
633.003	2.08
633.125	-8.92
633.247	0.08
633.369	27.08
633.491	15.08
633.613	19.08
633.735	-3.92
633.858	8.08
633.98	9.08
634.102	-7.92
634.224	-1.92
634.346	11.08
634.468	13.08
634.59	9.08
634.712	9.08
634.834	12.08
634.956	-4.92
635.078	-11.92
635.201	11.08
635.323	12.08
635.445	-2.92
635.567	-15.92
635.689	12.08
635.811	25.08
635.933	5.08
636.055	4.08
636.177	15.08
636.299	20.08
636.421	1.08
636.544	-18.92
636.666	10.08
636.788	24.08
636.91	19.08
637.032	0.08
637.154	3.08
637.276	38.08
637.398	16.08
637.52	22.08
637.642	12.08
637.764	20.08
637.887	13.08
638.009	18.08
638.131	3.08
638.253	14.08
638.375	-0.92
638.497	12.08
638.619	-7.92
638.741	10.08
638.863	-6.92
638.985	7.08
639.107	-3.92
639.23	0.08
639.352	22.08
639.474	21.08
639.596	-3.92
639.718	9.08
639.84	7.08
639.962	14.08
640.084	11.08
640.206	11.08
640.328	11.08
640.45	14.08
640.573	13.08
640.695	13.08
640.817	19.08
640.939	16.08
641.061	1.08
641.183	3.08
641.305	3.08
641.427	-0.92
641.549	9.08
641.671	5.08
641.793	-6.92
641.915	17.08
642.038	-6.92
642.16	3.08
642.282	-7.92
642.404	-8.92
642.526	3.08
642.648	-6.92
642.77	12.08
642.892	-3.92
643.014	22.08
643.136	17.08
643.258	19.08
643.381	24.08
643.503	37.08
643.625	7.08
643.747	3.08
643.869	19.08
643.991	22.08
644.113	17.08
644.235	5.08
644.357	6.08
644.479	23.08
644.601	10.08
644.723	0.08
644.846	23.08
644.968	-2.92
645.09	8.08
645.212	-7.92
645.334	5.08
645.456	8.08
645.578	17.08
645.7	3.08
645.822	19.08
645.944	14.08
646.066	10.08
646.188	-0.92
646.311	20.08
646.433	18.08
646.555	49.08
646.677	29.08
646.799	31.08
646.921	31.08
647.043	31.08
647.165	-8.92
647.287	13.08
647.409	-4.92
647.531	25.08
647.654	-10.92
647.776	13.08
647.898	4.08
648.02	-1.92
648.142	-0.92
648.264	-8.92
648.386	6.08
648.508	-2.92
648.63	15.08
648.752	15.08
648.874	2.08
648.997	15.08
649.119	11.08
649.241	4.08
649.363	22.08
649.485	16.08
649.607	7.08
649.729	10.08
649.851	1.08
649.973	13.08
650.095	16.08
650.217	2.08
650.34	16.08
650.462	25.08
650.584	3.08
650.706	8.08
650.828	8.08
650.95	12.08
651.072	21.08
651.194	4.08
651.316	5.08
651.438	-2.92
651.56	-8.92
651.683	14.08
651.805	0.08
651.927	-8.92
652.049	12.08
652.171	1.08
652.293	13.08
652.415	-1.92
652.537	-3.92
652.659	-8.92
652.781	13.08
652.903	7.08
653.026	7.08
653.148	25.08
653.27	12.08
653.392	22.08
653.514	21.08
653.636	10.08
653.758	7.08
653.88	4.08
654.002	18.08
654.124	-7.92
654.247	3.08
654.369	21.08
654.491	13.08
654.613	2.08
654.735	12.08
654.857	17.08
654.979	16.08
655.101	5.08
655.223	51.08
655.345	31.08
655.468	18.08
655.59	16.08
655.712	32.08
655.834	22.08
655.956	40.08
656.078	8.08
656.2	40.08
656.322	35.08
656.444	36.08
656.566	45.08
656.689	62.08
656.811	67.08
656.933	84.08
657.055	92.08
657.177	160.08
657.299	231.08
657.421	485.08
657.543	1845.08
657.665	12465.08
657.787	15156.08
657.91	15221.08
658.032	15662.08
658.154	4585.08
658.276	3115.08
658.398	1097.08
658.52	981.08
658.642	467.08
658.764	571.08
658.886	241.08
659.009	388.08
659.131	219.08
659.253	332.08
659.375	159.08
659.497	216.08
659.619	120.08
659.741	192.08
659.863	87.08
659.985	168.08
660.108	101.08
660.23	149.08
660.352	93.08
660.474	142.08
660.596	66.08
660.718	140.08
660.84	56.08
660.962	112.08
661.084	49.08
661.207	102.08
661.329	79.08
661.451	88.08
661.573	37.08
661.695	101.08
661.817	69.08
661.939	93.08
662.061	72.08
662.184	57.08
662.306	31.08
662.428	50.08
662.55	48.08
662.672	54.08
662.794	35.08
662.916	56.08
663.038	28.08
663.161	59.08
663.283	29.08
663.405	72.08
663.527	32.08
663.649	60.08
663.771	21.08
663.893	45.08
664.015	30.08
664.138	49.08
664.26	25.08
664.382	47.08
664.504	18.08
664.626	31.08
664.748	12.08
664.87	35.08
664.992	40.08
665.115	57.08
665.237	27.08
665.359	18.08
665.481	14.08
665.603	55.08
665.725	9.08
665.847	14.08
665.97	12.08
666.092	36.08
666.214	17.08
666.336	38.08
666.458	23.08
666.58	49.08
666.702	23.08
666.825	41.08
666.947	13.08
667.069	37.08
667.191	29.08
667.313	33.08
667.435	8.08
667.557	18.08
667.68	1.08
667.802	35.08
667.924	12.08
668.046	33.08
668.168	10.08
668.29	47.08
668.412	9.08
668.535	37.08
668.657	19.08
668.779	3.08
668.901	21.08
669.023	34.08
669.145	16.08
669.267	31.08
669.39	20.08
669.512	37.08
669.634	11.08
669.756	15.08
669.878	3.08
670	16.08
670.123	9.08
670.245	44.08
670.367	9.08
670.489	35.08
670.611	-5.92
670.733	7.08
670.856	7.08
670.978	29.08
671.1	17.08
671.222	47.08
671.344	12.08
671.466	12.08
671.589	5.08
671.711	15.08
671.833	0.08
671.955	20.08
672.077	12.08
672.199	19.08
672.322	33.08
672.444	23.08
672.566	31.08
672.688	21.08
672.81	28.08
672.932	25.08
673.055	-1.92
673.177	11.08
673.299	-8.92
673.421	17.08
673.543	21.08
673.665	32.08
673.788	17.08
673.91	12.08
674.032	1.08
674.154	15.08
674.276	25.08
674.399	4.08
674.521	3.08
674.643	8.08
674.765	-3.92
674.887	20.08
675.009	-1.92
675.132	8.08
675.254	10.08
675.376	14.08
675.498	17.08
675.62	33.08
675.743	6.08
675.865	35.08
675.987	9.08
676.109	26.08
676.231	12.08
676.354	23.08
676.476	7.08
676.598	25.08
676.72	3.08
676.842	36.08
676.965	3.08
677.087	28.08
677.209	14.08
677.331	11.08
677.453	1.08
677.576	5.08
677.698	19.08
677.82	8.08
677.942	-2.92
678.064	15.08
678.187	12.08
678.309	24.08
678.431	9.08
678.553	11.08
678.675	31.08
678.798	43.08
678.92	19.08
679.042	33.08
679.164	3.08
679.286	19.08
679.409	14.08
679.531	4.08
679.653	5.08
679.775	-5.92
679.898	15.08
680.02	14.08
680.142	0.08
680.264	11.08
680.386	7.08
680.509	29.08
680.631	24.08
680.753	11.08
680.875	-6.92
680.998	8.08
681.12	9.08
681.242	22.08
681.364	-7.92
681.486	10.08
681.609	7.08
681.731	-8.92
681.853	-2.92
681.975	15.08
682.098	10.08
682.22	21.08
682.342	4.08
682.464	14.08
682.587	15.08
682.709	12.08
682.831	-16.92
682.953	4.08
683.076	2.08
683.198	16.08
683.32	-5.92
683.442	24.08
683.565	10.08
683.687	19.08
683.809	8.08
683.931	-4.92
684.054	27.08
684.176	18.08
684.298	37.08
684.42	7.08
684.543	7.08
684.665	18.08
684.787	-2.92
684.909	12.08
685.032	5.08
685.154	-18.92
685.276	-1.92
685.398	4.08
685.521	3.08
685.643	9.08
685.765	6.08
685.887	13.08
686.01	9.08
686.132	5.08
686.254	8.08
686.377	10.08
686.499	-5.92
686.621	29.08
686.743	6.08
686.866	18.08
686.988	38.08
687.11	39.08
687.232	5.08
687.355	-0.92
687.477	11.08
687.599	37.08
687.722	5.08
687.844	11.08
687.966	7.08
688.088	24.08
688.211	36.08
688.333	33.08
688.455	-0.92
688.578	16.08
688.7	7.08
688.822	8.08
688.944	-6.92
689.067	41.08
689.189	-0.92
689.311	-3.92
689.434	-6.92
689.556	15.08
689.678	13.08
689.801	24.08
689.923	17.08
690.045	13.08
690.167	16.08
690.29	29.08
690.412	5.08
690.534	6.08
690.657	0.08
690.779	2.08
690.901	7.08
691.024	12.08
691.146	1.08
691.268	-6.92
691.391	22.08
691.513	29.08
691.635	25.08
691.758	20.08
691.88	13.08
692.002	4.08
692.125	8.08
692.247	15.08
692.369	9.08
692.492	10.08
692.614	4.08
692.736	3.08
692.859	7.08
692.981	9.08
693.103	-3.92
693.226	15.08
693.348	32.08
693.47	31.08
693.593	2.08
693.715	-8.92
693.837	-3.92
693.96	4.08
694.082	-6.92
694.204	16.08
694.327	8.08
694.449	7.08
694.571	9.08
694.694	18.08
694.816	19.08
694.938	4.08
695.061	10.08
695.183	17.08
695.305	4.08
695.428	25.08
695.55	9.08
695.672	11.08
695.795	15.08
695.917	23.08
696.04	19.08
696.162	1.08
696.284	2.08
696.407	4.08
696.529	16.08
696.651	35.08
696.774	15.08
696.896	19.08
697.019	5.08
697.141	3.08
697.263	-7.92
697.386	16.08
697.508	-0.92
697.63	9.08
697.753	5.08
697.875	4.08
697.998	14.08
698.12	7.08
698.242	9.08
698.365	1.08
698.487	7.08
698.61	8.08
698.732	12.08
698.854	33.08
698.977	25.08
699.099	10.08
699.221	-11.92
699.344	16.08
699.466	-0.92
699.589	17.08
699.711	-7.92
699.834	1.08
699.956	4.08
700.078	18.08
700.201	14.08
700.323	32.08
700.446	11.08
700.568	8.08
700.69	22.08
700.813	19.08
700.935	11.08
701.058	11.08
701.18	5.08
701.302	13.08
701.425	-4.92
701.547	5.08
701.67	17.08
701.792	12.08
701.915	-2.92
702.037	1.08
702.159	15.08
702.282	-0.92
702.404	-13.92
702.527	4.08
702.649	14.08
702.772	21.08
702.894	12.08
703.017	8.08
703.139	29.08
703.261	20.08
703.384	19.08
703.506	3.08
703.629	-4.92
703.751	28.08
703.874	23.08
703.996	-6.92
704.119	-7.92
704.241	10.08
704.364	-5.92
704.486	37.08
704.608	24.08
704.731	19.08
704.853	12.08
704.976	12.08
705.098	15.08
705.221	5.08
705.343	-3.92
705.466	11.08
705.588	21.08
705.711	13.08
705.833	7.08
705.956	4.08
706.078	23.08
706.201	5.08
706.323	12.08
706.446	12.08
