Data from LowRes_H2_15_26_11_07_2024_HR4C61881__67__15-28-20-336.txt Node

Date: Thu Nov 07 15:28:20 EST 2024
User: crc00042
Spectrometer: HR4C6188
Trigger mode: 4
Integration Time (sec): 1.000000E-1
Scans to average: 1
Electric dark correction enabled: true
Nonlinearity correction enabled: false
Boxcar width: 0
XAxis mode: Wavelengths
Number of Pixels in Spectrum: 3648
>>>>>Begin Spectral Data<<<<<
245.66	-108.31
245.797	-108.31
245.934	-108.31
246.071	-90.31
246.208	20.69
246.344	20.69
246.481	-1.31
246.618	-9.31
246.755	23.69
246.892	-8.31
247.029	-8.31
247.165	0.69
247.302	15.69
247.439	-6.31
247.576	2.69
247.713	-9.31
247.849	-1.31
247.986	-19.31
248.123	1.69
248.26	-17.31
248.396	18.69
248.533	0.69
248.67	-25.31
248.806	18.69
248.943	-11.31
249.08	4.69
249.216	20.69
249.353	-21.31
249.49	-17.31
249.626	-3.31
249.763	-8.31
249.9	-16.31
250.036	17.69
250.173	9.69
250.309	12.69
250.446	18.69
250.582	7.69
250.719	16.69
250.856	17.69
250.992	-6.31
251.129	5.69
251.265	-31.31
251.402	-7.31
251.538	-7.31
251.675	-0.31
251.811	14.69
251.948	5.69
252.084	0.69
252.221	6.69
252.357	-3.31
252.493	34.69
252.63	-1.31
252.766	21.69
252.903	-4.31
253.039	6.69
253.175	3.69
253.312	-3.31
253.448	-25.31
253.585	-6.31
253.721	-14.31
253.857	-0.31
253.994	-4.31
254.13	1.69
254.266	1.69
254.403	-7.31
254.539	-4.31
254.675	-11.31
254.811	3.69
254.948	0.69
255.084	-6.31
255.22	-4.31
255.356	8.69
255.493	22.69
255.629	-4.31
255.765	0.69
255.901	8.69
256.037	18.69
256.174	8.69
256.31	-13.31
256.446	-5.31
256.582	-7.31
256.718	14.69
256.854	25.69
256.991	5.69
257.127	16.69
257.263	7.69
257.399	3.69
257.535	-13.31
257.671	-20.31
257.807	-18.31
257.943	-7.31
258.079	-9.31
258.215	-6.31
258.351	4.69
258.487	7.69
258.623	13.69
258.759	-1.31
258.895	-12.31
259.031	10.69
259.167	2.69
259.303	20.69
259.439	-6.31
259.575	-17.31
259.711	-0.31
259.847	-15.31
259.983	8.69
260.119	-22.31
260.255	9.69
260.391	18.69
260.527	3.69
260.663	7.69
260.799	5.69
260.934	-1.31
261.07	2.69
261.206	-3.31
261.342	-13.31
261.478	7.69
261.614	17.69
261.749	-0.31
261.885	-3.31
262.021	7.69
262.157	8.69
262.293	3.69
262.428	-3.31
262.564	5.69
262.7	12.69
262.836	-0.31
262.971	18.69
263.107	-3.31
263.243	5.69
263.378	2.69
263.514	-20.31
263.65	5.69
263.785	-3.31
263.921	-3.31
264.057	12.69
264.192	-4.31
264.328	16.69
264.464	-29.31
264.599	18.69
264.735	26.69
264.871	-0.31
265.006	23.69
265.142	-5.31
265.277	19.69
265.413	24.69
265.548	2.69
265.684	13.69
265.819	7.69
265.955	-19.31
266.091	-16.31
266.226	-13.31
266.362	5.69
266.497	6.69
266.633	4.69
266.768	3.69
266.903	6.69
267.039	33.69
267.174	31.69
267.31	-1.31
267.445	-1.31
267.581	4.69
267.716	10.69
267.851	6.69
267.987	17.69
268.122	14.69
268.258	-4.31
268.393	-6.31
268.528	9.69
268.664	-16.31
268.799	7.69
268.934	-0.31
269.07	-1.31
269.205	-8.31
269.34	17.69
269.476	4.69
269.611	-15.31
269.746	10.69
269.881	7.69
270.017	20.69
270.152	6.69
270.287	-2.31
270.422	-1.31
270.558	-20.31
270.693	13.69
270.828	-10.31
270.963	0.69
271.098	-4.31
271.234	-4.31
271.369	8.69
271.504	-14.31
271.639	-12.31
271.774	3.69
271.909	12.69
272.045	-6.31
272.18	-2.31
272.315	4.69
272.45	11.69
272.585	-16.31
272.72	-5.31
272.855	5.69
272.99	-2.31
273.125	-22.31
273.26	-23.31
273.395	3.69
273.53	-17.31
273.665	11.69
273.8	10.69
273.935	14.69
274.07	7.69
274.205	20.69
274.34	4.69
274.475	-8.31
274.61	16.69
274.745	5.69
274.88	21.69
275.015	-9.31
275.15	10.69
275.285	10.69
275.42	-1.31
275.555	16.69
275.69	1.69
275.825	5.69
275.959	16.69
276.094	3.69
276.229	-3.31
276.364	-7.31
276.499	4.69
276.634	6.69
276.768	0.69
276.903	0.69
277.038	4.69
277.173	-8.31
277.308	0.69
277.442	-17.31
277.577	-6.31
277.712	-20.31
277.847	-0.31
277.981	16.69
278.116	-24.31
278.251	14.69
278.386	9.69
278.52	-3.31
278.655	9.69
278.79	5.69
278.924	-1.31
279.059	26.69
279.194	-10.31
279.328	34.69
279.463	5.69
279.598	11.69
279.732	3.69
279.867	2.69
280.001	1.69
280.136	5.69
280.271	-4.31
280.405	9.69
280.54	13.69
280.674	-16.31
280.809	15.69
280.943	0.69
281.078	-7.31
281.213	15.69
281.347	7.69
281.482	16.69
281.616	16.69
281.751	-3.31
281.885	-16.31
282.02	-14.31
282.154	-1.31
282.288	2.69
282.423	-7.31
282.557	-21.31
282.692	1.69
282.826	7.69
282.961	23.69
283.095	26.69
283.229	-4.31
283.364	-14.31
283.498	1.69
283.633	-0.31
283.767	20.69
283.901	7.69
284.036	21.69
284.17	8.69
284.304	-3.31
284.439	9.69
284.573	-5.31
284.707	0.69
284.842	1.69
284.976	-13.31
285.11	-26.31
285.244	0.69
285.379	30.69
285.513	-11.31
285.647	6.69
285.781	1.69
285.916	27.69
286.05	2.69
286.184	38.69
286.318	14.69
286.453	-11.31
286.587	-3.31
286.721	-8.31
286.855	3.69
286.989	1.69
287.123	8.69
287.258	5.69
287.392	17.69
287.526	18.69
287.66	11.69
287.794	2.69
287.928	-26.31
288.062	8.69
288.196	-3.31
288.33	-11.31
288.464	5.69
288.598	10.69
288.733	-8.31
288.867	6.69
289.001	-4.31
289.135	11.69
289.269	-11.31
289.403	-8.31
289.537	4.69
289.671	10.69
289.805	-12.31
289.939	7.69
290.073	0.69
290.207	9.69
290.34	0.69
290.474	9.69
290.608	15.69
290.742	1.69
290.876	-17.31
291.01	-4.31
291.144	47.69
291.278	11.69
291.412	10.69
291.546	-4.31
291.679	-5.31
291.813	-11.31
291.947	-4.31
292.081	5.69
292.215	17.69
292.349	18.69
292.482	-7.31
292.616	7.69
292.75	6.69
292.884	4.69
293.018	5.69
293.151	-33.31
293.285	-4.31
293.419	-25.31
293.553	-9.31
293.686	-12.31
293.82	2.69
293.954	17.69
294.088	32.69
294.221	2.69
294.355	-2.31
294.489	18.69
294.622	14.69
294.756	2.69
294.89	1.69
295.023	-6.31
295.157	3.69
295.291	0.69
295.424	15.69
295.558	2.69
295.691	-7.31
295.825	-7.31
295.959	1.69
296.092	3.69
296.226	12.69
296.359	3.69
296.493	4.69
296.627	10.69
296.76	10.69
296.894	-9.31
297.027	-5.31
297.161	-2.31
297.294	-4.31
297.428	-6.31
297.561	20.69
297.695	21.69
297.828	4.69
297.962	-5.31
298.095	16.69
298.229	3.69
298.362	-15.31
298.495	-5.31
298.629	-8.31
298.762	-0.31
298.896	-5.31
299.029	-5.31
299.162	-14.31
299.296	9.69
299.429	-6.31
299.563	-7.31
299.696	1.69
299.829	17.69
299.963	20.69
300.096	22.69
300.229	-3.31
300.363	3.69
300.496	-3.31
300.629	-34.31
300.763	-10.31
300.896	-14.31
301.029	3.69
301.162	-1.31
301.296	-15.31
301.429	2.69
301.562	-13.31
301.695	-11.31
301.829	3.69
301.962	18.69
302.095	-0.31
302.228	-9.31
302.362	-1.31
302.495	-11.31
302.628	-0.31
302.761	-10.31
302.894	-8.31
303.027	1.69
303.161	-5.31
303.294	-8.31
303.427	7.69
303.56	7.69
303.693	7.69
303.826	7.69
303.959	2.69
304.092	8.69
304.225	-11.31
304.359	3.69
304.492	6.69
304.625	-3.31
304.758	3.69
304.891	-14.31
305.024	-4.31
305.157	-0.31
305.29	-12.31
305.423	9.69
305.556	20.69
305.689	3.69
305.822	-17.31
305.955	-1.31
306.088	-13.31
306.221	-8.31
306.354	-11.31
306.487	-17.31
306.62	-2.31
306.752	18.69
306.885	-9.31
307.018	-2.31
307.151	2.69
307.284	4.69
307.417	-12.31
307.55	5.69
307.683	5.69
307.816	14.69
307.948	8.69
308.081	11.69
308.214	10.69
308.347	24.69
308.48	-2.31
308.613	-4.31
308.745	-1.31
308.878	-19.31
309.011	-6.31
309.144	7.69
309.277	-6.31
309.409	-0.31
309.542	-2.31
309.675	13.69
309.808	-0.31
309.94	9.69
310.073	-7.31
310.206	-2.31
310.339	8.69
310.471	-8.31
310.604	20.69
310.737	-6.31
310.869	-4.31
311.002	-15.31
311.135	-11.31
311.267	-17.31
311.4	-1.31
311.533	24.69
311.665	-4.31
311.798	-10.31
311.93	7.69
312.063	28.69
312.196	9.69
312.328	-13.31
312.461	-0.31
312.593	10.69
312.726	2.69
312.859	12.69
312.991	10.69
313.124	-18.31
313.256	2.69
313.389	-1.31
313.521	-8.31
313.654	-6.31
313.786	-13.31
313.919	-8.31
314.051	-1.31
314.184	10.69
314.316	1.69
314.449	-5.31
314.581	-7.31
314.714	-4.31
314.846	-10.31
314.978	-16.31
315.111	-13.31
315.243	-14.31
315.376	7.69
315.508	16.69
315.641	-5.31
315.773	23.69
315.905	18.69
316.038	2.69
316.17	-3.31
316.302	-0.31
316.435	8.69
316.567	0.69
316.699	37.69
316.832	0.69
316.964	5.69
317.096	-1.31
317.229	1.69
317.361	-6.31
317.493	8.69
317.625	-19.31
317.758	2.69
317.89	4.69
318.022	-5.31
318.155	-7.31
318.287	-22.31
318.419	-4.31
318.551	9.69
318.683	3.69
318.816	-0.31
318.948	-8.31
319.08	-8.31
319.212	-6.31
319.344	8.69
319.477	-0.31
319.609	13.69
319.741	23.69
319.873	-6.31
320.005	-13.31
320.137	5.69
320.269	7.69
320.401	6.69
320.534	-0.31
320.666	-19.31
320.798	-1.31
320.93	3.69
321.062	3.69
321.194	-1.31
321.326	6.69
321.458	1.69
321.59	-11.31
321.722	-3.31
321.854	4.69
321.986	5.69
322.118	20.69
322.25	-19.31
322.382	3.69
322.514	-16.31
322.646	-20.31
322.778	9.69
322.91	-13.31
323.042	12.69
323.174	-2.31
323.306	-16.31
323.438	-18.31
323.57	4.69
323.702	-0.31
323.834	-8.31
323.966	-12.31
324.097	-1.31
324.229	19.69
324.361	-8.31
324.493	-9.31
324.625	6.69
324.757	3.69
324.889	-1.31
325.021	-0.31
325.152	7.69
325.284	24.69
325.416	3.69
325.548	21.69
325.68	-17.31
325.811	9.69
325.943	-4.31
326.075	-7.31
326.207	5.69
326.339	3.69
326.47	-1.31
326.602	-4.31
326.734	1.69
326.866	16.69
326.997	-0.31
327.129	-8.31
327.261	-15.31
327.392	-11.31
327.524	2.69
327.656	-9.31
327.787	-1.31
327.919	8.69
328.051	-9.31
328.182	22.69
328.314	20.69
328.446	10.69
328.577	7.69
328.709	4.69
328.841	-10.31
328.972	-5.31
329.104	8.69
329.235	2.69
329.367	-2.31
329.499	-9.31
329.63	0.69
329.762	3.69
329.893	7.69
330.025	0.69
330.156	-14.31
330.288	16.69
330.419	10.69
330.551	9.69
330.683	8.69
330.814	-0.31
330.946	-5.31
331.077	-17.31
331.208	-4.31
331.34	14.69
331.471	6.69
331.603	-2.31
331.734	-36.31
331.866	5.69
331.997	-4.31
332.129	-0.31
332.26	7.69
332.392	27.69
332.523	4.69
332.654	-31.31
332.786	-16.31
332.917	4.69
333.048	4.69
333.18	22.69
333.311	5.69
333.443	3.69
333.574	8.69
333.705	18.69
333.837	1.69
333.968	-1.31
334.099	4.69
334.231	-0.31
334.362	20.69
334.493	-1.31
334.624	10.69
334.756	3.69
334.887	3.69
335.018	-6.31
335.15	11.69
335.281	-4.31
335.412	-12.31
335.543	7.69
335.675	4.69
335.806	23.69
335.937	-11.31
336.068	24.69
336.199	32.69
336.331	-13.31
336.462	-7.31
336.593	20.69
336.724	-3.31
336.855	-13.31
336.986	9.69
337.118	1.69
337.249	16.69
337.38	20.69
337.511	11.69
337.642	8.69
337.773	-9.31
337.904	11.69
338.035	10.69
338.166	4.69
338.298	1.69
338.429	7.69
338.56	14.69
338.691	8.69
338.822	8.69
338.953	16.69
339.084	22.69
339.215	16.69
339.346	-9.31
339.477	0.69
339.608	14.69
339.739	-2.31
339.87	-3.31
340.001	-4.31
340.132	5.69
340.263	-12.31
340.394	17.69
340.525	-18.31
340.656	-0.31
340.787	-8.31
340.918	26.69
341.049	10.69
341.179	2.69
341.31	1.69
341.441	13.69
341.572	19.69
341.703	7.69
341.834	2.69
341.965	23.69
342.096	12.69
342.227	-12.31
342.357	-1.31
342.488	13.69
342.619	9.69
342.75	14.69
342.881	10.69
343.012	21.69
343.142	25.69
343.273	2.69
343.404	-0.31
343.535	47.69
343.666	28.69
343.796	17.69
343.927	7.69
344.058	10.69
344.189	20.69
344.319	12.69
344.45	-1.31
344.581	-1.31
344.712	-10.31
344.842	4.69
344.973	1.69
345.104	23.69
345.234	11.69
345.365	1.69
345.496	-9.31
345.626	9.69
345.757	18.69
345.888	-11.31
346.018	14.69
346.149	-0.31
346.28	11.69
346.41	-8.31
346.541	7.69
346.672	-6.31
346.802	19.69
346.933	27.69
347.063	-3.31
347.194	-2.31
347.325	-4.31
347.455	7.69
347.586	10.69
347.716	-13.31
347.847	15.69
347.977	5.69
348.108	20.69
348.238	5.69
348.369	-1.31
348.499	-0.31
348.63	0.69
348.76	12.69
348.891	0.69
349.021	16.69
349.152	2.69
349.282	14.69
349.413	-12.31
349.543	9.69
349.674	5.69
349.804	11.69
349.935	-2.31
350.065	7.69
350.196	2.69
350.326	-1.31
350.456	9.69
350.587	9.69
350.717	-1.31
350.848	15.69
350.978	15.69
351.108	-16.31
351.239	12.69
351.369	-12.31
351.499	-7.31
351.63	13.69
351.76	-7.31
351.89	-3.31
352.021	9.69
352.151	3.69
352.281	15.69
352.412	21.69
352.542	-14.31
352.672	6.69
352.803	-4.31
352.933	-8.31
353.063	-4.31
353.193	12.69
353.324	15.69
353.454	15.69
353.584	23.69
353.714	15.69
353.845	16.69
353.975	-9.31
354.105	4.69
354.235	16.69
354.365	3.69
354.496	18.69
354.626	-12.31
354.756	5.69
354.886	15.69
355.016	12.69
355.146	-4.31
355.277	8.69
355.407	1.69
355.537	6.69
355.667	19.69
355.797	2.69
355.927	4.69
356.057	22.69
356.187	-7.31
356.318	-10.31
356.448	-2.31
356.578	6.69
356.708	20.69
356.838	-6.31
356.968	4.69
357.098	3.69
357.228	9.69
357.358	-3.31
357.488	0.69
357.618	34.69
357.748	16.69
357.878	16.69
358.008	-2.31
358.138	-24.31
358.268	-19.31
358.398	25.69
358.528	-17.31
358.658	2.69
358.788	-9.31
358.918	24.69
359.048	7.69
359.178	21.69
359.308	0.69
359.438	13.69
359.568	7.69
359.698	11.69
359.827	5.69
359.957	8.69
360.087	-3.31
360.217	-8.31
360.347	7.69
360.477	24.69
360.607	0.69
360.737	25.69
360.866	28.69
360.996	-17.31
361.126	-16.31
361.256	33.69
361.386	20.69
361.516	11.69
361.645	-17.31
361.775	25.69
361.905	-1.31
362.035	-8.31
362.165	25.69
362.294	15.69
362.424	10.69
362.554	6.69
362.684	-13.31
362.813	-7.31
362.943	14.69
363.073	10.69
363.203	11.69
363.332	33.69
363.462	-17.31
363.592	-24.31
363.721	-8.31
363.851	13.69
363.981	19.69
364.111	13.69
364.24	-25.31
364.37	18.69
364.5	19.69
364.629	18.69
364.759	3.69
364.888	16.69
365.018	-1.31
365.148	-4.31
365.277	10.69
365.407	5.69
365.537	8.69
365.666	11.69
365.796	-15.31
365.925	-0.31
366.055	1.69
366.184	0.69
366.314	-5.31
366.444	15.69
366.573	4.69
366.703	-1.31
366.832	19.69
366.962	16.69
367.091	12.69
367.221	9.69
367.35	-2.31
367.48	46.69
367.609	4.69
367.739	17.69
367.868	1.69
367.998	8.69
368.127	30.69
368.257	18.69
368.386	11.69
368.516	10.69
368.645	18.69
368.775	20.69
368.904	7.69
369.033	3.69
369.163	0.69
369.292	22.69
369.422	11.69
369.551	9.69
369.68	10.69
369.81	25.69
369.939	10.69
370.069	39.69
370.198	11.69
370.327	-21.31
370.457	-3.31
370.586	-8.31
370.715	0.69
370.845	-25.31
370.974	7.69
371.103	25.69
371.233	6.69
371.362	19.69
371.491	-4.31
371.621	22.69
371.75	8.69
371.879	-7.31
372.008	-2.31
372.138	20.69
372.267	9.69
372.396	-2.31
372.525	0.69
372.655	3.69
372.784	0.69
372.913	15.69
373.042	7.69
373.172	15.69
373.301	-14.31
373.43	-22.31
373.559	-12.31
373.688	-2.31
373.818	6.69
373.947	16.69
374.076	-2.31
374.205	11.69
374.334	1.69
374.463	6.69
374.593	7.69
374.722	33.69
374.851	24.69
374.98	-0.31
375.109	-4.31
375.238	12.69
375.367	23.69
375.496	-5.31
375.625	3.69
375.755	33.69
375.884	25.69
376.013	29.69
376.142	3.69
376.271	9.69
376.4	-9.31
376.529	4.69
376.658	26.69
376.787	13.69
376.916	3.69
377.045	9.69
377.174	7.69
377.303	5.69
377.432	17.69
377.561	8.69
377.69	-10.31
377.819	4.69
377.948	10.69
378.077	-0.31
378.206	-2.31
378.335	12.69
378.464	4.69
378.593	28.69
378.722	5.69
378.851	16.69
378.98	39.69
379.108	-3.31
379.237	-15.31
379.366	11.69
379.495	11.69
379.624	9.69
379.753	18.69
379.882	14.69
380.011	-14.31
380.14	0.69
380.268	-0.31
380.397	-15.31
380.526	17.69
380.655	-9.31
380.784	-19.31
380.913	-10.31
381.041	-2.31
381.17	-15.31
381.299	2.69
381.428	16.69
381.557	5.69
381.685	8.69
381.814	15.69
381.943	-5.31
382.072	-14.31
382.2	-12.31
382.329	16.69
382.458	-4.31
382.587	21.69
382.715	28.69
382.844	0.69
382.973	4.69
383.102	4.69
383.23	-2.31
383.359	4.69
383.488	12.69
383.616	-6.31
383.745	-13.31
383.874	-5.31
384.003	-15.31
384.131	-6.31
384.26	9.69
384.389	9.69
384.517	-9.31
384.646	-10.31
384.774	13.69
384.903	25.69
385.032	16.69
385.16	13.69
385.289	-5.31
385.418	4.69
385.546	8.69
385.675	5.69
385.803	14.69
385.932	25.69
386.06	13.69
386.189	-4.31
386.318	1.69
386.446	-5.31
386.575	-2.31
386.703	19.69
386.832	-0.31
386.96	-25.31
387.089	17.69
387.217	10.69
387.346	3.69
387.474	0.69
387.603	12.69
387.731	12.69
387.86	5.69
387.988	-5.31
388.117	29.69
388.245	18.69
388.374	-2.31
388.502	8.69
388.631	14.69
388.759	6.69
388.888	16.69
389.016	-14.31
389.144	3.69
389.273	-2.31
389.401	9.69
389.53	-20.31
389.658	-1.31
389.786	-9.31
389.915	-17.31
390.043	-18.31
390.172	4.69
390.3	31.69
390.428	11.69
390.557	8.69
390.685	6.69
390.813	-0.31
390.942	19.69
391.07	0.69
391.198	-7.31
391.327	5.69
391.455	-15.31
391.583	25.69
391.712	7.69
391.84	11.69
391.968	-12.31
392.096	-11.31
392.225	-8.31
392.353	21.69
392.481	8.69
392.609	18.69
392.738	2.69
392.866	3.69
392.994	-22.31
393.122	33.69
393.251	-5.31
393.379	2.69
393.507	-38.31
393.635	-6.31
393.764	4.69
393.892	20.69
394.02	-10.31
394.148	-2.31
394.276	7.69
394.404	16.69
394.533	4.69
394.661	10.69
394.789	9.69
394.917	22.69
395.045	-0.31
395.173	1.69
395.302	-1.31
395.43	15.69
395.558	14.69
395.686	14.69
395.814	0.69
395.942	-9.31
396.07	13.69
396.198	9.69
396.326	18.69
396.454	16.69
396.582	7.69
396.711	-6.31
396.839	18.69
396.967	-3.31
397.095	6.69
397.223	23.69
397.351	27.69
397.479	22.69
397.607	10.69
397.735	10.69
397.863	22.69
397.991	19.69
398.119	-2.31
398.247	-13.31
398.375	-1.31
398.503	9.69
398.631	11.69
398.759	-6.31
398.887	-11.31
399.015	-13.31
399.143	2.69
399.271	9.69
399.399	-8.31
399.526	4.69
399.654	19.69
399.782	-12.31
399.91	13.69
400.038	16.69
400.166	18.69
400.294	-6.31
400.422	18.69
400.55	10.69
400.678	-8.31
400.805	16.69
400.933	-8.31
401.061	8.69
401.189	3.69
401.317	10.69
401.445	13.69
401.573	24.69
401.7	-11.31
401.828	-11.31
401.956	-11.31
402.084	8.69
402.212	15.69
402.34	8.69
402.467	10.69
402.595	18.69
402.723	16.69
402.851	23.69
402.978	-8.31
403.106	0.69
403.234	-13.31
403.362	34.69
403.489	-0.31
403.617	-4.31
403.745	6.69
403.873	3.69
404	17.69
404.128	14.69
404.256	18.69
404.384	18.69
404.511	13.69
404.639	-1.31
404.767	-1.31
404.894	8.69
405.022	23.69
405.15	8.69
405.277	-14.31
405.405	-1.31
405.533	-1.31
405.66	-22.31
405.788	-13.31
405.916	-23.31
406.043	-11.31
406.171	-10.31
406.299	3.69
406.426	12.69
406.554	-3.31
406.681	30.69
406.809	6.69
406.937	-4.31
407.064	-11.31
407.192	11.69
407.319	13.69
407.447	4.69
407.574	21.69
407.702	5.69
407.83	-0.31
407.957	-10.31
408.085	14.69
408.212	4.69
408.34	6.69
408.467	-8.31
408.595	-7.31
408.722	20.69
408.85	17.69
408.977	-12.31
409.105	12.69
409.232	12.69
409.36	19.69
409.487	15.69
409.615	10.69
409.742	27.69
409.87	36.69
409.997	52.69
410.125	59.69
410.252	53.69
410.379	50.69
410.507	28.69
410.634	14.69
410.762	3.69
410.889	17.69
411.017	17.69
411.144	11.69
411.271	2.69
411.399	4.69
411.526	3.69
411.653	12.69
411.781	34.69
411.908	12.69
412.036	7.69
412.163	16.69
412.29	10.69
412.418	10.69
412.545	10.69
412.672	-3.31
412.8	33.69
412.927	13.69
413.054	18.69
413.182	2.69
413.309	-8.31
413.436	-14.31
413.564	8.69
413.691	16.69
413.818	9.69
413.945	-19.31
414.073	3.69
414.2	16.69
414.327	7.69
414.454	26.69
414.582	8.69
414.709	-13.31
414.836	5.69
414.963	11.69
415.091	-8.31
415.218	18.69
415.345	3.69
415.472	5.69
415.6	-5.31
415.727	-5.31
415.854	2.69
415.981	-7.31
416.108	-3.31
416.236	5.69
416.363	22.69
416.49	5.69
416.617	1.69
416.744	15.69
416.871	5.69
416.998	8.69
417.126	-6.31
417.253	-7.31
417.38	7.69
417.507	11.69
417.634	8.69
417.761	18.69
417.888	12.69
418.015	10.69
418.143	22.69
418.27	24.69
418.397	3.69
418.524	19.69
418.651	-0.31
418.778	24.69
418.905	30.69
419.032	14.69
419.159	10.69
419.286	26.69
419.413	34.69
419.54	23.69
419.667	15.69
419.794	-5.31
419.921	2.69
420.048	5.69
420.175	11.69
420.302	-6.31
420.429	12.69
420.556	8.69
420.683	-8.31
420.81	8.69
420.937	13.69
421.064	12.69
421.191	3.69
421.318	34.69
421.445	31.69
421.572	0.69
421.699	-0.31
421.826	6.69
421.953	-3.31
422.08	8.69
422.207	0.69
422.334	-8.31
422.461	8.69
422.588	3.69
422.714	11.69
422.841	28.69
422.968	23.69
423.095	9.69
423.222	-4.31
423.349	2.69
423.476	3.69
423.603	0.69
423.729	2.69
423.856	20.69
423.983	19.69
424.11	2.69
424.237	12.69
424.364	14.69
424.491	20.69
424.617	-23.31
424.744	-10.31
424.871	3.69
424.998	6.69
425.125	-8.31
425.251	11.69
425.378	-1.31
425.505	-0.31
425.632	4.69
425.758	4.69
425.885	12.69
426.012	11.69
426.139	5.69
426.266	8.69
426.392	6.69
426.519	19.69
426.646	-0.31
426.772	5.69
426.899	12.69
427.026	26.69
427.153	0.69
427.279	2.69
427.406	16.69
427.533	0.69
427.659	12.69
427.786	-2.31
427.913	-4.31
428.039	3.69
428.166	3.69
428.293	7.69
428.419	8.69
428.546	-0.31
428.673	-7.31
428.799	-7.31
428.926	0.69
429.053	38.69
429.179	25.69
429.306	23.69
429.433	36.69
429.559	22.69
429.686	-14.31
429.812	0.69
429.939	-0.31
430.066	4.69
430.192	-2.31
430.319	17.69
430.445	3.69
430.572	3.69
430.699	-1.31
430.825	9.69
430.952	25.69
431.078	-10.31
431.205	9.69
431.331	-0.31
431.458	1.69
431.584	22.69
431.711	13.69
431.837	30.69
431.964	-1.31
432.09	12.69
432.217	5.69
432.343	6.69
432.47	16.69
432.596	14.69
432.723	-3.31
432.849	-7.31
432.976	26.69
433.102	33.69
433.229	19.69
433.355	22.69
433.482	78.69
433.608	144.69
433.735	153.69
433.861	151.69
433.987	154.69
434.114	224.69
434.24	193.69
434.367	63.69
434.493	10.69
434.62	19.69
434.746	24.69
434.872	10.69
434.999	38.69
435.125	18.69
435.252	-3.31
435.378	15.69
435.504	7.69
435.631	21.69
435.757	-1.31
435.883	5.69
436.01	-11.31
436.136	0.69
436.262	10.69
436.389	21.69
436.515	18.69
436.641	0.69
436.768	36.69
436.894	14.69
437.02	21.69
437.147	25.69
437.273	17.69
437.399	7.69
437.526	16.69
437.652	13.69
437.778	25.69
437.904	-7.31
438.031	0.69
438.157	17.69
438.283	15.69
438.409	4.69
438.536	-12.31
438.662	19.69
438.788	5.69
438.914	5.69
439.041	27.69
439.167	28.69
439.293	8.69
439.419	12.69
439.546	12.69
439.672	13.69
439.798	35.69
439.924	16.69
440.05	22.69
440.177	8.69
440.303	8.69
440.429	-7.31
440.555	12.69
440.681	7.69
440.807	12.69
440.934	-1.31
441.06	5.69
441.186	23.69
441.312	12.69
441.438	18.69
441.564	28.69
441.69	28.69
441.816	12.69
441.943	-3.31
442.069	11.69
442.195	10.69
442.321	-1.31
442.447	-0.31
442.573	7.69
442.699	-4.31
442.825	2.69
442.951	14.69
443.077	16.69
443.203	30.69
443.33	9.69
443.456	-4.31
443.582	34.69
443.708	17.69
443.834	32.69
443.96	9.69
444.086	23.69
444.212	31.69
444.338	34.69
444.464	20.69
444.59	12.69
444.716	15.69
444.842	18.69
444.968	-3.31
445.094	5.69
445.22	1.69
445.346	-5.31
445.472	7.69
445.598	11.69
445.724	12.69
445.85	21.69
445.976	11.69
446.102	4.69
446.228	9.69
446.354	6.69
446.48	4.69
446.605	9.69
446.731	6.69
446.857	4.69
446.983	13.69
447.109	2.69
447.235	5.69
447.361	-5.31
447.487	36.69
447.613	11.69
447.739	16.69
447.865	11.69
447.99	-3.31
448.116	-2.31
448.242	7.69
448.368	-2.31
448.494	2.69
448.62	31.69
448.746	5.69
448.872	18.69
448.997	5.69
449.123	-11.31
449.249	20.69
449.375	27.69
449.501	7.69
449.627	11.69
449.752	19.69
449.878	-23.31
450.004	-1.31
450.13	7.69
450.256	13.69
450.381	-4.31
450.507	15.69
450.633	3.69
450.759	16.69
450.884	6.69
451.01	12.69
451.136	0.69
451.262	5.69
451.388	14.69
451.513	-2.31
451.639	13.69
451.765	6.69
451.89	16.69
452.016	8.69
452.142	13.69
452.268	13.69
452.393	-3.31
452.519	-1.31
452.645	8.69
452.771	11.69
452.896	-6.31
453.022	14.69
453.148	19.69
453.273	2.69
453.399	5.69
453.525	-23.31
453.65	1.69
453.776	6.69
453.902	17.69
454.027	25.69
454.153	13.69
454.279	2.69
454.404	12.69
454.53	35.69
454.656	32.69
454.781	-1.31
454.907	3.69
455.032	2.69
455.158	12.69
455.284	18.69
455.409	18.69
455.535	14.69
455.66	12.69
455.786	28.69
455.912	11.69
456.037	-1.31
456.163	25.69
456.288	23.69
456.414	-16.31
456.539	6.69
456.665	21.69
456.791	12.69
456.916	16.69
457.042	1.69
457.167	-4.31
457.293	15.69
457.418	-0.31
457.544	7.69
457.669	4.69
457.795	2.69
457.92	5.69
458.046	5.69
458.171	20.69
458.297	-16.31
458.422	3.69
458.548	-1.31
458.673	3.69
458.799	17.69
458.924	-5.31
459.05	5.69
459.175	11.69
459.301	18.69
459.426	5.69
459.552	14.69
459.677	-3.31
459.803	29.69
459.928	13.69
460.053	8.69
460.179	13.69
460.304	32.69
460.43	8.69
460.555	17.69
460.681	7.69
460.806	14.69
460.931	23.69
461.057	7.69
461.182	18.69
461.308	9.69
461.433	21.69
461.558	15.69
461.684	10.69
461.809	8.69
461.934	-2.31
462.06	20.69
462.185	29.69
462.311	4.69
462.436	9.69
462.561	4.69
462.687	19.69
462.812	5.69
462.937	8.69
463.063	-1.31
463.188	-13.31
463.313	13.69
463.439	2.69
463.564	-0.31
463.689	-5.31
463.814	7.69
463.94	8.69
464.065	17.69
464.19	25.69
464.316	0.69
464.441	2.69
464.566	-1.31
464.692	-5.31
464.817	25.69
464.942	-8.31
465.067	-4.31
465.193	3.69
465.318	1.69
465.443	-9.31
465.568	-5.31
465.694	14.69
465.819	1.69
465.944	19.69
466.069	7.69
466.194	0.69
466.32	9.69
466.445	3.69
466.57	0.69
466.695	10.69
466.82	-7.31
466.946	11.69
467.071	3.69
467.196	18.69
467.321	18.69
467.446	8.69
467.572	-3.31
467.697	-13.31
467.822	3.69
467.947	9.69
468.072	-9.31
468.197	-12.31
468.323	-9.31
468.448	15.69
468.573	12.69
468.698	15.69
468.823	14.69
468.948	27.69
469.073	-5.31
469.198	31.69
469.324	10.69
469.449	-7.31
469.574	21.69
469.699	12.69
469.824	15.69
469.949	13.69
470.074	15.69
470.199	29.69
470.324	21.69
470.449	22.69
470.574	14.69
470.7	8.69
470.825	14.69
470.95	19.69
471.075	7.69
471.2	0.69
471.325	7.69
471.45	0.69
471.575	-4.31
471.7	15.69
471.825	4.69
471.95	-2.31
472.075	12.69
472.2	6.69
472.325	-8.31
472.45	-0.31
472.575	11.69
472.7	4.69
472.825	8.69
472.95	31.69
473.075	8.69
473.2	5.69
473.325	6.69
473.45	4.69
473.575	5.69
473.7	22.69
473.825	-1.31
473.95	12.69
474.075	19.69
474.2	1.69
474.325	3.69
474.45	27.69
474.574	-1.31
474.699	20.69
474.824	20.69
474.949	15.69
475.074	-10.31
475.199	11.69
475.324	20.69
475.449	7.69
475.574	20.69
475.699	22.69
475.824	-2.31
475.949	7.69
476.073	-8.31
476.198	15.69
476.323	23.69
476.448	-1.31
476.573	11.69
476.698	20.69
476.823	13.69
476.947	10.69
477.072	0.69
477.197	-13.31
477.322	-1.31
477.447	1.69
477.572	17.69
477.697	-4.31
477.821	2.69
477.946	20.69
478.071	10.69
478.196	8.69
478.321	5.69
478.445	-3.31
478.57	-5.31
478.695	10.69
478.82	4.69
478.945	25.69
479.069	-21.31
479.194	3.69
479.319	4.69
479.444	12.69
479.569	-5.31
479.693	24.69
479.818	9.69
479.943	23.69
480.068	19.69
480.192	16.69
480.317	18.69
480.442	12.69
480.567	7.69
480.691	14.69
480.816	33.69
480.941	16.69
481.066	26.69
481.19	25.69
481.315	24.69
481.44	8.69
481.564	11.69
481.689	21.69
481.814	12.69
481.938	14.69
482.063	-7.31
482.188	28.69
482.313	38.69
482.437	17.69
482.562	25.69
482.687	38.69
482.811	35.69
482.936	16.69
483.061	11.69
483.185	5.69
483.31	25.69
483.435	23.69
483.559	10.69
483.684	13.69
483.808	36.69
483.933	7.69
484.058	3.69
484.182	15.69
484.307	10.69
484.432	23.69
484.556	16.69
484.681	12.69
484.805	22.69
484.93	38.69
485.055	21.69
485.179	71.69
485.304	110.69
485.428	378.69
485.553	1270.69
485.678	1786.69
485.802	1620.69
485.927	1794.69
486.051	2695.69
486.176	1659.69
486.3	460.69
486.425	150.69
486.549	95.69
486.674	49.69
486.799	34.69
486.923	17.69
487.048	19.69
487.172	17.69
487.297	28.69
487.421	32.69
487.546	21.69
487.67	6.69
487.795	12.69
487.919	17.69
488.044	22.69
488.168	29.69
488.293	26.69
488.417	10.69
488.542	7.69
488.666	14.69
488.791	22.69
488.915	3.69
489.04	13.69
489.164	9.69
489.289	38.69
489.413	7.69
489.538	22.69
489.662	27.69
489.786	35.69
489.911	14.69
490.035	14.69
490.16	9.69
490.284	0.69
490.409	8.69
490.533	8.69
490.658	38.69
490.782	21.69
490.906	19.69
491.031	28.69
491.155	27.69
491.28	18.69
491.404	6.69
491.528	7.69
491.653	8.69
491.777	15.69
491.902	-2.31
492.026	31.69
492.15	22.69
492.275	32.69
492.399	16.69
492.524	9.69
492.648	22.69
492.772	16.69
492.897	14.69
493.021	18.69
493.145	23.69
493.27	35.69
493.394	12.69
493.518	-3.31
493.643	-10.31
493.767	20.69
493.891	3.69
494.016	17.69
494.14	15.69
494.264	16.69
494.389	24.69
494.513	3.69
494.637	1.69
494.762	14.69
494.886	22.69
495.01	38.69
495.134	27.69
495.259	17.69
495.383	15.69
495.507	4.69
495.632	21.69
495.756	40.69
495.88	24.69
496.004	14.69
496.129	9.69
496.253	12.69
496.377	24.69
496.501	42.69
496.626	22.69
496.75	22.69
496.874	15.69
496.998	15.69
497.123	21.69
497.247	7.69
497.371	17.69
497.495	10.69
497.62	9.69
497.744	21.69
497.868	2.69
497.992	22.69
498.116	10.69
498.241	22.69
498.365	5.69
498.489	6.69
498.613	26.69
498.737	14.69
498.862	12.69
498.986	18.69
499.11	27.69
499.234	0.69
499.358	6.69
499.482	13.69
499.607	14.69
499.731	11.69
499.855	16.69
499.979	0.69
500.103	9.69
500.227	38.69
500.351	4.69
500.476	18.69
500.6	26.69
500.724	28.69
500.848	18.69
500.972	37.69
501.096	24.69
501.22	22.69
501.344	8.69
501.469	11.69
501.593	14.69
501.717	15.69
501.841	17.69
501.965	17.69
502.089	6.69
502.213	32.69
502.337	11.69
502.461	6.69
502.585	-0.31
502.709	6.69
502.834	19.69
502.958	20.69
503.082	16.69
503.206	18.69
503.33	16.69
503.454	27.69
503.578	12.69
503.702	14.69
503.826	10.69
503.95	41.69
504.074	4.69
504.198	-3.31
504.322	-11.31
504.446	2.69
504.57	10.69
504.694	7.69
504.818	1.69
504.942	19.69
505.066	3.69
505.19	9.69
505.314	-0.31
505.438	3.69
505.562	8.69
505.686	20.69
505.81	13.69
505.934	21.69
506.058	12.69
506.182	13.69
506.306	17.69
506.43	12.69
506.554	7.69
506.678	2.69
506.802	13.69
506.926	25.69
507.05	-2.31
507.174	10.69
507.298	33.69
507.422	37.69
507.546	28.69
507.67	39.69
507.794	-1.31
507.918	9.69
508.042	25.69
508.165	-1.31
508.289	-8.31
508.413	6.69
508.537	3.69
508.661	34.69
508.785	22.69
508.909	11.69
509.033	-5.31
509.157	6.69
509.281	5.69
509.405	9.69
509.528	37.69
509.652	25.69
509.776	10.69
509.9	17.69
510.024	18.69
510.148	15.69
510.272	5.69
510.396	-6.31
510.519	-9.31
510.643	22.69
510.767	9.69
510.891	21.69
511.015	17.69
511.139	-1.31
511.263	18.69
511.386	17.69
511.51	1.69
511.634	4.69
511.758	25.69
511.882	13.69
512.006	20.69
512.129	20.69
512.253	47.69
512.377	17.69
512.501	23.69
512.625	12.69
512.748	7.69
512.872	5.69
512.996	-7.31
513.12	21.69
513.244	3.69
513.367	0.69
513.491	7.69
513.615	18.69
513.739	4.69
513.862	5.69
513.986	18.69
514.11	1.69
514.234	16.69
514.358	22.69
514.481	18.69
514.605	5.69
514.729	9.69
514.853	17.69
514.976	-8.31
515.1	11.69
515.224	39.69
515.348	-10.31
515.471	-5.31
515.595	-6.31
515.719	10.69
515.842	29.69
515.966	1.69
516.09	33.69
516.214	6.69
516.337	39.69
516.461	14.69
516.585	13.69
516.708	3.69
516.832	13.69
516.956	-4.31
517.08	15.69
517.203	0.69
517.327	23.69
517.451	32.69
517.574	47.69
517.698	19.69
517.822	22.69
517.945	24.69
518.069	20.69
518.193	44.69
518.316	27.69
518.44	31.69
518.564	32.69
518.687	12.69
518.811	24.69
518.935	63.69
519.058	31.69
519.182	35.69
519.306	30.69
519.429	32.69
519.553	49.69
519.676	17.69
519.8	19.69
519.924	18.69
520.047	21.69
520.171	-1.31
520.294	10.69
520.418	8.69
520.542	-4.31
520.665	20.69
520.789	17.69
520.913	-3.31
521.036	2.69
521.16	-0.31
521.283	5.69
521.407	15.69
521.53	1.69
521.654	-1.31
521.778	21.69
521.901	9.69
522.025	4.69
522.148	9.69
522.272	17.69
522.395	13.69
522.519	22.69
522.643	27.69
522.766	10.69
522.89	22.69
523.013	25.69
523.137	11.69
523.26	2.69
523.384	7.69
523.507	25.69
523.631	14.69
523.754	5.69
523.878	8.69
524.002	12.69
524.125	11.69
524.249	-11.31
524.372	28.69
524.496	3.69
524.619	22.69
524.743	-3.31
524.866	17.69
524.99	16.69
525.113	-1.31
525.237	23.69
525.36	17.69
525.484	16.69
525.607	-7.31
525.731	-11.31
525.854	4.69
525.978	25.69
526.101	15.69
526.224	-2.31
526.348	11.69
526.471	22.69
526.595	11.69
526.718	6.69
526.842	10.69
526.965	14.69
527.089	-4.31
527.212	1.69
527.336	3.69
527.459	0.69
527.582	7.69
527.706	9.69
527.829	7.69
527.953	9.69
528.076	-3.31
528.2	-10.31
528.323	18.69
528.446	17.69
528.57	10.69
528.693	13.69
528.817	28.69
528.94	14.69
529.064	26.69
529.187	20.69
529.31	13.69
529.434	14.69
529.557	10.69
529.68	17.69
529.804	7.69
529.927	6.69
530.051	8.69
530.174	-8.31
530.297	5.69
530.421	21.69
530.544	14.69
530.668	9.69
530.791	4.69
530.914	13.69
531.038	13.69
531.161	6.69
531.284	10.69
531.408	9.69
531.531	2.69
531.654	-0.31
531.778	17.69
531.901	2.69
532.024	19.69
532.148	23.69
532.271	6.69
532.394	0.69
532.518	19.69
532.641	24.69
532.764	18.69
532.888	13.69
533.011	-2.31
533.134	4.69
533.258	54.69
533.381	11.69
533.504	10.69
533.628	9.69
533.751	0.69
533.874	20.69
533.997	9.69
534.121	3.69
534.244	0.69
534.367	12.69
534.491	11.69
534.614	10.69
534.737	17.69
534.86	3.69
534.984	-8.31
535.107	-15.31
535.23	10.69
535.354	17.69
535.477	5.69
535.6	23.69
535.723	19.69
535.847	1.69
535.97	-6.31
536.093	27.69
536.216	9.69
536.34	10.69
536.463	-3.31
536.586	24.69
536.709	16.69
536.833	-2.31
536.956	8.69
537.079	-13.31
537.202	3.69
537.325	-5.31
537.449	5.69
537.572	14.69
537.695	-7.31
537.818	12.69
537.941	-3.31
538.065	16.69
538.188	2.69
538.311	13.69
538.434	18.69
538.558	8.69
538.681	17.69
538.804	18.69
538.927	15.69
539.05	19.69
539.173	15.69
539.297	-0.31
539.42	17.69
539.543	34.69
539.666	37.69
539.789	29.69
539.913	0.69
540.036	2.69
540.159	4.69
540.282	4.69
540.405	4.69
540.528	-7.31
540.651	22.69
540.775	17.69
540.898	13.69
541.021	-0.31
541.144	21.69
541.267	8.69
541.39	0.69
541.513	18.69
541.637	6.69
541.76	10.69
541.883	-0.31
542.006	22.69
542.129	22.69
542.252	12.69
542.375	4.69
542.498	13.69
542.622	21.69
542.745	17.69
542.868	10.69
542.991	11.69
543.114	22.69
543.237	22.69
543.36	35.69
543.483	19.69
543.606	30.69
543.73	22.69
543.853	8.69
543.976	4.69
544.099	3.69
544.222	-0.31
544.345	8.69
544.468	11.69
544.591	9.69
544.714	-1.31
544.837	27.69
544.96	11.69
545.083	13.69
545.206	3.69
545.329	16.69
545.453	0.69
545.576	17.69
545.699	3.69
545.822	8.69
545.945	21.69
546.068	10.69
546.191	10.69
546.314	16.69
546.437	37.69
546.56	36.69
546.683	20.69
546.806	19.69
546.929	8.69
547.052	-2.31
547.175	16.69
547.298	28.69
547.421	4.69
547.544	-10.31
547.667	27.69
547.79	12.69
547.913	4.69
548.036	-2.31
548.159	7.69
548.282	2.69
548.405	6.69
548.528	10.69
548.651	1.69
548.774	19.69
548.897	36.69
549.02	39.69
549.143	20.69
549.266	23.69
549.389	22.69
549.512	0.69
549.635	17.69
549.758	22.69
549.881	4.69
550.004	-8.31
550.127	16.69
550.25	12.69
550.373	-4.31
550.496	9.69
550.619	9.69
550.742	-0.31
550.865	-5.31
550.988	3.69
551.111	28.69
551.234	33.69
551.356	9.69
551.479	-8.31
551.602	14.69
551.725	8.69
551.848	13.69
551.971	29.69
552.094	13.69
552.217	21.69
552.34	17.69
552.463	1.69
552.586	6.69
552.709	9.69
552.832	25.69
552.955	10.69
553.077	23.69
553.2	12.69
553.323	-16.31
553.446	12.69
553.569	5.69
553.692	12.69
553.815	-2.31
553.938	12.69
554.061	4.69
554.184	18.69
554.306	30.69
554.429	4.69
554.552	15.69
554.675	-2.31
554.798	8.69
554.921	16.69
555.044	-8.31
555.167	-5.31
555.29	6.69
555.412	-0.31
555.535	18.69
555.658	8.69
555.781	23.69
555.904	18.69
556.027	15.69
556.15	7.69
556.272	-4.31
556.395	7.69
556.518	-12.31
556.641	-1.31
556.764	22.69
556.887	13.69
557.01	0.69
557.132	6.69
557.255	17.69
557.378	11.69
557.501	2.69
557.624	15.69
557.747	22.69
557.869	16.69
557.992	10.69
558.115	7.69
558.238	22.69
558.361	28.69
558.483	23.69
558.606	15.69
558.729	5.69
558.852	36.69
558.975	13.69
559.098	16.69
559.22	11.69
559.343	13.69
559.466	14.69
559.589	-6.31
559.712	16.69
559.834	23.69
559.957	15.69
560.08	22.69
560.203	27.69
560.325	32.69
560.448	31.69
560.571	28.69
560.694	15.69
560.817	33.69
560.939	11.69
561.062	-6.31
561.185	21.69
561.308	15.69
561.43	9.69
561.553	3.69
561.676	-1.31
561.799	14.69
561.921	19.69
562.044	21.69
562.167	17.69
562.29	31.69
562.413	14.69
562.535	13.69
562.658	5.69
562.781	7.69
562.903	17.69
563.026	15.69
563.149	26.69
563.272	3.69
563.394	0.69
563.517	10.69
563.64	-0.31
563.763	18.69
563.885	16.69
564.008	26.69
564.131	5.69
564.254	4.69
564.376	19.69
564.499	-15.31
564.622	6.69
564.744	4.69
564.867	13.69
564.99	-14.31
565.113	-3.31
565.235	4.69
565.358	-5.31
565.481	-13.31
565.603	6.69
565.726	-1.31
565.849	16.69
565.971	17.69
566.094	-3.31
566.217	22.69
566.34	14.69
566.462	19.69
566.585	15.69
566.708	24.69
566.83	16.69
566.953	22.69
567.076	24.69
567.198	12.69
567.321	12.69
567.444	25.69
567.566	19.69
567.689	-13.31
567.812	10.69
567.934	1.69
568.057	13.69
568.18	15.69
568.302	-11.31
568.425	-15.31
568.548	-1.31
568.67	25.69
568.793	10.69
568.916	19.69
569.038	5.69
569.161	10.69
569.283	10.69
569.406	6.69
569.529	-3.31
569.651	-17.31
569.774	5.69
569.897	-2.31
570.019	24.69
570.142	16.69
570.265	8.69
570.387	11.69
570.51	4.69
570.632	11.69
570.755	9.69
570.878	24.69
571	8.69
571.123	2.69
571.246	14.69
571.368	12.69
571.491	17.69
571.613	7.69
571.736	-28.31
571.859	6.69
571.981	-4.31
572.104	-13.31
572.226	13.69
572.349	-2.31
572.472	16.69
572.594	23.69
572.717	15.69
572.839	3.69
572.962	10.69
573.085	-2.31
573.207	12.69
573.33	26.69
573.452	18.69
573.575	11.69
573.697	16.69
573.82	6.69
573.943	-3.31
574.065	14.69
574.188	-9.31
574.31	20.69
574.433	10.69
574.555	23.69
574.678	10.69
574.801	9.69
574.923	-5.31
575.046	7.69
575.168	1.69
575.291	11.69
575.413	5.69
575.536	-12.31
575.659	14.69
575.781	10.69
575.904	5.69
576.026	18.69
576.149	1.69
576.271	6.69
576.394	5.69
576.516	9.69
576.639	22.69
576.761	-4.31
576.884	-0.31
577.007	6.69
577.129	30.69
577.252	7.69
577.374	14.69
577.497	13.69
577.619	16.69
577.742	0.69
577.864	35.69
577.987	21.69
578.109	20.69
578.232	3.69
578.354	17.69
578.477	0.69
578.599	11.69
578.722	5.69
578.844	-8.31
578.967	28.69
579.089	8.69
579.212	3.69
579.334	28.69
579.457	7.69
579.579	10.69
579.702	7.69
579.824	15.69
579.947	-8.31
580.069	2.69
580.192	1.69
580.314	12.69
580.437	13.69
580.559	32.69
580.682	22.69
580.804	3.69
580.927	26.69
581.049	26.69
581.172	28.69
581.294	21.69
581.417	15.69
581.539	-1.31
581.662	30.69
581.784	24.69
581.907	17.69
582.029	18.69
582.152	-7.31
582.274	27.69
582.396	19.69
582.519	9.69
582.641	2.69
582.764	7.69
582.886	22.69
583.009	11.69
583.131	1.69
583.254	12.69
583.376	22.69
583.499	-5.31
583.621	7.69
583.743	36.69
583.866	8.69
583.988	9.69
584.111	26.69
584.233	5.69
584.356	18.69
584.478	10.69
584.601	-13.31
584.723	12.69
584.845	26.69
584.968	12.69
585.09	-4.31
585.213	-4.31
585.335	-26.31
585.458	1.69
585.58	10.69
585.702	27.69
585.825	5.69
585.947	19.69
586.07	12.69
586.192	10.69
586.315	8.69
586.437	-7.31
586.559	6.69
586.682	-4.31
586.804	3.69
586.927	3.69
587.049	13.69
587.171	30.69
587.294	30.69
587.416	26.69
587.539	9.69
587.661	-2.31
587.783	12.69
587.906	13.69
588.028	27.69
588.151	23.69
588.273	33.69
588.395	6.69
588.518	-0.31
588.64	33.69
588.763	24.69
588.885	16.69
589.007	10.69
589.13	4.69
589.252	1.69
589.375	-3.31
589.497	14.69
589.619	20.69
589.742	4.69
589.864	22.69
589.986	23.69
590.109	8.69
590.231	-4.31
590.354	16.69
590.476	-13.31
590.598	12.69
590.721	2.69
590.843	15.69
590.965	15.69
591.088	15.69
591.21	0.69
591.332	6.69
591.455	15.69
591.577	2.69
591.7	11.69
591.822	6.69
591.944	10.69
592.067	11.69
592.189	9.69
592.311	16.69
592.434	8.69
592.556	7.69
592.678	-7.31
592.801	16.69
592.923	3.69
593.045	3.69
593.168	5.69
593.29	-4.31
593.412	21.69
593.535	6.69
593.657	-6.31
593.779	1.69
593.902	16.69
594.024	19.69
594.146	38.69
594.269	19.69
594.391	5.69
594.513	12.69
594.636	17.69
594.758	0.69
594.88	30.69
595.003	7.69
595.125	5.69
595.247	15.69
595.37	10.69
595.492	7.69
595.614	25.69
595.737	17.69
595.859	22.69
595.981	29.69
596.104	19.69
596.226	-9.31
596.348	7.69
596.471	8.69
596.593	6.69
596.715	3.69
596.838	14.69
596.96	2.69
597.082	15.69
597.204	6.69
597.327	5.69
597.449	-1.31
597.571	12.69
597.694	3.69
597.816	11.69
597.938	-4.31
598.061	-9.31
598.183	-1.31
598.305	20.69
598.427	18.69
598.55	12.69
598.672	23.69
598.794	9.69
598.917	10.69
599.039	7.69
599.161	9.69
599.283	-1.31
599.406	-6.31
599.528	15.69
599.65	23.69
599.773	8.69
599.895	39.69
600.017	16.69
600.139	12.69
600.262	-10.31
600.384	10.69
600.506	10.69
600.628	31.69
600.751	25.69
600.873	-3.31
600.995	8.69
601.118	12.69
601.24	4.69
601.362	13.69
601.484	14.69
601.607	22.69
601.729	12.69
601.851	0.69
601.973	5.69
602.096	29.69
602.218	24.69
602.34	28.69
602.462	30.69
602.585	8.69
602.707	2.69
602.829	21.69
602.951	7.69
603.074	2.69
603.196	15.69
603.318	-2.31
603.44	24.69
603.563	19.69
603.685	1.69
603.807	23.69
603.929	2.69
604.052	8.69
604.174	12.69
604.296	13.69
604.418	21.69
604.541	20.69
604.663	3.69
604.785	20.69
604.907	23.69
605.03	-5.31
605.152	22.69
605.274	11.69
605.396	6.69
605.519	7.69
605.641	10.69
605.763	-0.31
605.885	-12.31
606.008	-1.31
606.13	9.69
606.252	9.69
606.374	-11.31
606.496	0.69
606.619	5.69
606.741	2.69
606.863	21.69
606.985	18.69
607.108	6.69
607.23	4.69
607.352	16.69
607.474	14.69
607.596	7.69
607.719	20.69
607.841	23.69
607.963	9.69
608.085	11.69
608.207	26.69
608.33	28.69
608.452	8.69
608.574	7.69
608.696	18.69
608.819	-6.31
608.941	-2.31
609.063	2.69
609.185	-2.31
609.307	14.69
609.43	17.69
609.552	10.69
609.674	-3.31
609.796	3.69
609.918	11.69
610.041	3.69
610.163	25.69
610.285	8.69
610.407	7.69
610.529	3.69
610.652	3.69
610.774	19.69
610.896	20.69
611.018	8.69
611.14	-0.31
611.263	-2.31
611.385	-3.31
611.507	10.69
611.629	9.69
611.751	10.69
611.873	30.69
611.996	14.69
612.118	8.69
612.24	-9.31
612.362	10.69
612.484	12.69
612.607	17.69
612.729	27.69
612.851	15.69
612.973	6.69
613.095	-12.31
613.218	-4.31
613.34	23.69
613.462	23.69
613.584	12.69
613.706	-3.31
613.828	33.69
613.951	14.69
614.073	0.69
614.195	2.69
614.317	28.69
614.439	27.69
614.561	15.69
614.684	22.69
614.806	14.69
614.928	17.69
615.05	35.69
615.172	19.69
615.294	15.69
615.417	20.69
615.539	7.69
615.661	11.69
615.783	27.69
615.905	26.69
616.027	73.69
616.15	106.69
616.272	66.69
616.394	48.69
616.516	21.69
616.638	15.69
616.76	6.69
616.883	17.69
617.005	-9.31
617.127	18.69
617.249	-1.31
617.371	22.69
617.493	5.69
617.615	8.69
617.738	-2.31
617.86	7.69
617.982	15.69
618.104	-1.31
618.226	-17.31
618.348	-11.31
618.471	9.69
618.593	20.69
618.715	11.69
618.837	4.69
618.959	-3.31
619.081	9.69
619.203	3.69
619.326	12.69
619.448	19.69
619.57	0.69
619.692	0.69
619.814	13.69
619.936	6.69
620.058	18.69
620.181	11.69
620.303	20.69
620.425	26.69
620.547	8.69
620.669	5.69
620.791	5.69
620.913	10.69
621.036	-3.31
621.158	4.69
621.28	16.69
621.402	0.69
621.524	-5.31
621.646	22.69
621.768	-9.31
621.891	-8.31
622.013	7.69
622.135	-9.31
622.257	-1.31
622.379	0.69
622.501	0.69
622.623	21.69
622.745	20.69
622.868	-0.31
622.99	1.69
623.112	-10.31
623.234	5.69
623.356	23.69
623.478	5.69
623.6	14.69
623.722	27.69
623.845	23.69
623.967	-0.31
624.089	9.69
624.211	0.69
624.333	15.69
624.455	5.69
624.577	0.69
624.699	3.69
624.822	9.69
624.944	2.69
625.066	3.69
625.188	-2.31
625.31	21.69
625.432	20.69
625.554	15.69
625.676	22.69
625.799	-9.31
625.921	-2.31
626.043	10.69
626.165	3.69
626.287	-10.31
626.409	10.69
626.531	18.69
626.653	-0.31
626.775	4.69
626.898	15.69
627.02	9.69
627.142	36.69
627.264	-11.31
627.386	-12.31
627.508	2.69
627.63	0.69
627.752	20.69
627.874	9.69
627.997	20.69
628.119	21.69
628.241	27.69
628.363	12.69
628.485	18.69
628.607	14.69
628.729	11.69
628.851	-17.31
628.973	-0.31
629.096	-7.31
629.218	9.69
629.34	-1.31
629.462	6.69
629.584	18.69
629.706	22.69
629.828	33.69
629.95	0.69
630.072	12.69
630.195	13.69
630.317	18.69
630.439	-7.31
630.561	11.69
630.683	-4.31
630.805	6.69
630.927	13.69
631.049	5.69
631.171	5.69
631.293	15.69
631.416	5.69
631.538	1.69
631.66	2.69
631.782	8.69
631.904	21.69
632.026	1.69
632.148	15.69
632.27	0.69
632.392	2.69
632.514	11.69
632.637	1.69
632.759	12.69
632.881	8.69
633.003	-8.31
633.125	8.69
633.247	4.69
633.369	-5.31
633.491	7.69
633.613	17.69
633.735	3.69
633.858	10.69
633.98	-4.31
634.102	-12.31
634.224	2.69
634.346	-5.31
634.468	11.69
634.59	19.69
634.712	-1.31
634.834	16.69
634.956	5.69
635.078	-1.31
635.201	-5.31
635.323	-4.31
635.445	1.69
635.567	-8.31
635.689	11.69
635.811	18.69
635.933	4.69
636.055	14.69
636.177	18.69
636.299	34.69
636.421	-9.31
636.544	9.69
636.666	27.69
636.788	20.69
636.91	7.69
637.032	7.69
637.154	29.69
637.276	33.69
637.398	15.69
637.52	16.69
637.642	3.69
637.764	16.69
637.887	8.69
638.009	-8.31
638.131	0.69
638.253	4.69
638.375	11.69
638.497	12.69
638.619	10.69
638.741	5.69
638.863	-24.31
638.985	-17.31
639.107	6.69
639.23	14.69
639.352	21.69
639.474	1.69
639.596	24.69
639.718	3.69
639.84	12.69
639.962	9.69
640.084	14.69
640.206	17.69
640.328	-9.31
640.45	23.69
640.573	11.69
640.695	24.69
640.817	2.69
640.939	18.69
641.061	3.69
641.183	2.69
641.305	11.69
641.427	-14.31
641.549	8.69
641.671	15.69
641.793	7.69
641.915	14.69
642.038	-3.31
642.16	1.69
642.282	5.69
642.404	-1.31
642.526	31.69
642.648	-6.31
642.77	-1.31
642.892	12.69
643.014	24.69
643.136	7.69
643.258	0.69
643.381	29.69
643.503	32.69
643.625	4.69
643.747	-15.31
643.869	17.69
643.991	27.69
644.113	7.69
644.235	8.69
644.357	4.69
644.479	22.69
644.601	-7.31
644.723	0.69
644.846	7.69
644.968	5.69
645.09	19.69
645.212	4.69
645.334	1.69
645.456	2.69
645.578	14.69
645.7	5.69
645.822	14.69
645.944	2.69
646.066	19.69
646.188	0.69
646.311	12.69
646.433	0.69
646.555	44.69
646.677	34.69
646.799	39.69
646.921	18.69
647.043	27.69
647.165	-0.31
647.287	10.69
647.409	13.69
647.531	31.69
647.654	-23.31
647.776	11.69
647.898	5.69
648.02	6.69
648.142	-5.31
648.264	1.69
648.386	3.69
648.508	0.69
648.63	-4.31
648.752	5.69
648.874	2.69
648.997	8.69
649.119	20.69
649.241	-3.31
649.363	30.69
649.485	13.69
649.607	0.69
649.729	-1.31
649.851	12.69
649.973	15.69
650.095	12.69
650.217	-16.31
650.34	3.69
650.462	10.69
650.584	11.69
650.706	3.69
650.828	16.69
650.95	-8.31
651.072	28.69
651.194	-5.31
651.316	-7.31
651.438	7.69
651.56	-15.31
651.683	-3.31
651.805	15.69
651.927	18.69
652.049	-1.31
652.171	-10.31
652.293	1.69
652.415	6.69
652.537	14.69
652.659	21.69
652.781	9.69
652.903	7.69
653.026	2.69
653.148	10.69
653.27	1.69
653.392	16.69
653.514	-5.31
653.636	11.69
653.758	17.69
653.88	14.69
654.002	3.69
654.124	8.69
654.247	21.69
654.369	24.69
654.491	19.69
654.613	28.69
654.735	13.69
654.857	18.69
654.979	9.69
655.101	4.69
655.223	44.69
655.345	18.69
655.468	32.69
655.59	10.69
655.712	23.69
655.834	28.69
655.956	42.69
656.078	32.69
656.2	40.69
656.322	26.69
656.444	8.69
656.566	31.69
656.689	41.69
656.811	73.69
656.933	83.69
657.055	88.69
657.177	143.69
657.299	249.69
657.421	523.69
657.543	1929.69
657.665	12615.69
657.787	15181.69
657.91	15292.69
658.032	15661.69
658.154	4662.69
658.276	3740.69
658.398	1223.69
658.52	1059.69
658.642	470.69
658.764	609.69
658.886	273.69
659.009	430.69
659.131	230.69
659.253	310.69
659.375	157.69
659.497	255.69
659.619	151.69
659.741	210.69
659.863	106.69
659.985	170.69
660.108	105.69
660.23	138.69
660.352	78.69
660.474	150.69
660.596	94.69
660.718	130.69
660.84	56.69
660.962	126.69
661.084	54.69
661.207	97.69
661.329	34.69
661.451	87.69
661.573	44.69
661.695	117.69
661.817	59.69
661.939	97.69
662.061	66.69
662.184	80.69
662.306	46.69
662.428	72.69
662.55	47.69
662.672	65.69
662.794	43.69
662.916	60.69
663.038	38.69
663.161	87.69
663.283	44.69
663.405	60.69
663.527	38.69
663.649	69.69
663.771	27.69
663.893	56.69
664.015	14.69
664.138	42.69
664.26	27.69
664.382	54.69
664.504	23.69
664.626	38.69
664.748	16.69
664.87	30.69
664.992	31.69
665.115	49.69
665.237	36.69
665.359	47.69
665.481	21.69
665.603	46.69
665.725	8.69
665.847	17.69
665.97	9.69
666.092	39.69
666.214	41.69
666.336	46.69
666.458	17.69
666.58	43.69
666.702	14.69
666.825	44.69
666.947	-10.31
667.069	40.69
667.191	23.69
667.313	36.69
667.435	2.69
667.557	8.69
667.68	16.69
667.802	19.69
667.924	21.69
668.046	38.69
668.168	17.69
668.29	50.69
668.412	3.69
668.535	24.69
668.657	15.69
668.779	18.69
668.901	5.69
669.023	26.69
669.145	14.69
669.267	38.69
669.39	19.69
669.512	31.69
669.634	16.69
669.756	24.69
669.878	11.69
670	34.69
670.123	7.69
670.245	30.69
670.367	8.69
670.489	18.69
670.611	4.69
670.733	22.69
670.856	10.69
670.978	24.69
671.1	3.69
671.222	31.69
671.344	10.69
671.466	7.69
671.589	-3.31
671.711	19.69
671.833	-4.31
671.955	19.69
672.077	0.69
672.199	44.69
672.322	16.69
672.444	32.69
672.566	27.69
672.688	26.69
672.81	23.69
672.932	31.69
673.055	0.69
673.177	14.69
673.299	18.69
673.421	11.69
673.543	-3.31
673.665	25.69
673.788	23.69
673.91	14.69
674.032	1.69
674.154	20.69
674.276	7.69
674.399	-0.31
674.521	3.69
674.643	22.69
674.765	1.69
674.887	27.69
675.009	-1.31
675.132	-8.31
675.254	16.69
675.376	14.69
675.498	15.69
675.62	37.69
675.743	13.69
675.865	27.69
675.987	16.69
676.109	23.69
676.231	24.69
676.354	28.69
676.476	9.69
676.598	16.69
676.72	6.69
676.842	28.69
676.965	12.69
677.087	35.69
677.209	4.69
677.331	23.69
677.453	20.69
677.576	22.69
677.698	-13.31
677.82	6.69
677.942	7.69
678.064	21.69
678.187	2.69
678.309	21.69
678.431	6.69
678.553	22.69
678.675	28.69
678.798	42.69
678.92	10.69
679.042	18.69
679.164	-8.31
679.286	19.69
679.409	13.69
679.531	-3.31
679.653	8.69
679.775	10.69
679.898	1.69
680.02	-3.31
680.142	-8.31
680.264	16.69
680.386	15.69
680.509	18.69
680.631	22.69
680.753	8.69
680.875	-3.31
680.998	28.69
681.12	9.69
681.242	8.69
681.364	-15.31
681.486	10.69
681.609	-8.31
681.731	-8.31
681.853	-7.31
681.975	17.69
682.098	9.69
682.22	36.69
682.342	19.69
682.464	19.69
682.587	2.69
682.709	-11.31
682.831	-4.31
682.953	3.69
683.076	2.69
683.198	16.69
683.32	12.69
683.442	14.69
683.565	19.69
683.687	30.69
683.809	6.69
683.931	5.69
684.054	6.69
684.176	10.69
684.298	-8.31
684.42	-4.31
684.543	1.69
684.665	14.69
684.787	0.69
684.909	-0.31
685.032	9.69
685.154	5.69
685.276	5.69
685.398	-2.31
685.521	-11.31
685.643	26.69
685.765	25.69
685.887	22.69
686.01	2.69
686.132	30.69
686.254	18.69
686.377	32.69
686.499	8.69
686.621	8.69
686.743	3.69
686.866	11.69
686.988	30.69
687.11	19.69
687.232	2.69
687.355	9.69
687.477	-4.31
687.599	22.69
687.722	15.69
687.844	16.69
687.966	10.69
688.088	1.69
688.211	15.69
688.333	14.69
688.455	8.69
688.578	27.69
688.7	32.69
688.822	20.69
688.944	-3.31
689.067	60.69
689.189	7.69
689.311	3.69
689.434	16.69
689.556	35.69
689.678	20.69
689.801	-4.31
689.923	6.69
690.045	25.69
690.167	26.69
690.29	18.69
690.412	3.69
690.534	36.69
690.657	2.69
690.779	-6.31
690.901	8.69
691.024	9.69
691.146	6.69
691.268	2.69
691.391	27.69
691.513	22.69
691.635	31.69
691.758	35.69
691.88	33.69
692.002	20.69
692.125	10.69
692.247	2.69
692.369	-9.31
692.492	1.69
692.614	14.69
692.736	-3.31
692.859	-10.31
692.981	10.69
693.103	6.69
693.226	17.69
693.348	21.69
693.47	18.69
693.593	-2.31
693.715	-12.31
693.837	-1.31
693.96	7.69
694.082	3.69
694.204	1.69
694.327	15.69
694.449	7.69
694.571	2.69
694.694	7.69
694.816	9.69
694.938	3.69
695.061	2.69
695.183	18.69
695.305	2.69
695.428	-1.31
695.55	-21.31
695.672	-9.31
695.795	20.69
695.917	33.69
696.04	1.69
696.162	-1.31
696.284	10.69
696.407	15.69
696.529	6.69
696.651	34.69
696.774	-8.31
696.896	7.69
697.019	7.69
697.141	-7.31
697.263	-9.31
697.386	4.69
697.508	7.69
697.63	12.69
697.753	4.69
697.875	9.69
697.998	-9.31
698.12	12.69
698.242	13.69
698.365	-4.31
698.487	-5.31
698.61	0.69
698.732	21.69
698.854	10.69
698.977	3.69
699.099	26.69
699.221	1.69
699.344	-5.31
699.466	-4.31
699.589	4.69
699.711	2.69
699.834	12.69
699.956	5.69
700.078	3.69
700.201	-1.31
700.323	12.69
700.446	-0.31
700.568	10.69
700.69	2.69
700.813	14.69
700.935	0.69
701.058	3.69
701.18	2.69
701.302	10.69
701.425	10.69
701.547	11.69
701.67	-11.31
701.792	1.69
701.915	7.69
702.037	-7.31
702.159	6.69
702.282	2.69
702.404	-20.31
702.527	18.69
702.649	24.69
702.772	23.69
702.894	13.69
703.017	7.69
703.139	20.69
703.261	45.69
703.384	25.69
703.506	0.69
703.629	10.69
703.751	34.69
703.874	8.69
703.996	6.69
704.119	-1.31
704.241	23.69
704.364	2.69
704.486	10.69
704.608	-0.31
704.731	0.69
704.853	7.69
704.976	15.69
705.098	29.69
705.221	14.69
705.343	5.69
705.466	19.69
705.588	1.69
705.711	13.69
705.833	10.69
705.956	7.69
706.078	-6.31
706.201	4.69
706.323	8.69
706.446	5.69
