Data from LowRes_H2_15_26_11_07_2024_HR4C61881__55__15-28-19-137.txt Node

Date: Thu Nov 07 15:28:19 EST 2024
User: crc00042
Spectrometer: HR4C6188
Trigger mode: 4
Integration Time (sec): 1.000000E-1
Scans to average: 1
Electric dark correction enabled: true
Nonlinearity correction enabled: false
Boxcar width: 0
XAxis mode: Wavelengths
Number of Pixels in Spectrum: 3648
>>>>>Begin Spectral Data<<<<<
245.66	-115.31
245.797	-115.31
245.934	-115.31
246.071	-71.31
246.208	13.69
246.344	-9.31
246.481	-9.31
246.618	-20.31
246.755	12.69
246.892	-7.31
247.029	-5.31
247.165	-31.31
247.302	29.69
247.439	0.69
247.576	6.69
247.713	-8.31
247.849	36.69
247.986	4.69
248.123	7.69
248.26	-8.31
248.396	16.69
248.533	-7.31
248.67	-7.31
248.806	-12.31
248.943	-11.31
249.08	28.69
249.216	14.69
249.353	-15.31
249.49	2.69
249.626	12.69
249.763	-9.31
249.9	-15.31
250.036	-2.31
250.173	15.69
250.309	18.69
250.446	-5.31
250.582	-19.31
250.719	-14.31
250.856	7.69
250.992	-1.31
251.129	-0.31
251.265	-15.31
251.402	17.69
251.538	11.69
251.675	6.69
251.811	11.69
251.948	9.69
252.084	-3.31
252.221	7.69
252.357	-5.31
252.493	31.69
252.63	-3.31
252.766	18.69
252.903	-3.31
253.039	20.69
253.175	0.69
253.312	8.69
253.448	-11.31
253.585	-13.31
253.721	14.69
253.857	6.69
253.994	-2.31
254.13	19.69
254.266	25.69
254.403	23.69
254.539	20.69
254.675	23.69
254.811	14.69
254.948	10.69
255.084	9.69
255.22	-11.31
255.356	-7.31
255.493	19.69
255.629	4.69
255.765	18.69
255.901	17.69
256.037	23.69
256.174	10.69
256.31	-1.31
256.446	0.69
256.582	6.69
256.718	11.69
256.854	30.69
256.991	13.69
257.127	14.69
257.263	-3.31
257.399	-14.31
257.535	-12.31
257.671	-0.31
257.807	-17.31
257.943	-7.31
258.079	8.69
258.215	11.69
258.351	6.69
258.487	9.69
258.623	20.69
258.759	7.69
258.895	5.69
259.031	6.69
259.167	-11.31
259.303	23.69
259.439	3.69
259.575	-8.31
259.711	1.69
259.847	-4.31
259.983	19.69
260.119	3.69
260.255	20.69
260.391	13.69
260.527	6.69
260.663	30.69
260.799	12.69
260.934	4.69
261.07	5.69
261.206	8.69
261.342	-2.31
261.478	7.69
261.614	3.69
261.749	-5.31
261.885	-3.31
262.021	-7.31
262.157	22.69
262.293	-4.31
262.428	-6.31
262.564	12.69
262.7	3.69
262.836	-11.31
262.971	22.69
263.107	11.69
263.243	8.69
263.378	0.69
263.514	-20.31
263.65	-7.31
263.785	-22.31
263.921	-11.31
264.057	0.69
264.192	12.69
264.328	16.69
264.464	0.69
264.599	10.69
264.735	24.69
264.871	-0.31
265.006	21.69
265.142	-9.31
265.277	17.69
265.413	13.69
265.548	13.69
265.684	24.69
265.819	8.69
265.955	4.69
266.091	0.69
266.226	-12.31
266.362	4.69
266.497	18.69
266.633	2.69
266.768	14.69
266.903	21.69
267.039	5.69
267.174	25.69
267.31	-9.31
267.445	3.69
267.581	-3.31
267.716	26.69
267.851	14.69
267.987	20.69
268.122	19.69
268.258	-1.31
268.393	-1.31
268.528	-5.31
268.664	-16.31
268.799	-7.31
268.934	31.69
269.07	-1.31
269.205	8.69
269.34	22.69
269.476	16.69
269.611	-3.31
269.746	8.69
269.881	-4.31
270.017	26.69
270.152	-0.31
270.287	16.69
270.422	21.69
270.558	4.69
270.693	8.69
270.828	-5.31
270.963	-12.31
271.098	-5.31
271.234	9.69
271.369	24.69
271.504	2.69
271.639	-4.31
271.774	-1.31
271.909	-5.31
272.045	-17.31
272.18	-8.31
272.315	7.69
272.45	21.69
272.585	-9.31
272.72	16.69
272.855	-0.31
272.99	12.69
273.125	4.69
273.26	-17.31
273.395	1.69
273.53	1.69
273.665	13.69
273.8	2.69
273.935	2.69
274.07	2.69
274.205	10.69
274.34	3.69
274.475	7.69
274.61	16.69
274.745	-20.31
274.88	14.69
275.015	-4.31
275.15	6.69
275.285	10.69
275.42	8.69
275.555	28.69
275.69	22.69
275.825	-1.31
275.959	23.69
276.094	14.69
276.229	-5.31
276.364	-17.31
276.499	5.69
276.634	6.69
276.768	4.69
276.903	13.69
277.038	15.69
277.173	-1.31
277.308	5.69
277.442	-1.31
277.577	-15.31
277.712	13.69
277.847	10.69
277.981	2.69
278.116	-36.31
278.251	-0.31
278.386	-0.31
278.52	0.69
278.655	2.69
278.79	-4.31
278.924	1.69
279.059	20.69
279.194	-12.31
279.328	29.69
279.463	10.69
279.598	23.69
279.732	12.69
279.867	16.69
280.001	17.69
280.136	23.69
280.271	24.69
280.405	12.69
280.54	-4.31
280.674	-21.31
280.809	33.69
280.943	18.69
281.078	11.69
281.213	20.69
281.347	11.69
281.482	4.69
281.616	-22.31
281.751	3.69
281.885	5.69
282.02	12.69
282.154	14.69
282.288	-2.31
282.423	-10.31
282.557	-12.31
282.692	15.69
282.826	13.69
282.961	15.69
283.095	-1.31
283.229	2.69
283.364	-2.31
283.498	5.69
283.633	15.69
283.767	9.69
283.901	12.69
284.036	26.69
284.17	1.69
284.304	-7.31
284.439	7.69
284.573	-16.31
284.707	14.69
284.842	-5.31
284.976	-5.31
285.11	-13.31
285.244	17.69
285.379	54.69
285.513	-24.31
285.647	7.69
285.781	2.69
285.916	10.69
286.05	4.69
286.184	29.69
286.318	0.69
286.453	-1.31
286.587	-15.31
286.721	19.69
286.855	14.69
286.989	7.69
287.123	24.69
287.258	-12.31
287.392	15.69
287.526	20.69
287.66	27.69
287.794	-0.31
287.928	1.69
288.062	14.69
288.196	10.69
288.33	27.69
288.464	32.69
288.598	15.69
288.733	10.69
288.867	20.69
289.001	12.69
289.135	14.69
289.269	7.69
289.403	12.69
289.537	9.69
289.671	6.69
289.805	-17.31
289.939	5.69
290.073	2.69
290.207	18.69
290.34	-3.31
290.474	12.69
290.608	-4.31
290.742	1.69
290.876	-5.31
291.01	-3.31
291.144	23.69
291.278	11.69
291.412	2.69
291.546	-11.31
291.679	-2.31
291.813	9.69
291.947	3.69
292.081	-3.31
292.215	1.69
292.349	17.69
292.482	18.69
292.616	-2.31
292.75	8.69
292.884	8.69
293.018	7.69
293.151	-12.31
293.285	9.69
293.419	-2.31
293.553	1.69
293.686	-7.31
293.82	8.69
293.954	27.69
294.088	35.69
294.221	13.69
294.355	9.69
294.489	11.69
294.622	1.69
294.756	3.69
294.89	3.69
295.023	6.69
295.157	15.69
295.291	1.69
295.424	16.69
295.558	12.69
295.691	2.69
295.825	-19.31
295.959	-0.31
296.092	0.69
296.226	-3.31
296.359	36.69
296.493	3.69
296.627	18.69
296.76	6.69
296.894	0.69
297.027	0.69
297.161	2.69
297.294	-15.31
297.428	0.69
297.561	29.69
297.695	-11.31
297.828	-15.31
297.962	-3.31
298.095	-3.31
298.229	36.69
298.362	0.69
298.495	-4.31
298.629	-1.31
298.762	4.69
298.896	-4.31
299.029	-21.31
299.162	0.69
299.296	9.69
299.429	-5.31
299.563	6.69
299.696	28.69
299.829	0.69
299.963	22.69
300.096	18.69
300.229	2.69
300.363	10.69
300.496	20.69
300.629	-10.31
300.763	2.69
300.896	-7.31
301.029	6.69
301.162	17.69
301.296	-8.31
301.429	0.69
301.562	-7.31
301.695	2.69
301.829	13.69
301.962	14.69
302.095	13.69
302.228	-3.31
302.362	3.69
302.495	8.69
302.628	-1.31
302.761	17.69
302.894	-0.31
303.027	2.69
303.161	8.69
303.294	-12.31
303.427	15.69
303.56	-7.31
303.693	5.69
303.826	1.69
303.959	0.69
304.092	2.69
304.225	-7.31
304.359	13.69
304.492	24.69
304.625	3.69
304.758	6.69
304.891	-8.31
305.024	8.69
305.157	-6.31
305.29	-16.31
305.423	-9.31
305.556	3.69
305.689	11.69
305.822	-6.31
305.955	12.69
306.088	1.69
306.221	-2.31
306.354	18.69
306.487	-18.31
306.62	-0.31
306.752	14.69
306.885	15.69
307.018	8.69
307.151	11.69
307.284	19.69
307.417	-13.31
307.55	10.69
307.683	7.69
307.816	20.69
307.948	4.69
308.081	14.69
308.214	0.69
308.347	11.69
308.48	4.69
308.613	-6.31
308.745	16.69
308.878	-1.31
309.011	0.69
309.144	11.69
309.277	2.69
309.409	8.69
309.542	-5.31
309.675	-2.31
309.808	-3.31
309.94	27.69
310.073	-7.31
310.206	1.69
310.339	-2.31
310.471	-21.31
310.604	35.69
310.737	7.69
310.869	-15.31
311.002	10.69
311.135	13.69
311.267	-4.31
311.4	-0.31
311.533	15.69
311.665	-3.31
311.798	-1.31
311.93	-14.31
312.063	16.69
312.196	12.69
312.328	-6.31
312.461	4.69
312.593	14.69
312.726	21.69
312.859	1.69
312.991	24.69
313.124	-22.31
313.256	9.69
313.389	1.69
313.521	-0.31
313.654	-5.31
313.786	-13.31
313.919	-0.31
314.051	-6.31
314.184	0.69
314.316	3.69
314.449	-11.31
314.581	-11.31
314.714	3.69
314.846	12.69
314.978	-7.31
315.111	1.69
315.243	-3.31
315.376	7.69
315.508	-2.31
315.641	2.69
315.773	26.69
315.905	17.69
316.038	5.69
316.17	-5.31
316.302	11.69
316.435	11.69
316.567	4.69
316.699	13.69
316.832	6.69
316.964	-4.31
317.096	-4.31
317.229	-15.31
317.361	-19.31
317.493	-7.31
317.625	-13.31
317.758	8.69
317.89	12.69
318.022	14.69
318.155	-2.31
318.287	-1.31
318.419	2.69
318.551	1.69
318.683	-13.31
318.816	-17.31
318.948	-2.31
319.08	4.69
319.212	15.69
319.344	10.69
319.477	8.69
319.609	22.69
319.741	14.69
319.873	4.69
320.005	-13.31
320.137	-1.31
320.269	-9.31
320.401	-5.31
320.534	0.69
320.666	-0.31
320.798	-9.31
320.93	1.69
321.062	-8.31
321.194	-2.31
321.326	8.69
321.458	12.69
321.59	5.69
321.722	10.69
321.854	12.69
321.986	17.69
322.118	0.69
322.25	-27.31
322.382	6.69
322.514	-8.31
322.646	13.69
322.778	22.69
322.91	-6.31
323.042	-8.31
323.174	-3.31
323.306	-2.31
323.438	-11.31
323.57	8.69
323.702	-5.31
323.834	2.69
323.966	-15.31
324.097	16.69
324.229	4.69
324.361	14.69
324.493	13.69
324.625	-5.31
324.757	9.69
324.889	9.69
325.021	15.69
325.152	9.69
325.284	16.69
325.416	-3.31
325.548	20.69
325.68	8.69
325.811	10.69
325.943	10.69
326.075	-7.31
326.207	6.69
326.339	25.69
326.47	24.69
326.602	23.69
326.734	-2.31
326.866	17.69
326.997	-5.31
327.129	-8.31
327.261	-6.31
327.392	9.69
327.524	-0.31
327.656	2.69
327.787	27.69
327.919	10.69
328.051	1.69
328.182	13.69
328.314	19.69
328.446	-0.31
328.577	25.69
328.709	-12.31
328.841	-26.31
328.972	-9.31
329.104	-2.31
329.235	3.69
329.367	-8.31
329.499	12.69
329.63	14.69
329.762	22.69
329.893	20.69
330.025	2.69
330.156	-0.31
330.288	-7.31
330.419	4.69
330.551	27.69
330.683	20.69
330.814	15.69
330.946	-0.31
331.077	-3.31
331.208	5.69
331.34	6.69
331.471	5.69
331.603	19.69
331.734	-0.31
331.866	27.69
331.997	9.69
332.129	9.69
332.26	6.69
332.392	15.69
332.523	-7.31
332.654	-16.31
332.786	9.69
332.917	10.69
333.048	13.69
333.18	32.69
333.311	-7.31
333.443	3.69
333.574	-10.31
333.705	21.69
333.837	-6.31
333.968	-7.31
334.099	6.69
334.231	15.69
334.362	3.69
334.493	6.69
334.624	18.69
334.756	21.69
334.887	26.69
335.018	21.69
335.15	16.69
335.281	3.69
335.412	12.69
335.543	9.69
335.675	0.69
335.806	1.69
335.937	-7.31
336.068	11.69
336.199	35.69
336.331	12.69
336.462	11.69
336.593	26.69
336.724	-6.31
336.855	-3.31
336.986	21.69
337.118	8.69
337.249	12.69
337.38	12.69
337.511	6.69
337.642	14.69
337.773	16.69
337.904	8.69
338.035	15.69
338.166	-0.31
338.298	-4.31
338.429	-3.31
338.56	20.69
338.691	3.69
338.822	14.69
338.953	21.69
339.084	28.69
339.215	20.69
339.346	-6.31
339.477	-0.31
339.608	11.69
339.739	4.69
339.87	-1.31
340.001	2.69
340.132	13.69
340.263	13.69
340.394	3.69
340.525	-1.31
340.656	-7.31
340.787	-15.31
340.918	34.69
341.049	24.69
341.179	10.69
341.31	7.69
341.441	12.69
341.572	17.69
341.703	23.69
341.834	-1.31
341.965	7.69
342.096	4.69
342.227	1.69
342.357	4.69
342.488	22.69
342.619	20.69
342.75	11.69
342.881	-0.31
343.012	18.69
343.142	23.69
343.273	-5.31
343.404	12.69
343.535	29.69
343.666	27.69
343.796	-6.31
343.927	10.69
344.058	2.69
344.189	8.69
344.319	0.69
344.45	7.69
344.581	9.69
344.712	-21.31
344.842	6.69
344.973	5.69
345.104	8.69
345.234	-8.31
345.365	6.69
345.496	2.69
345.626	-0.31
345.757	14.69
345.888	-1.31
346.018	22.69
346.149	13.69
346.28	20.69
346.41	-17.31
346.541	27.69
346.672	2.69
346.802	13.69
346.933	12.69
347.063	12.69
347.194	12.69
347.325	22.69
347.455	12.69
347.586	23.69
347.716	-3.31
347.847	8.69
347.977	7.69
348.108	13.69
348.238	14.69
348.369	-0.31
348.499	33.69
348.63	16.69
348.76	16.69
348.891	-11.31
349.021	7.69
349.152	-5.31
349.282	29.69
349.413	8.69
349.543	8.69
349.674	0.69
349.804	9.69
349.935	-10.31
350.065	-0.31
350.196	1.69
350.326	6.69
350.456	14.69
350.587	10.69
350.717	10.69
350.848	23.69
350.978	22.69
351.108	-12.31
351.239	27.69
351.369	-2.31
351.499	4.69
351.63	11.69
351.76	24.69
351.89	10.69
352.021	24.69
352.151	12.69
352.281	12.69
352.412	14.69
352.542	6.69
352.672	13.69
352.803	28.69
352.933	15.69
353.063	0.69
353.193	29.69
353.324	6.69
353.454	9.69
353.584	15.69
353.714	10.69
353.845	9.69
353.975	3.69
354.105	-0.31
354.235	5.69
354.365	1.69
354.496	4.69
354.626	18.69
354.756	33.69
354.886	11.69
355.016	12.69
355.146	-2.31
355.277	7.69
355.407	20.69
355.537	4.69
355.667	14.69
355.797	23.69
355.927	8.69
356.057	-6.31
356.187	-9.31
356.318	-3.31
356.448	-7.31
356.578	18.69
356.708	12.69
356.838	7.69
356.968	10.69
357.098	8.69
357.228	3.69
357.358	-7.31
357.488	4.69
357.618	35.69
357.748	35.69
357.878	4.69
358.008	23.69
358.138	9.69
358.268	-10.31
358.398	-2.31
358.528	-6.31
358.658	20.69
358.788	11.69
358.918	24.69
359.048	16.69
359.178	5.69
359.308	18.69
359.438	26.69
359.568	8.69
359.698	12.69
359.827	20.69
359.957	8.69
360.087	0.69
360.217	2.69
360.347	9.69
360.477	27.69
360.607	10.69
360.737	42.69
360.866	6.69
360.996	-0.31
361.126	2.69
361.256	23.69
361.386	14.69
361.516	39.69
361.645	-10.31
361.775	5.69
361.905	-5.31
362.035	14.69
362.165	8.69
362.294	11.69
362.424	20.69
362.554	12.69
362.684	12.69
362.813	16.69
362.943	25.69
363.073	14.69
363.203	25.69
363.332	22.69
363.462	-5.31
363.592	-0.31
363.721	-13.31
363.851	17.69
363.981	26.69
364.111	12.69
364.24	-7.31
364.37	12.69
364.5	8.69
364.629	11.69
364.759	-19.31
364.888	-4.31
365.018	4.69
365.148	19.69
365.277	5.69
365.407	7.69
365.537	7.69
365.666	3.69
365.796	-4.31
365.925	-12.31
366.055	19.69
366.184	12.69
366.314	4.69
366.444	19.69
366.573	1.69
366.703	-8.31
366.832	21.69
366.962	4.69
367.091	20.69
367.221	14.69
367.35	21.69
367.48	27.69
367.609	26.69
367.739	11.69
367.868	-7.31
367.998	6.69
368.127	26.69
368.257	22.69
368.386	31.69
368.516	28.69
368.645	9.69
368.775	12.69
368.904	6.69
369.033	0.69
369.163	0.69
369.292	2.69
369.422	-1.31
369.551	20.69
369.68	8.69
369.81	20.69
369.939	0.69
370.069	34.69
370.198	18.69
370.327	2.69
370.457	2.69
370.586	16.69
370.715	-3.31
370.845	4.69
370.974	8.69
371.103	21.69
371.233	11.69
371.362	14.69
371.491	-16.31
371.621	18.69
371.75	7.69
371.879	-5.31
372.008	27.69
372.138	2.69
372.267	17.69
372.396	13.69
372.525	9.69
372.655	15.69
372.784	0.69
372.913	11.69
373.042	14.69
373.172	2.69
373.301	-11.31
373.43	2.69
373.559	13.69
373.688	16.69
373.818	25.69
373.947	40.69
374.076	11.69
374.205	22.69
374.334	7.69
374.463	-2.31
374.593	26.69
374.722	25.69
374.851	22.69
374.98	-5.31
375.109	15.69
375.238	24.69
375.367	38.69
375.496	2.69
375.625	2.69
375.755	20.69
375.884	31.69
376.013	12.69
376.142	-8.31
376.271	1.69
376.4	12.69
376.529	-13.31
376.658	18.69
376.787	11.69
376.916	12.69
377.045	16.69
377.174	-3.31
377.303	-1.31
377.432	24.69
377.561	22.69
377.69	3.69
377.819	15.69
377.948	8.69
378.077	-3.31
378.206	3.69
378.335	-2.31
378.464	2.69
378.593	24.69
378.722	-8.31
378.851	-4.31
378.98	18.69
379.108	-19.31
379.237	-21.31
379.366	-2.31
379.495	14.69
379.624	-1.31
379.753	26.69
379.882	13.69
380.011	18.69
380.14	2.69
380.268	0.69
380.397	-16.31
380.526	16.69
380.655	11.69
380.784	-15.31
380.913	-8.31
381.041	12.69
381.17	-7.31
381.299	10.69
381.428	17.69
381.557	6.69
381.685	11.69
381.814	23.69
381.943	20.69
382.072	-4.31
382.2	-0.31
382.329	4.69
382.458	14.69
382.587	7.69
382.715	16.69
382.844	7.69
382.973	16.69
383.102	5.69
383.23	1.69
383.359	-3.31
383.488	11.69
383.616	3.69
383.745	-7.31
383.874	1.69
384.003	14.69
384.131	-3.31
384.26	5.69
384.389	9.69
384.517	0.69
384.646	-15.31
384.774	13.69
384.903	24.69
385.032	16.69
385.16	8.69
385.289	-2.31
385.418	10.69
385.546	16.69
385.675	28.69
385.803	21.69
385.932	24.69
386.06	-7.31
386.189	14.69
386.318	12.69
386.446	2.69
386.575	16.69
386.703	14.69
386.832	2.69
386.96	-8.31
387.089	21.69
387.217	4.69
387.346	3.69
387.474	30.69
387.603	27.69
387.731	10.69
387.86	16.69
387.988	3.69
388.117	15.69
388.245	-0.31
388.374	-11.31
388.502	14.69
388.631	-13.31
388.759	-5.31
388.888	-6.31
389.016	-15.31
389.144	6.69
389.273	12.69
389.401	0.69
389.53	-6.31
389.658	17.69
389.786	-15.31
389.915	1.69
390.043	0.69
390.172	24.69
390.3	27.69
390.428	10.69
390.557	2.69
390.685	12.69
390.813	54.69
390.942	20.69
391.07	2.69
391.198	0.69
391.327	12.69
391.455	-7.31
391.583	21.69
391.712	8.69
391.84	6.69
391.968	-6.31
392.096	1.69
392.225	13.69
392.353	35.69
392.481	9.69
392.609	14.69
392.738	-5.31
392.866	-4.31
392.994	-9.31
393.122	32.69
393.251	-3.31
393.379	-5.31
393.507	-3.31
393.635	14.69
393.764	14.69
393.892	13.69
394.02	-3.31
394.148	-8.31
394.276	8.69
394.404	31.69
394.533	6.69
394.661	24.69
394.789	14.69
394.917	35.69
395.045	8.69
395.173	-6.31
395.302	-7.31
395.43	-1.31
395.558	17.69
395.686	15.69
395.814	22.69
395.942	-1.31
396.07	15.69
396.198	14.69
396.326	11.69
396.454	18.69
396.582	14.69
396.711	7.69
396.839	17.69
396.967	17.69
397.095	2.69
397.223	19.69
397.351	16.69
397.479	24.69
397.607	7.69
397.735	12.69
397.863	12.69
397.991	35.69
398.119	6.69
398.247	16.69
398.375	-1.31
398.503	19.69
398.631	10.69
398.759	12.69
398.887	-5.31
399.015	-3.31
399.143	6.69
399.271	-9.31
399.399	25.69
399.526	37.69
399.654	22.69
399.782	16.69
399.91	14.69
400.038	3.69
400.166	13.69
400.294	16.69
400.422	2.69
400.55	15.69
400.678	17.69
400.805	3.69
400.933	16.69
401.061	23.69
401.189	11.69
401.317	34.69
401.445	30.69
401.573	12.69
401.7	14.69
401.828	17.69
401.956	-6.31
402.084	12.69
402.212	10.69
402.34	4.69
402.467	10.69
402.595	0.69
402.723	8.69
402.851	16.69
402.978	-0.31
403.106	11.69
403.234	0.69
403.362	35.69
403.489	11.69
403.617	15.69
403.745	12.69
403.873	-10.31
404	15.69
404.128	10.69
404.256	30.69
404.384	29.69
404.511	19.69
404.639	4.69
404.767	-4.31
404.894	9.69
405.022	4.69
405.15	8.69
405.277	-5.31
405.405	7.69
405.533	6.69
405.66	-0.31
405.788	-5.31
405.916	-8.31
406.043	4.69
406.171	5.69
406.299	1.69
406.426	9.69
406.554	11.69
406.681	38.69
406.809	19.69
406.937	5.69
407.064	11.69
407.192	25.69
407.319	16.69
407.447	3.69
407.574	14.69
407.702	4.69
407.83	1.69
407.957	-4.31
408.085	26.69
408.212	28.69
408.34	4.69
408.467	7.69
408.595	21.69
408.722	16.69
408.85	21.69
408.977	11.69
409.105	10.69
409.232	15.69
409.36	3.69
409.487	10.69
409.615	21.69
409.742	17.69
409.87	25.69
409.997	38.69
410.125	40.69
410.252	58.69
410.379	47.69
410.507	37.69
410.634	14.69
410.762	15.69
410.889	26.69
411.017	13.69
411.144	14.69
411.271	20.69
411.399	20.69
411.526	7.69
411.653	28.69
411.781	43.69
411.908	31.69
412.036	7.69
412.163	28.69
412.29	16.69
412.418	11.69
412.545	14.69
412.672	0.69
412.8	37.69
412.927	4.69
413.054	31.69
413.182	18.69
413.309	13.69
413.436	-6.31
413.564	-2.31
413.691	-2.31
413.818	40.69
413.945	-8.31
414.073	-13.31
414.2	20.69
414.327	18.69
414.454	21.69
414.582	8.69
414.709	-2.31
414.836	7.69
414.963	10.69
415.091	-7.31
415.218	9.69
415.345	-4.31
415.472	5.69
415.6	-9.31
415.727	12.69
415.854	3.69
415.981	1.69
416.108	3.69
416.236	12.69
416.363	22.69
416.49	0.69
416.617	10.69
416.744	14.69
416.871	13.69
416.998	19.69
417.126	15.69
417.253	8.69
417.38	12.69
417.507	12.69
417.634	0.69
417.761	30.69
417.888	12.69
418.015	3.69
418.143	17.69
418.27	30.69
418.397	6.69
418.524	2.69
418.651	0.69
418.778	4.69
418.905	24.69
419.032	13.69
419.159	2.69
419.286	38.69
419.413	23.69
419.54	21.69
419.667	7.69
419.794	-5.31
419.921	-1.31
420.048	16.69
420.175	5.69
420.302	-4.31
420.429	25.69
420.556	4.69
420.683	-11.31
420.81	13.69
420.937	1.69
421.064	21.69
421.191	14.69
421.318	14.69
421.445	28.69
421.572	7.69
421.699	31.69
421.826	14.69
421.953	11.69
422.08	-4.31
422.207	-6.31
422.334	-5.31
422.461	16.69
422.588	-0.31
422.714	8.69
422.841	25.69
422.968	30.69
423.095	-0.31
423.222	14.69
423.349	-0.31
423.476	17.69
423.603	-14.31
423.729	-0.31
423.856	5.69
423.983	23.69
424.11	3.69
424.237	16.69
424.364	12.69
424.491	7.69
424.617	0.69
424.744	9.69
424.871	-1.31
424.998	13.69
425.125	-3.31
425.251	12.69
425.378	-11.31
425.505	4.69
425.632	18.69
425.758	-9.31
425.885	-7.31
426.012	29.69
426.139	33.69
426.266	15.69
426.392	8.69
426.519	16.69
426.646	5.69
426.772	38.69
426.899	12.69
427.026	10.69
427.153	5.69
427.279	32.69
427.406	2.69
427.533	-9.31
427.659	1.69
427.786	11.69
427.913	21.69
428.039	-1.31
428.166	-9.31
428.293	-3.31
428.419	25.69
428.546	10.69
428.673	-7.31
428.799	-14.31
428.926	4.69
429.053	29.69
429.179	27.69
429.306	17.69
429.433	27.69
429.559	17.69
429.686	-1.31
429.812	1.69
429.939	-18.31
430.066	0.69
430.192	-12.31
430.319	16.69
430.445	11.69
430.572	23.69
430.699	-3.31
430.825	5.69
430.952	6.69
431.078	17.69
431.205	18.69
431.331	19.69
431.458	24.69
431.584	17.69
431.711	12.69
431.837	27.69
431.964	-0.31
432.09	34.69
432.217	-14.31
432.343	0.69
432.47	12.69
432.596	23.69
432.723	-5.31
432.849	4.69
432.976	18.69
433.102	10.69
433.229	15.69
433.355	38.69
433.482	91.69
433.608	160.69
433.735	139.69
433.861	121.69
433.987	147.69
434.114	242.69
434.24	194.69
434.367	65.69
434.493	26.69
434.62	16.69
434.746	18.69
434.872	18.69
434.999	22.69
435.125	24.69
435.252	14.69
435.378	16.69
435.504	13.69
435.631	28.69
435.757	10.69
435.883	20.69
436.01	18.69
436.136	6.69
436.262	14.69
436.389	8.69
436.515	22.69
436.641	21.69
436.768	6.69
436.894	11.69
437.02	0.69
437.147	22.69
437.273	26.69
437.399	2.69
437.526	27.69
437.652	-3.31
437.778	29.69
437.904	21.69
438.031	4.69
438.157	21.69
438.283	8.69
438.409	-15.31
438.536	-8.31
438.662	20.69
438.788	11.69
438.914	22.69
439.041	19.69
439.167	18.69
439.293	-4.31
439.419	3.69
439.546	20.69
439.672	4.69
439.798	18.69
439.924	24.69
440.05	41.69
440.177	33.69
440.303	7.69
440.429	16.69
440.555	26.69
440.681	21.69
440.807	23.69
440.934	15.69
441.06	18.69
441.186	15.69
441.312	12.69
441.438	35.69
441.564	30.69
441.69	29.69
441.816	31.69
441.943	-5.31
442.069	11.69
442.195	5.69
442.321	43.69
442.447	1.69
442.573	15.69
442.699	-5.31
442.825	1.69
442.951	28.69
443.077	27.69
443.203	31.69
443.33	34.69
443.456	-1.31
443.582	4.69
443.708	24.69
443.834	15.69
443.96	20.69
444.086	9.69
444.212	36.69
444.338	8.69
444.464	22.69
444.59	25.69
444.716	23.69
444.842	8.69
444.968	0.69
445.094	12.69
445.22	12.69
445.346	-1.31
445.472	2.69
445.598	7.69
445.724	3.69
445.85	10.69
445.976	15.69
446.102	27.69
446.228	26.69
446.354	4.69
446.48	16.69
446.605	19.69
446.731	24.69
446.857	-2.31
446.983	17.69
447.109	0.69
447.235	8.69
447.361	-5.31
447.487	8.69
447.613	8.69
447.739	-2.31
447.865	-1.31
447.99	11.69
448.116	25.69
448.242	5.69
448.368	15.69
448.494	0.69
448.62	11.69
448.746	13.69
448.872	-1.31
448.997	4.69
449.123	3.69
449.249	36.69
449.375	34.69
449.501	15.69
449.627	7.69
449.752	46.69
449.878	24.69
450.004	-5.31
450.13	4.69
450.256	23.69
450.381	2.69
450.507	1.69
450.633	30.69
450.759	47.69
450.884	21.69
451.01	27.69
451.136	1.69
451.262	32.69
451.388	12.69
451.513	2.69
451.639	1.69
451.765	20.69
451.89	22.69
452.016	21.69
452.142	21.69
452.268	1.69
452.393	14.69
452.519	6.69
452.645	24.69
452.771	18.69
452.896	2.69
453.022	-1.31
453.148	18.69
453.273	27.69
453.399	2.69
453.525	0.69
453.65	14.69
453.776	31.69
453.902	15.69
454.027	30.69
454.153	49.69
454.279	37.69
454.404	-4.31
454.53	32.69
454.656	42.69
454.781	13.69
454.907	7.69
455.032	11.69
455.158	32.69
455.284	32.69
455.409	24.69
455.535	19.69
455.66	24.69
455.786	21.69
455.912	18.69
456.037	4.69
456.163	29.69
456.288	15.69
456.414	-11.31
456.539	-19.31
456.665	19.69
456.791	18.69
456.916	2.69
457.042	28.69
457.167	4.69
457.293	19.69
457.418	8.69
457.544	19.69
457.669	7.69
457.795	15.69
457.92	28.69
458.046	25.69
458.171	28.69
458.297	10.69
458.422	9.69
458.548	-1.31
458.673	5.69
458.799	23.69
458.924	-13.31
459.05	-0.31
459.175	1.69
459.301	12.69
459.426	9.69
459.552	16.69
459.677	8.69
459.803	18.69
459.928	20.69
460.053	13.69
460.179	-2.31
460.304	14.69
460.43	-7.31
460.555	17.69
460.681	-1.31
460.806	30.69
460.931	13.69
461.057	13.69
461.182	17.69
461.308	17.69
461.433	26.69
461.558	-5.31
461.684	9.69
461.809	11.69
461.934	-8.31
462.06	15.69
462.185	22.69
462.311	17.69
462.436	17.69
462.561	14.69
462.687	22.69
462.812	12.69
462.937	-1.31
463.063	-10.31
463.188	4.69
463.313	16.69
463.439	17.69
463.564	8.69
463.689	5.69
463.814	4.69
463.94	23.69
464.065	29.69
464.19	23.69
464.316	-3.31
464.441	1.69
464.566	18.69
464.692	-7.31
464.817	15.69
464.942	12.69
465.067	8.69
465.193	-5.31
465.318	-3.31
465.443	9.69
465.568	27.69
465.694	3.69
465.819	23.69
465.944	8.69
466.069	15.69
466.194	10.69
466.32	26.69
466.445	10.69
466.57	-1.31
466.695	3.69
466.82	19.69
466.946	14.69
467.071	1.69
467.196	-0.31
467.321	9.69
467.446	9.69
467.572	19.69
467.697	-3.31
467.822	16.69
467.947	9.69
468.072	2.69
468.197	-1.31
468.323	10.69
468.448	-0.31
468.573	14.69
468.698	9.69
468.823	18.69
468.948	16.69
469.073	8.69
469.198	15.69
469.324	22.69
469.449	6.69
469.574	39.69
469.699	34.69
469.824	25.69
469.949	4.69
470.074	-8.31
470.199	30.69
470.324	21.69
470.449	19.69
470.574	16.69
470.7	8.69
470.825	8.69
470.95	33.69
471.075	3.69
471.2	11.69
471.325	12.69
471.45	9.69
471.575	7.69
471.7	21.69
471.825	4.69
471.95	22.69
472.075	18.69
472.2	12.69
472.325	1.69
472.45	2.69
472.575	17.69
472.7	3.69
472.825	30.69
472.95	20.69
473.075	10.69
473.2	3.69
473.325	4.69
473.45	-5.31
473.575	2.69
473.7	3.69
473.825	5.69
473.95	23.69
474.075	33.69
474.2	13.69
474.325	7.69
474.45	20.69
474.574	14.69
474.699	23.69
474.824	23.69
474.949	-8.31
475.074	-3.31
475.199	21.69
475.324	30.69
475.449	24.69
475.574	29.69
475.699	18.69
475.824	13.69
475.949	11.69
476.073	10.69
476.198	12.69
476.323	15.69
476.448	23.69
476.573	24.69
476.698	22.69
476.823	8.69
476.947	24.69
477.072	26.69
477.197	16.69
477.322	8.69
477.447	-11.31
477.572	16.69
477.697	3.69
477.821	26.69
477.946	17.69
478.071	18.69
478.196	14.69
478.321	14.69
478.445	23.69
478.57	3.69
478.695	10.69
478.82	29.69
478.945	19.69
479.069	2.69
479.194	-16.31
479.319	17.69
479.444	18.69
479.569	12.69
479.693	22.69
479.818	24.69
479.943	43.69
480.068	33.69
480.192	27.69
480.317	25.69
480.442	25.69
480.567	1.69
480.691	22.69
480.816	0.69
480.941	21.69
481.066	34.69
481.19	30.69
481.315	18.69
481.44	0.69
481.564	6.69
481.689	24.69
481.814	26.69
481.938	24.69
482.063	15.69
482.188	38.69
482.313	47.69
482.437	15.69
482.562	32.69
482.687	33.69
482.811	17.69
482.936	28.69
483.061	45.69
483.185	21.69
483.31	48.69
483.435	31.69
483.559	23.69
483.684	15.69
483.808	28.69
483.933	24.69
484.058	14.69
484.182	3.69
484.307	7.69
484.432	24.69
484.556	14.69
484.681	21.69
484.805	28.69
484.93	23.69
485.055	37.69
485.179	90.69
485.304	127.69
485.428	365.69
485.553	1266.69
485.678	1734.69
485.802	1604.69
485.927	1779.69
486.051	2653.69
486.176	1601.69
486.3	446.69
486.425	154.69
486.549	75.69
486.674	61.69
486.799	38.69
486.923	31.69
487.048	18.69
487.172	27.69
487.297	27.69
487.421	23.69
487.546	9.69
487.67	24.69
487.795	22.69
487.919	35.69
488.044	38.69
488.168	24.69
488.293	19.69
488.417	2.69
488.542	24.69
488.666	19.69
488.791	42.69
488.915	19.69
489.04	8.69
489.164	35.69
489.289	41.69
489.413	7.69
489.538	14.69
489.662	37.69
489.786	20.69
489.911	16.69
490.035	6.69
490.16	17.69
490.284	6.69
490.409	0.69
490.533	-8.31
490.658	45.69
490.782	18.69
490.906	36.69
491.031	32.69
491.155	39.69
491.28	34.69
491.404	13.69
491.528	18.69
491.653	26.69
491.777	34.69
491.902	7.69
492.026	31.69
492.15	25.69
492.275	30.69
492.399	27.69
492.524	31.69
492.648	28.69
492.772	39.69
492.897	36.69
493.021	14.69
493.145	30.69
493.27	24.69
493.394	19.69
493.518	16.69
493.643	12.69
493.767	36.69
493.891	12.69
494.016	20.69
494.14	16.69
494.264	40.69
494.389	28.69
494.513	2.69
494.637	12.69
494.762	22.69
494.886	21.69
495.01	37.69
495.134	28.69
495.259	24.69
495.383	20.69
495.507	22.69
495.632	26.69
495.756	37.69
495.88	15.69
496.004	11.69
496.129	20.69
496.253	27.69
496.377	25.69
496.501	34.69
496.626	6.69
496.75	31.69
496.874	31.69
496.998	0.69
497.123	30.69
497.247	7.69
497.371	20.69
497.495	25.69
497.62	20.69
497.744	0.69
497.868	8.69
497.992	18.69
498.116	10.69
498.241	28.69
498.365	9.69
498.489	1.69
498.613	29.69
498.737	27.69
498.862	21.69
498.986	-2.31
499.11	16.69
499.234	35.69
499.358	13.69
499.482	34.69
499.607	27.69
499.731	8.69
499.855	40.69
499.979	29.69
500.103	12.69
500.227	31.69
500.351	20.69
500.476	27.69
500.6	16.69
500.724	39.69
500.848	-4.31
500.972	19.69
501.096	37.69
501.22	35.69
501.344	30.69
501.469	18.69
501.593	22.69
501.717	19.69
501.841	-1.31
501.965	4.69
502.089	9.69
502.213	33.69
502.337	12.69
502.461	14.69
502.585	1.69
502.709	18.69
502.834	16.69
502.958	16.69
503.082	6.69
503.206	27.69
503.33	30.69
503.454	30.69
503.578	40.69
503.702	26.69
503.826	17.69
503.95	23.69
504.074	14.69
504.198	23.69
504.322	-8.31
504.446	5.69
504.57	21.69
504.694	-3.31
504.818	8.69
504.942	36.69
505.066	14.69
505.19	11.69
505.314	18.69
505.438	23.69
505.562	5.69
505.686	19.69
505.81	23.69
505.934	21.69
506.058	22.69
506.182	34.69
506.306	27.69
506.43	9.69
506.554	15.69
506.678	-1.31
506.802	3.69
506.926	16.69
507.05	23.69
507.174	15.69
507.298	21.69
507.422	14.69
507.546	10.69
507.67	30.69
507.794	6.69
507.918	13.69
508.042	22.69
508.165	16.69
508.289	-3.31
508.413	7.69
508.537	7.69
508.661	8.69
508.785	11.69
508.909	22.69
509.033	7.69
509.157	11.69
509.281	30.69
509.405	18.69
509.528	39.69
509.652	32.69
509.776	22.69
509.9	11.69
510.024	19.69
510.148	18.69
510.272	32.69
510.396	25.69
510.519	11.69
510.643	28.69
510.767	10.69
510.891	22.69
511.015	23.69
511.139	10.69
511.263	44.69
511.386	12.69
511.51	10.69
511.634	17.69
511.758	32.69
511.882	-1.31
512.006	14.69
512.129	14.69
512.253	40.69
512.377	13.69
512.501	34.69
512.625	13.69
512.748	15.69
512.872	24.69
512.996	15.69
513.12	18.69
513.244	20.69
513.367	33.69
513.491	4.69
513.615	-7.31
513.739	13.69
513.862	14.69
513.986	17.69
514.11	28.69
514.234	11.69
514.358	23.69
514.481	39.69
514.605	26.69
514.729	27.69
514.853	27.69
514.976	11.69
515.1	15.69
515.224	37.69
515.348	5.69
515.471	6.69
515.595	24.69
515.719	2.69
515.842	22.69
515.966	28.69
516.09	58.69
516.214	9.69
516.337	35.69
516.461	21.69
516.585	28.69
516.708	23.69
516.832	29.69
516.956	16.69
517.08	26.69
517.203	28.69
517.327	18.69
517.451	50.69
517.574	28.69
517.698	18.69
517.822	28.69
517.945	31.69
518.069	10.69
518.193	29.69
518.316	29.69
518.44	29.69
518.564	29.69
518.687	30.69
518.811	37.69
518.935	74.69
519.058	37.69
519.182	41.69
519.306	31.69
519.429	27.69
519.553	71.69
519.676	31.69
519.8	12.69
519.924	2.69
520.047	30.69
520.171	15.69
520.294	9.69
520.418	10.69
520.542	15.69
520.665	33.69
520.789	32.69
520.913	3.69
521.036	15.69
521.16	0.69
521.283	11.69
521.407	27.69
521.53	16.69
521.654	13.69
521.778	24.69
521.901	24.69
522.025	24.69
522.148	20.69
522.272	24.69
522.395	21.69
522.519	24.69
522.643	4.69
522.766	-0.31
522.89	4.69
523.013	23.69
523.137	6.69
523.26	15.69
523.384	15.69
523.507	11.69
523.631	-0.31
523.754	16.69
523.878	10.69
524.002	22.69
524.125	3.69
524.249	2.69
524.372	38.69
524.496	37.69
524.619	18.69
524.743	19.69
524.866	-5.31
524.99	9.69
525.113	1.69
525.237	18.69
525.36	11.69
525.484	9.69
525.607	20.69
525.731	-15.31
525.854	19.69
525.978	41.69
526.101	11.69
526.224	13.69
526.348	16.69
526.471	26.69
526.595	13.69
526.718	20.69
526.842	12.69
526.965	40.69
527.089	19.69
527.212	24.69
527.336	-0.31
527.459	26.69
527.582	15.69
527.706	14.69
527.829	20.69
527.953	21.69
528.076	-7.31
528.2	0.69
528.323	13.69
528.446	39.69
528.57	17.69
528.693	23.69
528.817	7.69
528.94	20.69
529.064	36.69
529.187	20.69
529.31	7.69
529.434	10.69
529.557	22.69
529.68	22.69
529.804	2.69
529.927	22.69
530.051	-2.31
530.174	6.69
530.297	20.69
530.421	13.69
530.544	22.69
530.668	25.69
530.791	7.69
530.914	20.69
531.038	11.69
531.161	4.69
531.284	24.69
531.408	17.69
531.531	-6.31
531.654	-0.31
531.778	23.69
531.901	-3.31
532.024	10.69
532.148	10.69
532.271	26.69
532.394	16.69
532.518	27.69
532.641	27.69
532.764	36.69
532.888	31.69
533.011	10.69
533.134	2.69
533.258	31.69
533.381	3.69
533.504	1.69
533.628	2.69
533.751	13.69
533.874	11.69
533.997	14.69
534.121	6.69
534.244	16.69
534.367	15.69
534.491	12.69
534.614	12.69
534.737	15.69
534.86	23.69
534.984	3.69
535.107	20.69
535.23	15.69
535.354	21.69
535.477	6.69
535.6	18.69
535.723	6.69
535.847	0.69
535.97	-5.31
536.093	18.69
536.216	5.69
536.34	6.69
536.463	5.69
536.586	10.69
536.709	14.69
536.833	24.69
536.956	5.69
537.079	-2.31
537.202	24.69
537.325	10.69
537.449	-3.31
537.572	26.69
537.695	2.69
537.818	12.69
537.941	10.69
538.065	11.69
538.188	-5.31
538.311	22.69
538.434	20.69
538.558	2.69
538.681	19.69
538.804	28.69
538.927	25.69
539.05	29.69
539.173	16.69
539.297	11.69
539.42	10.69
539.543	11.69
539.666	25.69
539.789	20.69
539.913	18.69
540.036	18.69
540.159	13.69
540.282	3.69
540.405	2.69
540.528	2.69
540.651	18.69
540.775	25.69
540.898	28.69
541.021	6.69
541.144	6.69
541.267	18.69
541.39	9.69
541.513	23.69
541.637	6.69
541.76	12.69
541.883	16.69
542.006	20.69
542.129	32.69
542.252	14.69
542.375	19.69
542.498	17.69
542.622	16.69
542.745	13.69
542.868	11.69
542.991	21.69
543.114	47.69
543.237	26.69
543.36	22.69
543.483	13.69
543.606	33.69
543.73	52.69
543.853	29.69
543.976	-5.31
544.099	0.69
544.222	28.69
544.345	-0.31
544.468	17.69
544.591	25.69
544.714	30.69
544.837	25.69
544.96	32.69
545.083	26.69
545.206	21.69
545.329	33.69
545.453	13.69
545.576	6.69
545.699	2.69
545.822	6.69
545.945	9.69
546.068	14.69
546.191	9.69
546.314	23.69
546.437	27.69
546.56	30.69
546.683	11.69
546.806	3.69
546.929	15.69
547.052	5.69
547.175	-0.31
547.298	21.69
547.421	7.69
547.544	-4.31
547.667	17.69
547.79	18.69
547.913	2.69
548.036	-5.31
548.159	30.69
548.282	19.69
548.405	5.69
548.528	23.69
548.651	-0.31
548.774	11.69
548.897	10.69
549.02	34.69
549.143	38.69
549.266	24.69
549.389	28.69
549.512	3.69
549.635	42.69
549.758	32.69
549.881	1.69
550.004	10.69
550.127	9.69
550.25	-2.31
550.373	4.69
550.496	21.69
550.619	12.69
550.742	4.69
550.865	-4.31
550.988	20.69
551.111	16.69
551.234	25.69
551.356	19.69
551.479	3.69
551.602	17.69
551.725	25.69
551.848	24.69
551.971	37.69
552.094	11.69
552.217	24.69
552.34	-13.31
552.463	-3.31
552.586	10.69
552.709	-9.31
552.832	9.69
552.955	21.69
553.077	35.69
553.2	28.69
553.323	14.69
553.446	-1.31
553.569	15.69
553.692	6.69
553.815	1.69
553.938	24.69
554.061	20.69
554.184	16.69
554.306	31.69
554.429	13.69
554.552	12.69
554.675	-1.31
554.798	3.69
554.921	7.69
555.044	6.69
555.167	-8.31
555.29	11.69
555.412	9.69
555.535	12.69
555.658	7.69
555.781	20.69
555.904	22.69
556.027	26.69
556.15	24.69
556.272	17.69
556.395	12.69
556.518	14.69
556.641	12.69
556.764	25.69
556.887	22.69
557.01	5.69
557.132	-3.31
557.255	8.69
557.378	29.69
557.501	16.69
557.624	24.69
557.747	28.69
557.869	9.69
557.992	27.69
558.115	34.69
558.238	1.69
558.361	13.69
558.483	23.69
558.606	10.69
558.729	2.69
558.852	32.69
558.975	39.69
559.098	17.69
559.22	22.69
559.343	6.69
559.466	23.69
559.589	8.69
559.712	13.69
559.834	10.69
559.957	25.69
560.08	12.69
560.203	42.69
560.325	18.69
560.448	16.69
560.571	23.69
560.694	22.69
560.817	24.69
560.939	16.69
561.062	20.69
561.185	14.69
561.308	16.69
561.43	-4.31
561.553	4.69
561.676	20.69
561.799	28.69
561.921	11.69
562.044	16.69
562.167	3.69
562.29	33.69
562.413	25.69
562.535	12.69
562.658	-8.31
562.781	2.69
562.903	3.69
563.026	6.69
563.149	34.69
563.272	15.69
563.394	35.69
563.517	17.69
563.64	-2.31
563.763	18.69
563.885	19.69
564.008	52.69
564.131	14.69
564.254	-5.31
564.376	22.69
564.499	0.69
564.622	3.69
564.744	13.69
564.867	-1.31
564.99	-1.31
565.113	14.69
565.235	6.69
565.358	21.69
565.481	-3.31
565.603	-6.31
565.726	4.69
565.849	25.69
565.971	31.69
566.094	6.69
566.217	19.69
566.34	19.69
566.462	15.69
566.585	20.69
566.708	28.69
566.83	24.69
566.953	30.69
567.076	25.69
567.198	5.69
567.321	6.69
567.444	13.69
567.566	7.69
567.689	6.69
567.812	12.69
567.934	7.69
568.057	0.69
568.18	2.69
568.302	13.69
568.425	-0.31
568.548	6.69
568.67	32.69
568.793	15.69
568.916	14.69
569.038	14.69
569.161	14.69
569.283	17.69
569.406	39.69
569.529	21.69
569.651	11.69
569.774	2.69
569.897	3.69
570.019	28.69
570.142	27.69
570.265	10.69
570.387	2.69
570.51	25.69
570.632	12.69
570.755	11.69
570.878	16.69
571	17.69
571.123	12.69
571.246	26.69
571.368	26.69
571.491	7.69
571.613	3.69
571.736	13.69
571.859	30.69
571.981	12.69
572.104	1.69
572.226	18.69
572.349	-8.31
572.472	11.69
572.594	-10.31
572.717	6.69
572.839	11.69
572.962	5.69
573.085	30.69
573.207	7.69
573.33	9.69
573.452	21.69
573.575	37.69
573.697	6.69
573.82	4.69
573.943	5.69
574.065	31.69
574.188	6.69
574.31	40.69
574.433	26.69
574.555	22.69
574.678	-6.31
574.801	13.69
574.923	4.69
575.046	6.69
575.168	14.69
575.291	9.69
575.413	19.69
575.536	15.69
575.659	15.69
575.781	7.69
575.904	13.69
576.026	23.69
576.149	25.69
576.271	18.69
576.394	14.69
576.516	13.69
576.639	19.69
576.761	2.69
576.884	11.69
577.007	8.69
577.129	24.69
577.252	4.69
577.374	20.69
577.497	7.69
577.619	14.69
577.742	-2.31
577.864	26.69
577.987	6.69
578.109	29.69
578.232	16.69
578.354	18.69
578.477	23.69
578.599	5.69
578.722	4.69
578.844	2.69
578.967	11.69
579.089	19.69
579.212	5.69
579.334	24.69
579.457	12.69
579.579	4.69
579.702	10.69
579.824	2.69
579.947	-9.31
580.069	0.69
580.192	4.69
580.314	28.69
580.437	18.69
580.559	31.69
580.682	10.69
580.804	11.69
580.927	14.69
581.049	26.69
581.172	19.69
581.294	34.69
581.417	28.69
581.539	8.69
581.662	17.69
581.784	20.69
581.907	16.69
582.029	19.69
582.152	6.69
582.274	31.69
582.396	5.69
582.519	-1.31
582.641	16.69
582.764	21.69
582.886	24.69
583.009	3.69
583.131	-11.31
583.254	22.69
583.376	32.69
583.499	18.69
583.621	22.69
583.743	26.69
583.866	25.69
583.988	-2.31
584.111	9.69
584.233	16.69
584.356	19.69
584.478	18.69
584.601	-4.31
584.723	3.69
584.845	21.69
584.968	-1.31
585.09	-13.31
585.213	16.69
585.335	4.69
585.458	16.69
585.58	14.69
585.702	6.69
585.825	24.69
585.947	-7.31
586.07	5.69
586.192	0.69
586.315	6.69
586.437	16.69
586.559	11.69
586.682	-2.31
586.804	23.69
586.927	11.69
587.049	3.69
587.171	16.69
587.294	5.69
587.416	17.69
587.539	6.69
587.661	-0.31
587.783	-4.31
587.906	12.69
588.028	14.69
588.151	32.69
588.273	30.69
588.395	23.69
588.518	4.69
588.64	36.69
588.763	17.69
588.885	31.69
589.007	22.69
589.13	4.69
589.252	-0.31
589.375	13.69
589.497	18.69
589.619	10.69
589.742	12.69
589.864	11.69
589.986	24.69
590.109	20.69
590.231	12.69
590.354	31.69
590.476	-0.31
590.598	17.69
590.721	7.69
590.843	23.69
590.965	12.69
591.088	6.69
591.21	4.69
591.332	21.69
591.455	0.69
591.577	9.69
591.7	10.69
591.822	13.69
591.944	4.69
592.067	19.69
592.189	14.69
592.311	11.69
592.434	8.69
592.556	23.69
592.678	7.69
592.801	19.69
592.923	-0.31
593.045	14.69
593.168	35.69
593.29	8.69
593.412	27.69
593.535	3.69
593.657	12.69
593.779	16.69
593.902	36.69
594.024	23.69
594.146	15.69
594.269	30.69
594.391	-3.31
594.513	23.69
594.636	4.69
594.758	19.69
594.88	40.69
595.003	11.69
595.125	-1.31
595.247	8.69
595.37	3.69
595.492	6.69
595.614	40.69
595.737	7.69
595.859	16.69
595.981	25.69
596.104	19.69
596.226	8.69
596.348	2.69
596.471	8.69
596.593	9.69
596.715	10.69
596.838	-1.31
596.96	-5.31
597.082	6.69
597.204	33.69
597.327	18.69
597.449	8.69
597.571	22.69
597.694	21.69
597.816	19.69
597.938	30.69
598.061	19.69
598.183	8.69
598.305	45.69
598.427	4.69
598.55	22.69
598.672	26.69
598.794	20.69
598.917	3.69
599.039	10.69
599.161	22.69
599.283	16.69
599.406	13.69
599.528	12.69
599.65	23.69
599.773	37.69
599.895	52.69
600.017	29.69
600.139	20.69
600.262	14.69
600.384	15.69
600.506	4.69
600.628	14.69
600.751	26.69
600.873	10.69
600.995	6.69
601.118	31.69
601.24	2.69
601.362	32.69
601.484	17.69
601.607	9.69
601.729	13.69
601.851	15.69
601.973	10.69
602.096	20.69
602.218	34.69
602.34	30.69
602.462	29.69
602.585	19.69
602.707	-2.31
602.829	29.69
602.951	23.69
603.074	-2.31
603.196	9.69
603.318	7.69
603.44	36.69
603.563	24.69
603.685	12.69
603.807	11.69
603.929	9.69
604.052	35.69
604.174	18.69
604.296	13.69
604.418	13.69
604.541	30.69
604.663	24.69
604.785	18.69
604.907	27.69
605.03	6.69
605.152	51.69
605.274	23.69
605.396	10.69
605.519	9.69
605.641	19.69
605.763	4.69
605.885	11.69
606.008	8.69
606.13	12.69
606.252	20.69
606.374	1.69
606.496	2.69
606.619	15.69
606.741	26.69
606.863	34.69
606.985	45.69
607.108	16.69
607.23	10.69
607.352	15.69
607.474	8.69
607.596	2.69
607.719	-5.31
607.841	33.69
607.963	15.69
608.085	5.69
608.207	29.69
608.33	8.69
608.452	2.69
608.574	6.69
608.696	25.69
608.819	6.69
608.941	11.69
609.063	8.69
609.185	12.69
609.307	11.69
609.43	16.69
609.552	25.69
609.674	6.69
609.796	26.69
609.918	22.69
610.041	-1.31
610.163	14.69
610.285	11.69
610.407	27.69
610.529	0.69
610.652	12.69
610.774	20.69
610.896	22.69
611.018	17.69
611.14	10.69
611.263	-5.31
611.385	15.69
611.507	13.69
611.629	11.69
611.751	10.69
611.873	39.69
611.996	17.69
612.118	22.69
612.24	11.69
612.362	20.69
612.484	25.69
612.607	22.69
612.729	34.69
612.851	12.69
612.973	10.69
613.095	5.69
613.218	10.69
613.34	20.69
613.462	23.69
613.584	9.69
613.706	9.69
613.828	38.69
613.951	3.69
614.073	6.69
614.195	3.69
614.317	46.69
614.439	16.69
614.561	19.69
614.684	8.69
614.806	15.69
614.928	34.69
615.05	23.69
615.172	20.69
615.294	11.69
615.417	22.69
615.539	23.69
615.661	24.69
615.783	41.69
615.905	34.69
616.027	78.69
616.15	105.69
616.272	83.69
616.394	61.69
616.516	36.69
616.638	23.69
616.76	30.69
616.883	19.69
617.005	7.69
617.127	5.69
617.249	11.69
617.371	26.69
617.493	6.69
617.615	2.69
617.738	16.69
617.86	4.69
617.982	3.69
618.104	16.69
618.226	16.69
618.348	1.69
618.471	13.69
618.593	31.69
618.715	11.69
618.837	9.69
618.959	11.69
619.081	20.69
619.203	27.69
619.326	15.69
619.448	31.69
619.57	19.69
619.692	-0.31
619.814	8.69
619.936	16.69
620.058	19.69
620.181	0.69
620.303	9.69
620.425	18.69
620.547	5.69
620.669	9.69
620.791	15.69
620.913	4.69
621.036	-1.31
621.158	22.69
621.28	11.69
621.402	-8.31
621.524	3.69
621.646	11.69
621.768	0.69
621.891	-15.31
622.013	21.69
622.135	10.69
622.257	-1.31
622.379	11.69
622.501	9.69
622.623	27.69
622.745	18.69
622.868	23.69
622.99	19.69
623.112	20.69
623.234	6.69
623.356	18.69
623.478	3.69
623.6	5.69
623.722	-12.31
623.845	11.69
623.967	-2.31
624.089	-2.31
624.211	5.69
624.333	-3.31
624.455	13.69
624.577	22.69
624.699	6.69
624.822	2.69
624.944	-0.31
625.066	7.69
625.188	7.69
625.31	-2.31
625.432	23.69
625.554	12.69
625.676	39.69
625.799	9.69
625.921	15.69
626.043	24.69
626.165	20.69
626.287	2.69
626.409	21.69
626.531	10.69
626.653	15.69
626.775	17.69
626.898	12.69
627.02	12.69
627.142	40.69
627.264	20.69
627.386	13.69
627.508	2.69
627.63	6.69
627.752	21.69
627.874	14.69
627.997	23.69
628.119	10.69
628.241	16.69
628.363	8.69
628.485	18.69
628.607	16.69
628.729	4.69
628.851	6.69
628.973	11.69
629.096	10.69
629.218	7.69
629.34	13.69
629.462	-13.31
629.584	7.69
629.706	10.69
629.828	11.69
629.95	14.69
630.072	1.69
630.195	-0.31
630.317	34.69
630.439	-5.31
630.561	-4.31
630.683	3.69
630.805	-1.31
630.927	18.69
631.049	8.69
631.171	-6.31
631.293	16.69
631.416	13.69
631.538	10.69
631.66	2.69
631.782	12.69
631.904	23.69
632.026	6.69
632.148	10.69
632.27	5.69
632.392	18.69
632.514	26.69
632.637	18.69
632.759	9.69
632.881	11.69
633.003	12.69
633.125	14.69
633.247	3.69
633.369	7.69
633.491	2.69
633.613	21.69
633.735	2.69
633.858	7.69
633.98	13.69
634.102	-0.31
634.224	-6.31
634.346	8.69
634.468	9.69
634.59	10.69
634.712	16.69
634.834	15.69
634.956	9.69
635.078	6.69
635.201	3.69
635.323	9.69
635.445	6.69
635.567	-11.31
635.689	16.69
635.811	15.69
635.933	2.69
636.055	2.69
636.177	18.69
636.299	32.69
636.421	-0.31
636.544	-4.31
636.666	4.69
636.788	10.69
636.91	16.69
637.032	6.69
637.154	24.69
637.276	34.69
637.398	21.69
637.52	28.69
637.642	11.69
637.764	5.69
637.887	22.69
638.009	-1.31
638.131	6.69
638.253	0.69
638.375	5.69
638.497	11.69
638.619	3.69
638.741	1.69
638.863	-14.31
638.985	6.69
639.107	5.69
639.23	-0.31
639.352	25.69
639.474	7.69
639.596	5.69
639.718	9.69
639.84	27.69
639.962	18.69
640.084	22.69
640.206	18.69
640.328	4.69
640.45	16.69
640.573	9.69
640.695	22.69
640.817	4.69
640.939	18.69
641.061	8.69
641.183	7.69
641.305	13.69
641.427	8.69
641.549	18.69
641.671	28.69
641.793	14.69
641.915	34.69
642.038	16.69
642.16	23.69
642.282	11.69
642.404	-3.31
642.526	10.69
642.648	19.69
642.77	0.69
642.892	-8.31
643.014	29.69
643.136	17.69
643.258	11.69
643.381	27.69
643.503	19.69
643.625	24.69
643.747	-2.31
643.869	9.69
643.991	28.69
644.113	18.69
644.235	6.69
644.357	7.69
644.479	16.69
644.601	-6.31
644.723	-2.31
644.846	7.69
644.968	15.69
645.09	2.69
645.212	1.69
645.334	24.69
645.456	10.69
645.578	14.69
645.7	23.69
645.822	17.69
645.944	16.69
646.066	4.69
646.188	2.69
646.311	42.69
646.433	11.69
646.555	48.69
646.677	48.69
646.799	31.69
646.921	36.69
647.043	34.69
647.165	19.69
647.287	20.69
647.409	6.69
647.531	23.69
647.654	-8.31
647.776	26.69
647.898	16.69
648.02	10.69
648.142	0.69
648.264	5.69
648.386	13.69
648.508	5.69
648.63	-5.31
648.752	25.69
648.874	2.69
648.997	0.69
649.119	32.69
649.241	12.69
649.363	14.69
649.485	27.69
649.607	-1.31
649.729	-8.31
649.851	2.69
649.973	6.69
650.095	16.69
650.217	-11.31
650.34	10.69
650.462	10.69
650.584	6.69
650.706	23.69
650.828	-0.31
650.95	-18.31
651.072	11.69
651.194	8.69
651.316	14.69
651.438	20.69
651.56	3.69
651.683	-7.31
651.805	8.69
651.927	12.69
652.049	2.69
652.171	5.69
652.293	6.69
652.415	13.69
652.537	-4.31
652.659	-13.31
652.781	16.69
652.903	26.69
653.026	52.69
653.148	29.69
653.27	23.69
653.392	6.69
653.514	-9.31
653.636	0.69
653.758	16.69
653.88	3.69
654.002	2.69
654.124	-1.31
654.247	9.69
654.369	28.69
654.491	24.69
654.613	23.69
654.735	20.69
654.857	23.69
654.979	25.69
655.101	37.69
655.223	52.69
655.345	34.69
655.468	46.69
655.59	18.69
655.712	43.69
655.834	23.69
655.956	34.69
656.078	34.69
656.2	39.69
656.322	35.69
656.444	23.69
656.566	42.69
656.689	40.69
656.811	46.69
656.933	95.69
657.055	92.69
657.177	148.69
657.299	256.69
657.421	502.69
657.543	1922.69
657.665	12524.69
657.787	15175.69
657.91	15261.69
658.032	15665.69
658.154	4675.69
658.276	3600.69
658.398	1176.69
658.52	1036.69
658.642	490.69
658.764	602.69
658.886	267.69
659.009	421.69
659.131	226.69
659.253	320.69
659.375	164.69
659.497	248.69
659.619	158.69
659.741	203.69
659.863	86.69
659.985	139.69
660.108	108.69
660.23	158.69
660.352	80.69
660.474	147.69
660.596	82.69
660.718	148.69
660.84	65.69
660.962	120.69
661.084	58.69
661.207	101.69
661.329	70.69
661.451	106.69
661.573	60.69
661.695	109.69
661.817	70.69
661.939	102.69
662.061	74.69
662.184	77.69
662.306	28.69
662.428	70.69
662.55	48.69
662.672	59.69
662.794	56.69
662.916	60.69
663.038	34.69
663.161	71.69
663.283	61.69
663.405	62.69
663.527	20.69
663.649	72.69
663.771	38.69
663.893	63.69
664.015	45.69
664.138	54.69
664.26	51.69
664.382	76.69
664.504	39.69
664.626	46.69
664.748	23.69
664.87	38.69
664.992	33.69
665.115	57.69
665.237	32.69
665.359	35.69
665.481	35.69
665.603	47.69
665.725	17.69
665.847	43.69
665.97	40.69
666.092	56.69
666.214	34.69
666.336	44.69
666.458	27.69
666.58	46.69
666.702	17.69
666.825	39.69
666.947	5.69
667.069	49.69
667.191	26.69
667.313	35.69
667.435	11.69
667.557	33.69
667.68	8.69
667.802	31.69
667.924	14.69
668.046	38.69
668.168	38.69
668.29	63.69
668.412	31.69
668.535	44.69
668.657	15.69
668.779	19.69
668.901	18.69
669.023	61.69
669.145	12.69
669.267	57.69
669.39	32.69
669.512	38.69
669.634	31.69
669.756	24.69
669.878	10.69
670	26.69
670.123	17.69
670.245	34.69
670.367	26.69
670.489	34.69
670.611	29.69
670.733	6.69
670.856	9.69
670.978	29.69
671.1	28.69
671.222	36.69
671.344	13.69
671.466	6.69
671.589	4.69
671.711	23.69
671.833	18.69
671.955	13.69
672.077	-0.31
672.199	45.69
672.322	34.69
672.444	25.69
672.566	16.69
672.688	26.69
672.81	2.69
672.932	17.69
673.055	11.69
673.177	8.69
673.299	4.69
673.421	19.69
673.543	13.69
673.665	27.69
673.788	14.69
673.91	14.69
674.032	-4.31
674.154	21.69
674.276	35.69
674.399	10.69
674.521	12.69
674.643	19.69
674.765	7.69
674.887	39.69
675.009	32.69
675.132	20.69
675.254	0.69
675.376	12.69
675.498	19.69
675.62	35.69
675.743	1.69
675.865	29.69
675.987	-4.31
676.109	12.69
676.231	16.69
676.354	48.69
676.476	4.69
676.598	23.69
676.72	13.69
676.842	33.69
676.965	23.69
677.087	27.69
677.209	27.69
677.331	34.69
677.453	14.69
677.576	13.69
677.698	20.69
677.82	19.69
677.942	14.69
678.064	12.69
678.187	33.69
678.309	23.69
678.431	16.69
678.553	26.69
678.675	35.69
678.798	35.69
678.92	17.69
679.042	14.69
679.164	14.69
679.286	43.69
679.409	9.69
679.531	6.69
679.653	12.69
679.775	2.69
679.898	8.69
680.02	16.69
680.142	3.69
680.264	36.69
680.386	-8.31
680.509	12.69
680.631	21.69
680.753	33.69
680.875	-0.31
680.998	17.69
681.12	9.69
681.242	13.69
681.364	-1.31
681.486	22.69
681.609	7.69
681.731	-3.31
681.853	-8.31
681.975	14.69
682.098	19.69
682.22	20.69
682.342	22.69
682.464	32.69
682.587	15.69
682.709	22.69
682.831	-11.31
682.953	-4.31
683.076	13.69
683.198	28.69
683.32	-0.31
683.442	10.69
683.565	36.69
683.687	14.69
683.809	3.69
683.931	-6.31
684.054	11.69
684.176	23.69
684.298	23.69
684.42	2.69
684.543	5.69
684.665	30.69
684.787	20.69
684.909	1.69
685.032	21.69
685.154	-9.31
685.276	-0.31
685.398	19.69
685.521	23.69
685.643	12.69
685.765	29.69
685.887	35.69
686.01	8.69
686.132	15.69
686.254	19.69
686.377	21.69
686.499	10.69
686.621	15.69
686.743	8.69
686.866	13.69
686.988	44.69
687.11	22.69
687.232	6.69
687.355	0.69
687.477	3.69
687.599	12.69
687.722	4.69
687.844	18.69
687.966	19.69
688.088	27.69
688.211	26.69
688.333	23.69
688.455	19.69
688.578	22.69
688.7	18.69
688.822	18.69
688.944	-9.31
689.067	40.69
689.189	16.69
689.311	-7.31
689.434	16.69
689.556	23.69
689.678	12.69
689.801	-1.31
689.923	-2.31
690.045	31.69
690.167	42.69
690.29	23.69
690.412	11.69
690.534	19.69
690.657	10.69
690.779	3.69
690.901	16.69
691.024	3.69
691.146	2.69
691.268	13.69
691.391	15.69
691.513	22.69
691.635	7.69
691.758	27.69
691.88	28.69
692.002	-3.31
692.125	-0.31
692.247	2.69
692.369	13.69
692.492	-2.31
692.614	-0.31
692.736	9.69
692.859	-0.31
692.981	10.69
693.103	8.69
693.226	17.69
693.348	31.69
693.47	12.69
693.593	17.69
693.715	-8.31
693.837	2.69
693.96	-3.31
694.082	-1.31
694.204	26.69
694.327	15.69
694.449	-9.31
694.571	7.69
694.694	8.69
694.816	11.69
694.938	18.69
695.061	18.69
695.183	18.69
695.305	17.69
695.428	34.69
695.55	0.69
695.672	4.69
695.795	25.69
695.917	15.69
696.04	4.69
696.162	5.69
696.284	25.69
696.407	6.69
696.529	-0.31
696.651	42.69
696.774	13.69
696.896	27.69
697.019	21.69
697.141	12.69
697.263	18.69
697.386	8.69
697.508	7.69
697.63	21.69
697.753	11.69
697.875	11.69
697.998	1.69
698.12	22.69
698.242	-8.31
698.365	7.69
698.487	11.69
698.61	11.69
698.732	22.69
698.854	35.69
698.977	7.69
699.099	28.69
699.221	12.69
699.344	7.69
699.466	7.69
699.589	-2.31
699.711	5.69
699.834	17.69
699.956	20.69
700.078	12.69
700.201	-10.31
700.323	27.69
700.446	17.69
700.568	0.69
700.69	23.69
700.813	27.69
700.935	20.69
701.058	19.69
701.18	7.69
701.302	-0.31
701.425	-3.31
701.547	11.69
701.67	12.69
701.792	21.69
701.915	12.69
702.037	-4.31
702.159	-6.31
702.282	18.69
702.404	12.69
702.527	25.69
702.649	45.69
702.772	26.69
702.894	14.69
703.017	35.69
703.139	32.69
703.261	10.69
703.384	6.69
703.506	6.69
703.629	22.69
703.751	10.69
703.874	12.69
703.996	1.69
704.119	-1.31
704.241	31.69
704.364	-9.31
704.486	10.69
704.608	24.69
704.731	5.69
704.853	-3.31
704.976	10.69
705.098	29.69
705.221	13.69
705.343	13.69
705.466	23.69
705.588	10.69
705.711	29.69
705.833	27.69
705.956	16.69
706.078	12.69
706.201	14.69
706.323	17.69
706.446	10.69
