Data from LowRes_H2_15_26_11_07_2024_HR4C61881__68__15-28-20-437.txt Node

Date: Thu Nov 07 15:28:20 EST 2024
User: crc00042
Spectrometer: HR4C6188
Trigger mode: 4
Integration Time (sec): 1.000000E-1
Scans to average: 1
Electric dark correction enabled: true
Nonlinearity correction enabled: false
Boxcar width: 0
XAxis mode: Wavelengths
Number of Pixels in Spectrum: 3648
>>>>>Begin Spectral Data<<<<<
245.66	-106.31
245.797	-106.31
245.934	-106.31
246.071	-85.31
246.208	2.69
246.344	3.69
246.481	-2.31
246.618	-11.31
246.755	13.69
246.892	-1.31
247.029	-10.31
247.165	-10.31
247.302	4.69
247.439	1.69
247.576	-6.31
247.713	-0.31
247.849	30.69
247.986	-12.31
248.123	-2.31
248.26	12.69
248.396	28.69
248.533	8.69
248.67	-14.31
248.806	-0.31
248.943	14.69
249.08	-8.31
249.216	14.69
249.353	-4.31
249.49	-7.31
249.626	11.69
249.763	23.69
249.9	-11.31
250.036	-3.31
250.173	-0.31
250.309	7.69
250.446	-7.31
250.582	-5.31
250.719	-7.31
250.856	3.69
250.992	-6.31
251.129	6.69
251.265	-16.31
251.402	-0.31
251.538	3.69
251.675	9.69
251.811	21.69
251.948	15.69
252.084	12.69
252.221	8.69
252.357	-12.31
252.493	34.69
252.63	-1.31
252.766	32.69
252.903	1.69
253.039	-9.31
253.175	16.69
253.312	8.69
253.448	-33.31
253.585	1.69
253.721	20.69
253.857	8.69
253.994	-2.31
254.13	14.69
254.266	9.69
254.403	5.69
254.539	6.69
254.675	-4.31
254.811	10.69
254.948	17.69
255.084	-0.31
255.22	-17.31
255.356	-5.31
255.493	10.69
255.629	8.69
255.765	1.69
255.901	15.69
256.037	10.69
256.174	7.69
256.31	2.69
256.446	7.69
256.582	3.69
256.718	6.69
256.854	19.69
256.991	24.69
257.127	27.69
257.263	-6.31
257.399	26.69
257.535	0.69
257.671	8.69
257.807	-3.31
257.943	-16.31
258.079	-4.31
258.215	-11.31
258.351	11.69
258.487	12.69
258.623	36.69
258.759	1.69
258.895	-15.31
259.031	-1.31
259.167	-2.31
259.303	7.69
259.439	11.69
259.575	12.69
259.711	-12.31
259.847	-11.31
259.983	27.69
260.119	-0.31
260.255	13.69
260.391	7.69
260.527	17.69
260.663	21.69
260.799	3.69
260.934	-3.31
261.07	-10.31
261.206	-7.31
261.342	-14.31
261.478	34.69
261.614	19.69
261.749	21.69
261.885	0.69
262.021	7.69
262.157	1.69
262.293	9.69
262.428	-8.31
262.564	1.69
262.7	12.69
262.836	4.69
262.971	9.69
263.107	-4.31
263.243	31.69
263.378	0.69
263.514	-9.31
263.65	13.69
263.785	8.69
263.921	4.69
264.057	5.69
264.192	19.69
264.328	18.69
264.464	-17.31
264.599	1.69
264.735	21.69
264.871	-10.31
265.006	2.69
265.142	3.69
265.277	5.69
265.413	22.69
265.548	18.69
265.684	7.69
265.819	4.69
265.955	-14.31
266.091	-19.31
266.226	16.69
266.362	8.69
266.497	-6.31
266.633	5.69
266.768	-9.31
266.903	20.69
267.039	7.69
267.174	18.69
267.31	7.69
267.445	8.69
267.581	9.69
267.716	27.69
267.851	10.69
267.987	0.69
268.122	21.69
268.258	-4.31
268.393	9.69
268.528	9.69
268.664	-17.31
268.799	-11.31
268.934	13.69
269.07	-6.31
269.205	7.69
269.34	10.69
269.476	-2.31
269.611	-25.31
269.746	10.69
269.881	5.69
270.017	22.69
270.152	-2.31
270.287	15.69
270.422	24.69
270.558	17.69
270.693	27.69
270.828	9.69
270.963	10.69
271.098	-19.31
271.234	0.69
271.369	7.69
271.504	-2.31
271.639	-13.31
271.774	-2.31
271.909	-10.31
272.045	-0.31
272.18	7.69
272.315	-1.31
272.45	19.69
272.585	-12.31
272.72	2.69
272.855	3.69
272.99	13.69
273.125	-5.31
273.26	-21.31
273.395	4.69
273.53	15.69
273.665	16.69
273.8	-10.31
273.935	22.69
274.07	17.69
274.205	16.69
274.34	9.69
274.475	4.69
274.61	24.69
274.745	25.69
274.88	20.69
275.015	0.69
275.15	-1.31
275.285	3.69
275.42	-1.31
275.555	18.69
275.69	5.69
275.825	4.69
275.959	1.69
276.094	6.69
276.229	-7.31
276.364	1.69
276.499	16.69
276.634	1.69
276.768	1.69
276.903	3.69
277.038	-0.31
277.173	17.69
277.308	10.69
277.442	0.69
277.577	4.69
277.712	7.69
277.847	-4.31
277.981	5.69
278.116	-5.31
278.251	16.69
278.386	10.69
278.52	9.69
278.655	3.69
278.79	17.69
278.924	23.69
279.059	30.69
279.194	7.69
279.328	34.69
279.463	23.69
279.598	9.69
279.732	22.69
279.867	9.69
280.001	12.69
280.136	19.69
280.271	16.69
280.405	13.69
280.54	9.69
280.674	9.69
280.809	22.69
280.943	-1.31
281.078	16.69
281.213	19.69
281.347	10.69
281.482	23.69
281.616	3.69
281.751	12.69
281.885	-10.31
282.02	1.69
282.154	9.69
282.288	-2.31
282.423	-4.31
282.557	-11.31
282.692	-4.31
282.826	5.69
282.961	21.69
283.095	3.69
283.229	0.69
283.364	-18.31
283.498	-1.31
283.633	-8.31
283.767	4.69
283.901	10.69
284.036	3.69
284.17	3.69
284.304	15.69
284.439	-8.31
284.573	18.69
284.707	41.69
284.842	4.69
284.976	14.69
285.11	-10.31
285.244	13.69
285.379	31.69
285.513	-3.31
285.647	17.69
285.781	23.69
285.916	25.69
286.05	-7.31
286.184	16.69
286.318	4.69
286.453	2.69
286.587	-12.31
286.721	2.69
286.855	9.69
286.989	23.69
287.123	-3.31
287.258	5.69
287.392	7.69
287.526	14.69
287.66	9.69
287.794	4.69
287.928	6.69
288.062	10.69
288.196	-5.31
288.33	9.69
288.464	15.69
288.598	29.69
288.733	7.69
288.867	23.69
289.001	24.69
289.135	8.69
289.269	-10.31
289.403	1.69
289.537	15.69
289.671	13.69
289.805	-10.31
289.939	11.69
290.073	0.69
290.207	1.69
290.34	-14.31
290.474	21.69
290.608	0.69
290.742	15.69
290.876	14.69
291.01	13.69
291.144	35.69
291.278	30.69
291.412	32.69
291.546	12.69
291.679	4.69
291.813	1.69
291.947	16.69
292.081	0.69
292.215	-12.31
292.349	20.69
292.482	22.69
292.616	7.69
292.75	4.69
292.884	12.69
293.018	-3.31
293.151	-14.31
293.285	9.69
293.419	-3.31
293.553	-2.31
293.686	7.69
293.82	17.69
293.954	28.69
294.088	26.69
294.221	-7.31
294.355	-4.31
294.489	12.69
294.622	-2.31
294.756	12.69
294.89	3.69
295.023	9.69
295.157	14.69
295.291	24.69
295.424	20.69
295.558	16.69
295.691	-1.31
295.825	10.69
295.959	14.69
296.092	0.69
296.226	-0.31
296.359	12.69
296.493	9.69
296.627	22.69
296.76	4.69
296.894	-8.31
297.027	-6.31
297.161	8.69
297.294	-15.31
297.428	-15.31
297.561	33.69
297.695	-1.31
297.828	5.69
297.962	-2.31
298.095	6.69
298.229	2.69
298.362	7.69
298.495	-2.31
298.629	-8.31
298.762	-1.31
298.896	8.69
299.029	-13.31
299.162	1.69
299.296	15.69
299.429	-8.31
299.563	0.69
299.696	15.69
299.829	20.69
299.963	20.69
300.096	20.69
300.229	14.69
300.363	-2.31
300.496	22.69
300.629	-9.31
300.763	-1.31
300.896	5.69
301.029	-4.31
301.162	2.69
301.296	9.69
301.429	23.69
301.562	-11.31
301.695	15.69
301.829	4.69
301.962	25.69
302.095	10.69
302.228	10.69
302.362	7.69
302.495	-4.31
302.628	4.69
302.761	4.69
302.894	18.69
303.027	22.69
303.161	-2.31
303.294	15.69
303.427	12.69
303.56	8.69
303.693	11.69
303.826	12.69
303.959	1.69
304.092	8.69
304.225	6.69
304.359	24.69
304.492	18.69
304.625	5.69
304.758	11.69
304.891	0.69
305.024	-0.31
305.157	10.69
305.29	3.69
305.423	1.69
305.556	18.69
305.689	28.69
305.822	4.69
305.955	19.69
306.088	3.69
306.221	8.69
306.354	-7.31
306.487	-15.31
306.62	1.69
306.752	1.69
306.885	-3.31
307.018	4.69
307.151	13.69
307.284	9.69
307.417	3.69
307.55	5.69
307.683	8.69
307.816	27.69
307.948	-3.31
308.081	19.69
308.214	8.69
308.347	32.69
308.48	-13.31
308.613	-4.31
308.745	5.69
308.878	-7.31
309.011	22.69
309.144	24.69
309.277	8.69
309.409	11.69
309.542	3.69
309.675	21.69
309.808	9.69
309.94	26.69
310.073	-1.31
310.206	-4.31
310.339	-7.31
310.471	-10.31
310.604	24.69
310.737	5.69
310.869	-2.31
311.002	-4.31
311.135	-1.31
311.267	-6.31
311.4	13.69
311.533	20.69
311.665	12.69
311.798	-4.31
311.93	12.69
312.063	20.69
312.196	3.69
312.328	11.69
312.461	11.69
312.593	15.69
312.726	13.69
312.859	-0.31
312.991	-8.31
313.124	-12.31
313.256	1.69
313.389	1.69
313.521	-10.31
313.654	6.69
313.786	-7.31
313.919	1.69
314.051	12.69
314.184	5.69
314.316	20.69
314.449	1.69
314.581	6.69
314.714	-1.31
314.846	1.69
314.978	-18.31
315.111	4.69
315.243	9.69
315.376	15.69
315.508	23.69
315.641	-0.31
315.773	40.69
315.905	20.69
316.038	9.69
316.17	-0.31
316.302	10.69
316.435	15.69
316.567	7.69
316.699	12.69
316.832	10.69
316.964	-12.31
317.096	0.69
317.229	-14.31
317.361	-7.31
317.493	-2.31
317.625	-8.31
317.758	6.69
317.89	5.69
318.022	8.69
318.155	-0.31
318.287	17.69
318.419	14.69
318.551	8.69
318.683	-2.31
318.816	17.69
318.948	-4.31
319.08	-11.31
319.212	4.69
319.344	-3.31
319.477	-3.31
319.609	16.69
319.741	14.69
319.873	21.69
320.005	-10.31
320.137	-0.31
320.269	1.69
320.401	6.69
320.534	0.69
320.666	-19.31
320.798	-17.31
320.93	6.69
321.062	-22.31
321.194	-1.31
321.326	21.69
321.458	17.69
321.59	10.69
321.722	-13.31
321.854	2.69
321.986	13.69
322.118	18.69
322.25	0.69
322.382	-7.31
322.514	9.69
322.646	-19.31
322.778	12.69
322.91	5.69
323.042	11.69
323.174	-3.31
323.306	-36.31
323.438	-7.31
323.57	3.69
323.702	8.69
323.834	-1.31
323.966	-7.31
324.097	4.69
324.229	17.69
324.361	-0.31
324.493	-3.31
324.625	-0.31
324.757	14.69
324.889	5.69
325.021	1.69
325.152	11.69
325.284	31.69
325.416	-18.31
325.548	17.69
325.68	20.69
325.811	17.69
325.943	12.69
326.075	-6.31
326.207	-7.31
326.339	18.69
326.47	1.69
326.602	10.69
326.734	8.69
326.866	17.69
326.997	0.69
327.129	6.69
327.261	0.69
327.392	12.69
327.524	22.69
327.656	18.69
327.787	20.69
327.919	-14.31
328.051	27.69
328.182	31.69
328.314	37.69
328.446	2.69
328.577	24.69
328.709	-8.31
328.841	-16.31
328.972	-16.31
329.104	7.69
329.235	-14.31
329.367	7.69
329.499	5.69
329.63	-8.31
329.762	15.69
329.893	17.69
330.025	9.69
330.156	-7.31
330.288	13.69
330.419	20.69
330.551	27.69
330.683	15.69
330.814	6.69
330.946	38.69
331.077	1.69
331.208	-2.31
331.34	19.69
331.471	2.69
331.603	1.69
331.734	-10.31
331.866	6.69
331.997	9.69
332.129	0.69
332.26	-0.31
332.392	25.69
332.523	-3.31
332.654	-5.31
332.786	3.69
332.917	-14.31
333.048	38.69
333.18	13.69
333.311	11.69
333.443	4.69
333.574	-8.31
333.705	27.69
333.837	-6.31
333.968	3.69
334.099	25.69
334.231	19.69
334.362	6.69
334.493	18.69
334.624	37.69
334.756	-8.31
334.887	12.69
335.018	-2.31
335.15	14.69
335.281	2.69
335.412	37.69
335.543	12.69
335.675	3.69
335.806	10.69
335.937	5.69
336.068	12.69
336.199	31.69
336.331	2.69
336.462	19.69
336.593	3.69
336.724	7.69
336.855	6.69
336.986	14.69
337.118	24.69
337.249	15.69
337.38	10.69
337.511	11.69
337.642	10.69
337.773	9.69
337.904	-3.31
338.035	-8.31
338.166	-3.31
338.298	11.69
338.429	-4.31
338.56	21.69
338.691	28.69
338.822	25.69
338.953	10.69
339.084	14.69
339.215	23.69
339.346	14.69
339.477	29.69
339.608	20.69
339.739	-13.31
339.87	-2.31
340.001	-2.31
340.132	12.69
340.263	14.69
340.394	-2.31
340.525	15.69
340.656	-14.31
340.787	-17.31
340.918	43.69
341.049	30.69
341.179	8.69
341.31	19.69
341.441	14.69
341.572	13.69
341.703	6.69
341.834	5.69
341.965	30.69
342.096	7.69
342.227	17.69
342.357	-8.31
342.488	-10.31
342.619	-9.31
342.75	0.69
342.881	6.69
343.012	20.69
343.142	17.69
343.273	-21.31
343.404	-1.31
343.535	42.69
343.666	25.69
343.796	15.69
343.927	29.69
344.058	23.69
344.189	22.69
344.319	14.69
344.45	8.69
344.581	13.69
344.712	15.69
344.842	7.69
344.973	14.69
345.104	14.69
345.234	-7.31
345.365	-11.31
345.496	-2.31
345.626	28.69
345.757	22.69
345.888	-5.31
346.018	16.69
346.149	-5.31
346.28	9.69
346.41	-6.31
346.541	-5.31
346.672	-9.31
346.802	17.69
346.933	12.69
347.063	22.69
347.194	7.69
347.325	9.69
347.455	10.69
347.586	-6.31
347.716	-0.31
347.847	13.69
347.977	7.69
348.108	-2.31
348.238	13.69
348.369	6.69
348.499	-6.31
348.63	4.69
348.76	6.69
348.891	13.69
349.021	22.69
349.152	3.69
349.282	19.69
349.413	1.69
349.543	18.69
349.674	4.69
349.804	16.69
349.935	-5.31
350.065	-11.31
350.196	-18.31
350.326	-10.31
350.456	6.69
350.587	32.69
350.717	19.69
350.848	25.69
350.978	18.69
351.108	5.69
351.239	24.69
351.369	-10.31
351.499	-8.31
351.63	-7.31
351.76	0.69
351.89	10.69
352.021	6.69
352.151	-2.31
352.281	7.69
352.412	24.69
352.542	14.69
352.672	1.69
352.803	10.69
352.933	-2.31
353.063	18.69
353.193	4.69
353.324	2.69
353.454	23.69
353.584	25.69
353.714	-10.31
353.845	15.69
353.975	-7.31
354.105	-5.31
354.235	15.69
354.365	5.69
354.496	2.69
354.626	13.69
354.756	8.69
354.886	-0.31
355.016	13.69
355.146	13.69
355.277	15.69
355.407	-7.31
355.537	-5.31
355.667	12.69
355.797	-16.31
355.927	-9.31
356.057	12.69
356.187	3.69
356.318	-7.31
356.448	9.69
356.578	4.69
356.708	28.69
356.838	16.69
356.968	-4.31
357.098	8.69
357.228	-0.31
357.358	13.69
357.488	9.69
357.618	27.69
357.748	20.69
357.878	13.69
358.008	13.69
358.138	-1.31
358.268	16.69
358.398	29.69
358.528	-7.31
358.658	13.69
358.788	3.69
358.918	17.69
359.048	13.69
359.178	21.69
359.308	-0.31
359.438	32.69
359.568	-0.31
359.698	32.69
359.827	-10.31
359.957	-2.31
360.087	-4.31
360.217	15.69
360.347	21.69
360.477	34.69
360.607	-12.31
360.737	15.69
360.866	-3.31
360.996	-15.31
361.126	5.69
361.256	34.69
361.386	23.69
361.516	19.69
361.645	-2.31
361.775	12.69
361.905	-14.31
362.035	8.69
362.165	1.69
362.294	9.69
362.424	40.69
362.554	17.69
362.684	-11.31
362.813	12.69
362.943	21.69
363.073	15.69
363.203	4.69
363.332	9.69
363.462	0.69
363.592	6.69
363.721	4.69
363.851	18.69
363.981	21.69
364.111	9.69
364.24	-2.31
364.37	25.69
364.5	22.69
364.629	21.69
364.759	8.69
364.888	-3.31
365.018	6.69
365.148	22.69
365.277	21.69
365.407	4.69
365.537	5.69
365.666	11.69
365.796	3.69
365.925	24.69
366.055	7.69
366.184	-3.31
366.314	14.69
366.444	12.69
366.573	11.69
366.703	6.69
366.832	6.69
366.962	6.69
367.091	17.69
367.221	11.69
367.35	-11.31
367.48	36.69
367.609	15.69
367.739	12.69
367.868	-10.31
367.998	12.69
368.127	29.69
368.257	25.69
368.386	34.69
368.516	14.69
368.645	17.69
368.775	25.69
368.904	11.69
369.033	11.69
369.163	14.69
369.292	31.69
369.422	24.69
369.551	13.69
369.68	17.69
369.81	15.69
369.939	5.69
370.069	25.69
370.198	25.69
370.327	-8.31
370.457	16.69
370.586	12.69
370.715	15.69
370.845	1.69
370.974	13.69
371.103	30.69
371.233	9.69
371.362	4.69
371.491	-2.31
371.621	19.69
371.75	5.69
371.879	0.69
372.008	19.69
372.138	5.69
372.267	23.69
372.396	-15.31
372.525	10.69
372.655	-2.31
372.784	12.69
372.913	-4.31
373.042	17.69
373.172	14.69
373.301	-1.31
373.43	-1.31
373.559	0.69
373.688	26.69
373.818	22.69
373.947	32.69
374.076	4.69
374.205	21.69
374.334	5.69
374.463	-7.31
374.593	15.69
374.722	6.69
374.851	40.69
374.98	12.69
375.109	5.69
375.238	0.69
375.367	49.69
375.496	0.69
375.625	-8.31
375.755	13.69
375.884	32.69
376.013	32.69
376.142	2.69
376.271	-4.31
376.4	8.69
376.529	11.69
376.658	26.69
376.787	0.69
376.916	10.69
377.045	19.69
377.174	17.69
377.303	17.69
377.432	24.69
377.561	23.69
377.69	4.69
377.819	25.69
377.948	0.69
378.077	-6.31
378.206	-6.31
378.335	-16.31
378.464	-3.31
378.593	21.69
378.722	-1.31
378.851	9.69
378.98	16.69
379.108	-0.31
379.237	0.69
379.366	4.69
379.495	9.69
379.624	13.69
379.753	26.69
379.882	9.69
380.011	-7.31
380.14	-1.31
380.268	16.69
380.397	3.69
380.526	34.69
380.655	-1.31
380.784	-22.31
380.913	-7.31
381.041	7.69
381.17	-11.31
381.299	-4.31
381.428	13.69
381.557	9.69
381.685	-3.31
381.814	21.69
381.943	0.69
382.072	-1.31
382.2	-3.31
382.329	0.69
382.458	16.69
382.587	14.69
382.715	25.69
382.844	20.69
382.973	16.69
383.102	25.69
383.23	9.69
383.359	1.69
383.488	30.69
383.616	6.69
383.745	-2.31
383.874	8.69
384.003	5.69
384.131	-2.31
384.26	4.69
384.389	20.69
384.517	4.69
384.646	-8.31
384.774	0.69
384.903	40.69
385.032	25.69
385.16	14.69
385.289	15.69
385.418	-3.31
385.546	2.69
385.675	5.69
385.803	1.69
385.932	18.69
386.06	15.69
386.189	14.69
386.318	1.69
386.446	-3.31
386.575	1.69
386.703	22.69
386.832	1.69
386.96	-9.31
387.089	4.69
387.217	23.69
387.346	6.69
387.474	-2.31
387.603	27.69
387.731	25.69
387.86	36.69
387.988	11.69
388.117	24.69
388.245	11.69
388.374	18.69
388.502	13.69
388.631	-10.31
388.759	-9.31
388.888	14.69
389.016	-0.31
389.144	19.69
389.273	10.69
389.401	-3.31
389.53	-18.31
389.658	28.69
389.786	5.69
389.915	-11.31
390.043	-14.31
390.172	16.69
390.3	24.69
390.428	6.69
390.557	9.69
390.685	28.69
390.813	20.69
390.942	19.69
391.07	15.69
391.198	-1.31
391.327	16.69
391.455	-6.31
391.583	27.69
391.712	9.69
391.84	9.69
391.968	-5.31
392.096	21.69
392.225	5.69
392.353	18.69
392.481	6.69
392.609	4.69
392.738	11.69
392.866	8.69
392.994	-2.31
393.122	25.69
393.251	4.69
393.379	-16.31
393.507	-7.31
393.635	3.69
393.764	30.69
393.892	29.69
394.02	-0.31
394.148	2.69
394.276	4.69
394.404	32.69
394.533	5.69
394.661	3.69
394.789	18.69
394.917	26.69
395.045	9.69
395.173	-3.31
395.302	-0.31
395.43	15.69
395.558	12.69
395.686	10.69
395.814	1.69
395.942	2.69
396.07	24.69
396.198	9.69
396.326	20.69
396.454	13.69
396.582	17.69
396.711	-0.31
396.839	11.69
396.967	-6.31
397.095	0.69
397.223	39.69
397.351	27.69
397.479	22.69
397.607	21.69
397.735	32.69
397.863	31.69
397.991	9.69
398.119	0.69
398.247	5.69
398.375	-0.31
398.503	-4.31
398.631	20.69
398.759	33.69
398.887	11.69
399.015	4.69
399.143	19.69
399.271	15.69
399.399	21.69
399.526	13.69
399.654	10.69
399.782	9.69
399.91	43.69
400.038	27.69
400.166	25.69
400.294	4.69
400.422	-4.31
400.55	5.69
400.678	23.69
400.805	4.69
400.933	21.69
401.061	21.69
401.189	10.69
401.317	15.69
401.445	21.69
401.573	10.69
401.7	-7.31
401.828	-10.31
401.956	0.69
402.084	32.69
402.212	8.69
402.34	9.69
402.467	20.69
402.595	16.69
402.723	7.69
402.851	14.69
402.978	1.69
403.106	11.69
403.234	-3.31
403.362	40.69
403.489	21.69
403.617	7.69
403.745	13.69
403.873	-5.31
404	26.69
404.128	10.69
404.256	40.69
404.384	32.69
404.511	17.69
404.639	4.69
404.767	7.69
404.894	21.69
405.022	12.69
405.15	12.69
405.277	8.69
405.405	10.69
405.533	4.69
405.66	2.69
405.788	6.69
405.916	10.69
406.043	8.69
406.171	6.69
406.299	8.69
406.426	18.69
406.554	28.69
406.681	31.69
406.809	13.69
406.937	12.69
407.064	-4.31
407.192	1.69
407.319	6.69
407.447	10.69
407.574	33.69
407.702	11.69
407.83	-5.31
407.957	-2.31
408.085	17.69
408.212	7.69
408.34	7.69
408.467	7.69
408.595	29.69
408.722	31.69
408.85	33.69
408.977	9.69
409.105	-0.31
409.232	11.69
409.36	12.69
409.487	14.69
409.615	30.69
409.742	27.69
409.87	23.69
409.997	35.69
410.125	37.69
410.252	59.69
410.379	53.69
410.507	40.69
410.634	15.69
410.762	36.69
410.889	25.69
411.017	14.69
411.144	18.69
411.271	14.69
411.399	7.69
411.526	9.69
411.653	33.69
411.781	47.69
411.908	19.69
412.036	3.69
412.163	16.69
412.29	23.69
412.418	21.69
412.545	21.69
412.672	11.69
412.8	28.69
412.927	19.69
413.054	13.69
413.182	26.69
413.309	15.69
413.436	0.69
413.564	-9.31
413.691	-1.31
413.818	35.69
413.945	8.69
414.073	6.69
414.2	9.69
414.327	11.69
414.454	36.69
414.582	11.69
414.709	2.69
414.836	5.69
414.963	13.69
415.091	20.69
415.218	19.69
415.345	2.69
415.472	22.69
415.6	-1.31
415.727	11.69
415.854	4.69
415.981	23.69
416.108	12.69
416.236	-0.31
416.363	24.69
416.49	9.69
416.617	4.69
416.744	13.69
416.871	40.69
416.998	11.69
417.126	26.69
417.253	28.69
417.38	10.69
417.507	3.69
417.634	13.69
417.761	22.69
417.888	14.69
418.015	29.69
418.143	24.69
418.27	32.69
418.397	11.69
418.524	-1.31
418.651	-9.31
418.778	19.69
418.905	28.69
419.032	8.69
419.159	7.69
419.286	25.69
419.413	13.69
419.54	29.69
419.667	4.69
419.794	-4.31
419.921	6.69
420.048	15.69
420.175	11.69
420.302	8.69
420.429	1.69
420.556	5.69
420.683	6.69
420.81	10.69
420.937	9.69
421.064	21.69
421.191	8.69
421.318	22.69
421.445	39.69
421.572	-0.31
421.699	27.69
421.826	18.69
421.953	20.69
422.08	22.69
422.207	6.69
422.334	8.69
422.461	44.69
422.588	16.69
422.714	23.69
422.841	35.69
422.968	31.69
423.095	20.69
423.222	8.69
423.349	33.69
423.476	26.69
423.603	12.69
423.729	9.69
423.856	27.69
423.983	28.69
424.11	1.69
424.237	23.69
424.364	18.69
424.491	28.69
424.617	1.69
424.744	15.69
424.871	8.69
424.998	-5.31
425.125	-7.31
425.251	15.69
425.378	4.69
425.505	3.69
425.632	6.69
425.758	14.69
425.885	26.69
426.012	18.69
426.139	33.69
426.266	4.69
426.392	24.69
426.519	16.69
426.646	12.69
426.772	19.69
426.899	17.69
427.026	13.69
427.153	27.69
427.279	33.69
427.406	22.69
427.533	15.69
427.659	8.69
427.786	10.69
427.913	28.69
428.039	16.69
428.166	5.69
428.293	9.69
428.419	10.69
428.546	13.69
428.673	0.69
428.799	-1.31
428.926	12.69
429.053	28.69
429.179	11.69
429.306	-5.31
429.433	26.69
429.559	19.69
429.686	-3.31
429.812	8.69
429.939	-7.31
430.066	-3.31
430.192	7.69
430.319	15.69
430.445	9.69
430.572	19.69
430.699	5.69
430.825	1.69
430.952	15.69
431.078	7.69
431.205	19.69
431.331	-18.31
431.458	23.69
431.584	18.69
431.711	10.69
431.837	17.69
431.964	20.69
432.09	11.69
432.217	10.69
432.343	12.69
432.47	26.69
432.596	22.69
432.723	9.69
432.849	-0.31
432.976	24.69
433.102	16.69
433.229	10.69
433.355	32.69
433.482	78.69
433.608	158.69
433.735	119.69
433.861	127.69
433.987	167.69
434.114	250.69
434.24	206.69
434.367	76.69
434.493	17.69
434.62	36.69
434.746	31.69
434.872	13.69
434.999	36.69
435.125	19.69
435.252	7.69
435.378	19.69
435.504	-4.31
435.631	10.69
435.757	13.69
435.883	27.69
436.01	32.69
436.136	13.69
436.262	15.69
436.389	10.69
436.515	21.69
436.641	-1.31
436.768	27.69
436.894	18.69
437.02	21.69
437.147	28.69
437.273	12.69
437.399	9.69
437.526	19.69
437.652	3.69
437.778	31.69
437.904	0.69
438.031	25.69
438.157	22.69
438.283	6.69
438.409	6.69
438.536	16.69
438.662	15.69
438.788	20.69
438.914	22.69
439.041	25.69
439.167	31.69
439.293	9.69
439.419	7.69
439.546	1.69
439.672	4.69
439.798	14.69
439.924	25.69
440.05	19.69
440.177	-1.31
440.303	15.69
440.429	17.69
440.555	23.69
440.681	6.69
440.807	37.69
440.934	12.69
441.06	24.69
441.186	21.69
441.312	-4.31
441.438	-0.31
441.564	27.69
441.69	33.69
441.816	24.69
441.943	16.69
442.069	17.69
442.195	10.69
442.321	26.69
442.447	-3.31
442.573	12.69
442.699	7.69
442.825	8.69
442.951	20.69
443.077	22.69
443.203	8.69
443.33	13.69
443.456	10.69
443.582	28.69
443.708	-4.31
443.834	16.69
443.96	33.69
444.086	24.69
444.212	36.69
444.338	39.69
444.464	39.69
444.59	36.69
444.716	4.69
444.842	9.69
444.968	7.69
445.094	7.69
445.22	17.69
445.346	-19.31
445.472	0.69
445.598	-0.31
445.724	10.69
445.85	22.69
445.976	13.69
446.102	13.69
446.228	23.69
446.354	28.69
446.48	10.69
446.605	9.69
446.731	21.69
446.857	12.69
446.983	9.69
447.109	0.69
447.235	7.69
447.361	-0.31
447.487	39.69
447.613	19.69
447.739	1.69
447.865	-8.31
447.99	-0.31
448.116	18.69
448.242	11.69
448.368	8.69
448.494	-3.31
448.62	16.69
448.746	19.69
448.872	23.69
448.997	1.69
449.123	3.69
449.249	21.69
449.375	21.69
449.501	1.69
449.627	-1.31
449.752	26.69
449.878	-4.31
450.004	6.69
450.13	13.69
450.256	15.69
450.381	19.69
450.507	19.69
450.633	10.69
450.759	26.69
450.884	10.69
451.01	10.69
451.136	3.69
451.262	12.69
451.388	22.69
451.513	-0.31
451.639	23.69
451.765	19.69
451.89	40.69
452.016	18.69
452.142	16.69
452.268	9.69
452.393	15.69
452.519	-6.31
452.645	20.69
452.771	13.69
452.896	1.69
453.022	6.69
453.148	13.69
453.273	12.69
453.399	8.69
453.525	10.69
453.65	16.69
453.776	11.69
453.902	25.69
454.027	30.69
454.153	10.69
454.279	29.69
454.404	9.69
454.53	8.69
454.656	29.69
454.781	-8.31
454.907	17.69
455.032	3.69
455.158	30.69
455.284	19.69
455.409	16.69
455.535	8.69
455.66	17.69
455.786	26.69
455.912	14.69
456.037	-8.31
456.163	1.69
456.288	41.69
456.414	1.69
456.539	4.69
456.665	15.69
456.791	24.69
456.916	-0.31
457.042	24.69
457.167	11.69
457.293	4.69
457.418	13.69
457.544	10.69
457.669	6.69
457.795	5.69
457.92	18.69
458.046	13.69
458.171	28.69
458.297	0.69
458.422	-1.31
458.548	19.69
458.673	20.69
458.799	3.69
458.924	15.69
459.05	19.69
459.175	12.69
459.301	8.69
459.426	28.69
459.552	9.69
459.677	15.69
459.803	24.69
459.928	22.69
460.053	7.69
460.179	13.69
460.304	19.69
460.43	-6.31
460.555	10.69
460.681	12.69
460.806	11.69
460.931	24.69
461.057	30.69
461.182	18.69
461.308	15.69
461.433	20.69
461.558	12.69
461.684	37.69
461.809	12.69
461.934	11.69
462.06	18.69
462.185	12.69
462.311	8.69
462.436	16.69
462.561	9.69
462.687	12.69
462.812	11.69
462.937	18.69
463.063	-3.31
463.188	7.69
463.313	16.69
463.439	6.69
463.564	-8.31
463.689	11.69
463.814	25.69
463.94	6.69
464.065	15.69
464.19	20.69
464.316	5.69
464.441	14.69
464.566	1.69
464.692	10.69
464.817	6.69
464.942	11.69
465.067	17.69
465.193	-12.31
465.318	11.69
465.443	20.69
465.568	3.69
465.694	19.69
465.819	22.69
465.944	9.69
466.069	5.69
466.194	12.69
466.32	8.69
466.445	5.69
466.57	-0.31
466.695	1.69
466.82	13.69
466.946	19.69
467.071	1.69
467.196	13.69
467.321	17.69
467.446	9.69
467.572	15.69
467.697	-10.31
467.822	18.69
467.947	36.69
468.072	10.69
468.197	-2.31
468.323	-9.31
468.448	21.69
468.573	7.69
468.698	4.69
468.823	18.69
468.948	22.69
469.073	29.69
469.198	29.69
469.324	31.69
469.449	15.69
469.574	25.69
469.699	26.69
469.824	30.69
469.949	11.69
470.074	20.69
470.199	46.69
470.324	25.69
470.449	28.69
470.574	2.69
470.7	17.69
470.825	19.69
470.95	43.69
471.075	-1.31
471.2	6.69
471.325	15.69
471.45	3.69
471.575	3.69
471.7	22.69
471.825	-6.31
471.95	15.69
472.075	16.69
472.2	21.69
472.325	-3.31
472.45	5.69
472.575	4.69
472.7	-4.31
472.825	36.69
472.95	17.69
473.075	15.69
473.2	-23.31
473.325	4.69
473.45	10.69
473.575	13.69
473.7	19.69
473.825	9.69
473.95	14.69
474.075	18.69
474.2	8.69
474.325	1.69
474.45	28.69
474.574	25.69
474.699	14.69
474.824	19.69
474.949	9.69
475.074	1.69
475.199	23.69
475.324	6.69
475.449	16.69
475.574	20.69
475.699	10.69
475.824	3.69
475.949	27.69
476.073	-5.31
476.198	7.69
476.323	16.69
476.448	10.69
476.573	14.69
476.698	39.69
476.823	28.69
476.947	14.69
477.072	26.69
477.197	25.69
477.322	7.69
477.447	4.69
477.572	21.69
477.697	14.69
477.821	0.69
477.946	38.69
478.071	21.69
478.196	45.69
478.321	33.69
478.445	13.69
478.57	9.69
478.695	14.69
478.82	24.69
478.945	25.69
479.069	-8.31
479.194	14.69
479.319	8.69
479.444	25.69
479.569	7.69
479.693	12.69
479.818	11.69
479.943	19.69
480.068	35.69
480.192	32.69
480.317	33.69
480.442	16.69
480.567	15.69
480.691	12.69
480.816	17.69
480.941	5.69
481.066	5.69
481.19	24.69
481.315	21.69
481.44	25.69
481.564	9.69
481.689	18.69
481.814	35.69
481.938	41.69
482.063	17.69
482.188	24.69
482.313	23.69
482.437	19.69
482.562	22.69
482.687	37.69
482.811	26.69
482.936	35.69
483.061	8.69
483.185	29.69
483.31	22.69
483.435	25.69
483.559	32.69
483.684	13.69
483.808	41.69
483.933	20.69
484.058	24.69
484.182	18.69
484.307	19.69
484.432	13.69
484.556	21.69
484.681	24.69
484.805	34.69
484.93	31.69
485.055	44.69
485.179	87.69
485.304	119.69
485.428	357.69
485.553	1248.69
485.678	1754.69
485.802	1651.69
485.927	1808.69
486.051	2702.69
486.176	1617.69
486.3	444.69
486.425	126.69
486.549	74.69
486.674	73.69
486.799	68.69
486.923	27.69
487.048	27.69
487.172	25.69
487.297	22.69
487.421	32.69
487.546	17.69
487.67	48.69
487.795	8.69
487.919	29.69
488.044	45.69
488.168	27.69
488.293	21.69
488.417	11.69
488.542	43.69
488.666	36.69
488.791	32.69
488.915	34.69
489.04	31.69
489.164	23.69
489.289	21.69
489.413	2.69
489.538	11.69
489.662	25.69
489.786	17.69
489.911	16.69
490.035	12.69
490.16	8.69
490.284	19.69
490.409	-8.31
490.533	23.69
490.658	37.69
490.782	28.69
490.906	24.69
491.031	23.69
491.155	22.69
491.28	32.69
491.404	29.69
491.528	21.69
491.653	25.69
491.777	37.69
491.902	14.69
492.026	10.69
492.15	13.69
492.275	9.69
492.399	8.69
492.524	12.69
492.648	20.69
492.772	12.69
492.897	25.69
493.021	15.69
493.145	8.69
493.27	23.69
493.394	21.69
493.518	14.69
493.643	-0.31
493.767	24.69
493.891	-4.31
494.016	6.69
494.14	21.69
494.264	14.69
494.389	34.69
494.513	25.69
494.637	3.69
494.762	17.69
494.886	24.69
495.01	38.69
495.134	21.69
495.259	34.69
495.383	27.69
495.507	20.69
495.632	23.69
495.756	40.69
495.88	23.69
496.004	5.69
496.129	15.69
496.253	32.69
496.377	12.69
496.501	33.69
496.626	0.69
496.75	26.69
496.874	24.69
496.998	20.69
497.123	31.69
497.247	14.69
497.371	8.69
497.495	11.69
497.62	13.69
497.744	-4.31
497.868	13.69
497.992	18.69
498.116	20.69
498.241	27.69
498.365	3.69
498.489	6.69
498.613	45.69
498.737	8.69
498.862	-2.31
498.986	8.69
499.11	6.69
499.234	15.69
499.358	4.69
499.482	15.69
499.607	16.69
499.731	1.69
499.855	30.69
499.979	22.69
500.103	19.69
500.227	34.69
500.351	12.69
500.476	6.69
500.6	23.69
500.724	16.69
500.848	10.69
500.972	18.69
501.096	23.69
501.22	33.69
501.344	9.69
501.469	11.69
501.593	13.69
501.717	29.69
501.841	21.69
501.965	5.69
502.089	13.69
502.213	28.69
502.337	10.69
502.461	3.69
502.585	10.69
502.709	16.69
502.834	18.69
502.958	14.69
503.082	19.69
503.206	10.69
503.33	21.69
503.454	17.69
503.578	13.69
503.702	41.69
503.826	20.69
503.95	28.69
504.074	31.69
504.198	23.69
504.322	29.69
504.446	6.69
504.57	18.69
504.694	12.69
504.818	23.69
504.942	38.69
505.066	17.69
505.19	7.69
505.314	21.69
505.438	18.69
505.562	-0.31
505.686	22.69
505.81	21.69
505.934	21.69
506.058	14.69
506.182	17.69
506.306	9.69
506.43	11.69
506.554	15.69
506.678	-4.31
506.802	13.69
506.926	19.69
507.05	5.69
507.174	21.69
507.298	8.69
507.422	29.69
507.546	20.69
507.67	19.69
507.794	4.69
507.918	9.69
508.042	9.69
508.165	-1.31
508.289	24.69
508.413	17.69
508.537	-2.31
508.661	14.69
508.785	8.69
508.909	23.69
509.033	9.69
509.157	23.69
509.281	25.69
509.405	11.69
509.528	38.69
509.652	24.69
509.776	23.69
509.9	28.69
510.024	21.69
510.148	15.69
510.272	15.69
510.396	20.69
510.519	8.69
510.643	23.69
510.767	6.69
510.891	25.69
511.015	11.69
511.139	10.69
511.263	42.69
511.386	22.69
511.51	19.69
511.634	10.69
511.758	7.69
511.882	13.69
512.006	25.69
512.129	7.69
512.253	30.69
512.377	13.69
512.501	39.69
512.625	17.69
512.748	4.69
512.872	10.69
512.996	13.69
513.12	3.69
513.244	-2.31
513.367	25.69
513.491	29.69
513.615	7.69
513.739	7.69
513.862	12.69
513.986	10.69
514.11	29.69
514.234	11.69
514.358	33.69
514.481	36.69
514.605	28.69
514.729	30.69
514.853	33.69
514.976	7.69
515.1	16.69
515.224	49.69
515.348	16.69
515.471	11.69
515.595	7.69
515.719	20.69
515.842	45.69
515.966	20.69
516.09	32.69
516.214	19.69
516.337	46.69
516.461	23.69
516.585	33.69
516.708	36.69
516.832	30.69
516.956	24.69
517.08	13.69
517.203	-8.31
517.327	19.69
517.451	20.69
517.574	53.69
517.698	28.69
517.822	23.69
517.945	43.69
518.069	41.69
518.193	60.69
518.316	29.69
518.44	37.69
518.564	23.69
518.687	21.69
518.811	30.69
518.935	62.69
519.058	26.69
519.182	31.69
519.306	52.69
519.429	8.69
519.553	70.69
519.676	50.69
519.8	25.69
519.924	17.69
520.047	25.69
520.171	17.69
520.294	22.69
520.418	25.69
520.542	27.69
520.665	27.69
520.789	31.69
520.913	8.69
521.036	-3.31
521.16	2.69
521.283	25.69
521.407	14.69
521.53	14.69
521.654	8.69
521.778	21.69
521.901	15.69
522.025	20.69
522.148	16.69
522.272	18.69
522.395	7.69
522.519	21.69
522.643	11.69
522.766	14.69
522.89	14.69
523.013	23.69
523.137	5.69
523.26	13.69
523.384	3.69
523.507	0.69
523.631	4.69
523.754	9.69
523.878	9.69
524.002	20.69
524.125	31.69
524.249	-4.31
524.372	-7.31
524.496	18.69
524.619	29.69
524.743	15.69
524.866	8.69
524.99	24.69
525.113	16.69
525.237	25.69
525.36	3.69
525.484	13.69
525.607	7.69
525.731	8.69
525.854	13.69
525.978	34.69
526.101	28.69
526.224	16.69
526.348	21.69
526.471	9.69
526.595	11.69
526.718	16.69
526.842	16.69
526.965	11.69
527.089	6.69
527.212	16.69
527.336	7.69
527.459	7.69
527.582	5.69
527.706	18.69
527.829	23.69
527.953	16.69
528.076	10.69
528.2	9.69
528.323	35.69
528.446	31.69
528.57	13.69
528.693	24.69
528.817	13.69
528.94	13.69
529.064	48.69
529.187	15.69
529.31	4.69
529.434	7.69
529.557	5.69
529.68	11.69
529.804	14.69
529.927	21.69
530.051	6.69
530.174	-4.31
530.297	24.69
530.421	25.69
530.544	11.69
530.668	12.69
530.791	20.69
530.914	23.69
531.038	14.69
531.161	3.69
531.284	14.69
531.408	37.69
531.531	22.69
531.654	0.69
531.778	13.69
531.901	7.69
532.024	16.69
532.148	4.69
532.271	18.69
532.394	29.69
532.518	38.69
532.641	26.69
532.764	10.69
532.888	9.69
533.011	-7.31
533.134	-1.31
533.258	35.69
533.381	4.69
533.504	18.69
533.628	19.69
533.751	10.69
533.874	26.69
533.997	7.69
534.121	11.69
534.244	9.69
534.367	10.69
534.491	8.69
534.614	19.69
534.737	9.69
534.86	8.69
534.984	-10.31
535.107	8.69
535.23	3.69
535.354	18.69
535.477	4.69
535.6	0.69
535.723	25.69
535.847	31.69
535.97	-1.31
536.093	27.69
536.216	6.69
536.34	13.69
536.463	15.69
536.586	29.69
536.709	23.69
536.833	22.69
536.956	11.69
537.079	-0.31
537.202	34.69
537.325	11.69
537.449	-0.31
537.572	17.69
537.695	4.69
537.818	8.69
537.941	8.69
538.065	9.69
538.188	0.69
538.311	17.69
538.434	27.69
538.558	9.69
538.681	17.69
538.804	17.69
538.927	18.69
539.05	22.69
539.173	13.69
539.297	12.69
539.42	22.69
539.543	14.69
539.666	29.69
539.789	20.69
539.913	9.69
540.036	12.69
540.159	9.69
540.282	11.69
540.405	8.69
540.528	6.69
540.651	18.69
540.775	10.69
540.898	4.69
541.021	6.69
541.144	13.69
541.267	19.69
541.39	-1.31
541.513	27.69
541.637	13.69
541.76	15.69
541.883	20.69
542.006	26.69
542.129	40.69
542.252	14.69
542.375	24.69
542.498	12.69
542.622	32.69
542.745	32.69
542.868	21.69
542.991	9.69
543.114	30.69
543.237	30.69
543.36	26.69
543.483	15.69
543.606	17.69
543.73	32.69
543.853	5.69
543.976	-0.31
544.099	13.69
544.222	4.69
544.345	-11.31
544.468	16.69
544.591	29.69
544.714	10.69
544.837	44.69
544.96	2.69
545.083	32.69
545.206	25.69
545.329	15.69
545.453	13.69
545.576	16.69
545.699	23.69
545.822	29.69
545.945	32.69
546.068	12.69
546.191	20.69
546.314	16.69
546.437	26.69
546.56	21.69
546.683	7.69
546.806	12.69
546.929	-3.31
547.052	9.69
547.175	12.69
547.298	14.69
547.421	12.69
547.544	-5.31
547.667	24.69
547.79	17.69
547.913	-9.31
548.036	-8.31
548.159	17.69
548.282	19.69
548.405	3.69
548.528	30.69
548.651	-4.31
548.774	16.69
548.897	14.69
549.02	49.69
549.143	24.69
549.266	34.69
549.389	33.69
549.512	15.69
549.635	18.69
549.758	26.69
549.881	19.69
550.004	13.69
550.127	12.69
550.25	4.69
550.373	-4.31
550.496	31.69
550.619	5.69
550.742	3.69
550.865	-8.31
550.988	15.69
551.111	33.69
551.234	31.69
551.356	24.69
551.479	11.69
551.602	11.69
551.725	11.69
551.848	26.69
551.971	19.69
552.094	22.69
552.217	-0.31
552.34	5.69
552.463	1.69
552.586	21.69
552.709	4.69
552.832	20.69
552.955	33.69
553.077	15.69
553.2	28.69
553.323	7.69
553.446	-4.31
553.569	3.69
553.692	21.69
553.815	32.69
553.938	35.69
554.061	20.69
554.184	26.69
554.306	13.69
554.429	32.69
554.552	29.69
554.675	1.69
554.798	11.69
554.921	18.69
555.044	10.69
555.167	7.69
555.29	-3.31
555.412	8.69
555.535	22.69
555.658	10.69
555.781	23.69
555.904	24.69
556.027	14.69
556.15	4.69
556.272	16.69
556.395	33.69
556.518	-4.31
556.641	-0.31
556.764	29.69
556.887	23.69
557.01	12.69
557.132	-2.31
557.255	17.69
557.378	1.69
557.501	-5.31
557.624	22.69
557.747	15.69
557.869	10.69
557.992	24.69
558.115	26.69
558.238	10.69
558.361	24.69
558.483	37.69
558.606	17.69
558.729	9.69
558.852	44.69
558.975	21.69
559.098	21.69
559.22	12.69
559.343	10.69
559.466	27.69
559.589	6.69
559.712	27.69
559.834	18.69
559.957	3.69
560.08	17.69
560.203	16.69
560.325	32.69
560.448	22.69
560.571	13.69
560.694	12.69
560.817	17.69
560.939	-0.31
561.062	22.69
561.185	21.69
561.308	11.69
561.43	-6.31
561.553	12.69
561.676	-4.31
561.799	23.69
561.921	26.69
562.044	15.69
562.167	9.69
562.29	34.69
562.413	18.69
562.535	34.69
562.658	3.69
562.781	17.69
562.903	27.69
563.026	24.69
563.149	34.69
563.272	19.69
563.394	12.69
563.517	19.69
563.64	14.69
563.763	19.69
563.885	22.69
564.008	29.69
564.131	24.69
564.254	5.69
564.376	9.69
564.499	-1.31
564.622	3.69
564.744	28.69
564.867	25.69
564.99	12.69
565.113	4.69
565.235	17.69
565.358	13.69
565.481	8.69
565.603	7.69
565.726	11.69
565.849	32.69
565.971	23.69
566.094	7.69
566.217	12.69
566.34	-5.31
566.462	23.69
566.585	13.69
566.708	29.69
566.83	5.69
566.953	11.69
567.076	4.69
567.198	12.69
567.321	-4.31
567.444	11.69
567.566	9.69
567.689	-7.31
567.812	4.69
567.934	25.69
568.057	4.69
568.18	17.69
568.302	10.69
568.425	9.69
568.548	15.69
568.67	15.69
568.793	28.69
568.916	22.69
569.038	16.69
569.161	19.69
569.283	25.69
569.406	21.69
569.529	17.69
569.651	12.69
569.774	-12.31
569.897	24.69
570.019	34.69
570.142	27.69
570.265	7.69
570.387	13.69
570.51	19.69
570.632	15.69
570.755	8.69
570.878	12.69
571	25.69
571.123	3.69
571.246	22.69
571.368	4.69
571.491	9.69
571.613	4.69
571.736	9.69
571.859	6.69
571.981	-4.31
572.104	13.69
572.226	4.69
572.349	12.69
572.472	16.69
572.594	23.69
572.717	18.69
572.839	11.69
572.962	15.69
573.085	22.69
573.207	17.69
573.33	0.69
573.452	19.69
573.575	35.69
573.697	24.69
573.82	12.69
573.943	-0.31
574.065	10.69
574.188	11.69
574.31	29.69
574.433	20.69
574.555	25.69
574.678	7.69
574.801	11.69
574.923	16.69
575.046	12.69
575.168	12.69
575.291	14.69
575.413	-7.31
575.536	15.69
575.659	23.69
575.781	21.69
575.904	8.69
576.026	27.69
576.149	16.69
576.271	16.69
576.394	12.69
576.516	12.69
576.639	27.69
576.761	-11.31
576.884	-10.31
577.007	3.69
577.129	14.69
577.252	12.69
577.374	37.69
577.497	4.69
577.619	15.69
577.742	9.69
577.864	20.69
577.987	24.69
578.109	24.69
578.232	7.69
578.354	25.69
578.477	23.69
578.599	20.69
578.722	11.69
578.844	-18.31
578.967	15.69
579.089	-1.31
579.212	6.69
579.334	19.69
579.457	15.69
579.579	13.69
579.702	3.69
579.824	4.69
579.947	7.69
580.069	-1.31
580.192	-8.31
580.314	24.69
580.437	14.69
580.559	41.69
580.682	28.69
580.804	32.69
580.927	22.69
581.049	29.69
581.172	11.69
581.294	10.69
581.417	25.69
581.539	13.69
581.662	17.69
581.784	4.69
581.907	8.69
582.029	14.69
582.152	23.69
582.274	16.69
582.396	10.69
582.519	14.69
582.641	1.69
582.764	8.69
582.886	38.69
583.009	10.69
583.131	18.69
583.254	14.69
583.376	42.69
583.499	23.69
583.621	19.69
583.743	20.69
583.866	17.69
583.988	30.69
584.111	17.69
584.233	16.69
584.356	16.69
584.478	17.69
584.601	11.69
584.723	15.69
584.845	25.69
584.968	3.69
585.09	9.69
585.213	12.69
585.335	0.69
585.458	-5.31
585.58	19.69
585.702	9.69
585.825	17.69
585.947	17.69
586.07	4.69
586.192	8.69
586.315	20.69
586.437	3.69
586.559	-4.31
586.682	-0.31
586.804	12.69
586.927	-3.31
587.049	5.69
587.171	22.69
587.294	17.69
587.416	24.69
587.539	14.69
587.661	16.69
587.783	0.69
587.906	14.69
588.028	21.69
588.151	26.69
588.273	35.69
588.395	5.69
588.518	-11.31
588.64	12.69
588.763	29.69
588.885	16.69
589.007	23.69
589.13	-10.31
589.252	-5.31
589.375	-0.31
589.497	20.69
589.619	11.69
589.742	0.69
589.864	17.69
589.986	17.69
590.109	3.69
590.231	-3.31
590.354	21.69
590.476	7.69
590.598	-7.31
590.721	-3.31
590.843	15.69
590.965	7.69
591.088	22.69
591.21	17.69
591.332	23.69
591.455	4.69
591.577	2.69
591.7	-2.31
591.822	18.69
591.944	11.69
592.067	17.69
592.189	20.69
592.311	21.69
592.434	3.69
592.556	14.69
592.678	23.69
592.801	25.69
592.923	19.69
593.045	15.69
593.168	40.69
593.29	11.69
593.412	16.69
593.535	5.69
593.657	8.69
593.779	15.69
593.902	12.69
594.024	10.69
594.146	31.69
594.269	20.69
594.391	7.69
594.513	7.69
594.636	17.69
594.758	14.69
594.88	31.69
595.003	-2.31
595.125	7.69
595.247	20.69
595.37	25.69
595.492	20.69
595.614	30.69
595.737	24.69
595.859	9.69
595.981	19.69
596.104	22.69
596.226	5.69
596.348	22.69
596.471	2.69
596.593	4.69
596.715	3.69
596.838	19.69
596.96	8.69
597.082	16.69
597.204	16.69
597.327	4.69
597.449	21.69
597.571	25.69
597.694	22.69
597.816	7.69
597.938	-0.31
598.061	5.69
598.183	8.69
598.305	30.69
598.427	20.69
598.55	17.69
598.672	19.69
598.794	11.69
598.917	0.69
599.039	8.69
599.161	26.69
599.283	18.69
599.406	6.69
599.528	17.69
599.65	31.69
599.773	18.69
599.895	32.69
600.017	30.69
600.139	1.69
600.262	9.69
600.384	18.69
600.506	4.69
600.628	21.69
600.751	14.69
600.873	6.69
600.995	31.69
601.118	24.69
601.24	20.69
601.362	30.69
601.484	24.69
601.607	17.69
601.729	2.69
601.851	-4.31
601.973	9.69
602.096	12.69
602.218	16.69
602.34	21.69
602.462	29.69
602.585	23.69
602.707	2.69
602.829	3.69
602.951	11.69
603.074	-2.31
603.196	15.69
603.318	-4.31
603.44	27.69
603.563	5.69
603.685	-8.31
603.807	13.69
603.929	16.69
604.052	11.69
604.174	10.69
604.296	13.69
604.418	27.69
604.541	36.69
604.663	7.69
604.785	15.69
604.907	9.69
605.03	14.69
605.152	59.69
605.274	14.69
605.396	12.69
605.519	11.69
605.641	14.69
605.763	20.69
605.885	23.69
606.008	6.69
606.13	25.69
606.252	17.69
606.374	-6.31
606.496	-1.31
606.619	7.69
606.741	5.69
606.863	30.69
606.985	19.69
607.108	16.69
607.23	16.69
607.352	-2.31
607.474	21.69
607.596	17.69
607.719	10.69
607.841	22.69
607.963	11.69
608.085	7.69
608.207	42.69
608.33	10.69
608.452	-0.31
608.574	5.69
608.696	26.69
608.819	13.69
608.941	20.69
609.063	17.69
609.185	17.69
609.307	18.69
609.43	26.69
609.552	12.69
609.674	-18.31
609.796	23.69
609.918	23.69
610.041	4.69
610.163	29.69
610.285	12.69
610.407	24.69
610.529	3.69
610.652	21.69
610.774	13.69
610.896	8.69
611.018	11.69
611.14	2.69
611.263	0.69
611.385	11.69
611.507	26.69
611.629	10.69
611.751	17.69
611.873	31.69
611.996	23.69
612.118	15.69
612.24	12.69
612.362	20.69
612.484	18.69
612.607	20.69
612.729	18.69
612.851	25.69
612.973	-3.31
613.095	20.69
613.218	7.69
613.34	36.69
613.462	37.69
613.584	26.69
613.706	6.69
613.828	36.69
613.951	21.69
614.073	18.69
614.195	-6.31
614.317	13.69
614.439	32.69
614.561	17.69
614.684	10.69
614.806	19.69
614.928	17.69
615.05	32.69
615.172	10.69
615.294	22.69
615.417	24.69
615.539	6.69
615.661	6.69
615.783	20.69
615.905	27.69
616.027	82.69
616.15	89.69
616.272	85.69
616.394	54.69
616.516	37.69
616.638	30.69
616.76	0.69
616.883	15.69
617.005	29.69
617.127	23.69
617.249	19.69
617.371	16.69
617.493	20.69
617.615	25.69
617.738	22.69
617.86	17.69
617.982	9.69
618.104	17.69
618.226	4.69
618.348	13.69
618.471	29.69
618.593	20.69
618.715	17.69
618.837	27.69
618.959	24.69
619.081	28.69
619.203	0.69
619.326	3.69
619.448	-2.31
619.57	30.69
619.692	9.69
619.814	16.69
619.936	9.69
620.058	16.69
620.181	23.69
620.303	14.69
620.425	6.69
620.547	-0.31
620.669	8.69
620.791	15.69
620.913	20.69
621.036	-2.31
621.158	5.69
621.28	-0.31
621.402	-1.31
621.524	8.69
621.646	21.69
621.768	4.69
621.891	4.69
622.013	20.69
622.135	0.69
622.257	11.69
622.379	-0.31
622.501	-3.31
622.623	5.69
622.745	24.69
622.868	17.69
622.99	15.69
623.112	16.69
623.234	24.69
623.356	12.69
623.478	3.69
623.6	21.69
623.722	6.69
623.845	-0.31
623.967	4.69
624.089	17.69
624.211	8.69
624.333	19.69
624.455	15.69
624.577	8.69
624.699	12.69
624.822	1.69
624.944	18.69
625.066	27.69
625.188	15.69
625.31	23.69
625.432	29.69
625.554	4.69
625.676	23.69
625.799	9.69
625.921	14.69
626.043	29.69
626.165	-3.31
626.287	-7.31
626.409	25.69
626.531	18.69
626.653	10.69
626.775	27.69
626.898	12.69
627.02	5.69
627.142	17.69
627.264	23.69
627.386	7.69
627.508	16.69
627.63	3.69
627.752	22.69
627.874	16.69
627.997	4.69
628.119	22.69
628.241	15.69
628.363	25.69
628.485	24.69
628.607	30.69
628.729	14.69
628.851	-9.31
628.973	15.69
629.096	1.69
629.218	18.69
629.34	17.69
629.462	1.69
629.584	-2.31
629.706	6.69
629.828	42.69
629.95	25.69
630.072	19.69
630.195	3.69
630.317	10.69
630.439	11.69
630.561	27.69
630.683	10.69
630.805	13.69
630.927	18.69
631.049	3.69
631.171	8.69
631.293	24.69
631.416	18.69
631.538	12.69
631.66	9.69
631.782	12.69
631.904	46.69
632.026	7.69
632.148	20.69
632.27	-3.31
632.392	19.69
632.514	21.69
632.637	9.69
632.759	16.69
632.881	8.69
633.003	-3.31
633.125	15.69
633.247	14.69
633.369	12.69
633.491	16.69
633.613	12.69
633.735	9.69
633.858	8.69
633.98	9.69
634.102	0.69
634.224	11.69
634.346	15.69
634.468	9.69
634.59	6.69
634.712	20.69
634.834	15.69
634.956	10.69
635.078	18.69
635.201	7.69
635.323	3.69
635.445	1.69
635.567	-2.31
635.689	18.69
635.811	10.69
635.933	4.69
636.055	4.69
636.177	21.69
636.299	27.69
636.421	-2.31
636.544	-2.31
636.666	16.69
636.788	18.69
636.91	28.69
637.032	24.69
637.154	12.69
637.276	37.69
637.398	23.69
637.52	15.69
637.642	16.69
637.764	30.69
637.887	24.69
638.009	13.69
638.131	8.69
638.253	7.69
638.375	12.69
638.497	11.69
638.619	1.69
638.741	12.69
638.863	10.69
638.985	-0.31
639.107	7.69
639.23	11.69
639.352	29.69
639.474	5.69
639.596	9.69
639.718	9.69
639.84	13.69
639.962	21.69
640.084	42.69
640.206	12.69
640.328	3.69
640.45	11.69
640.573	4.69
640.695	-5.31
640.817	28.69
640.939	19.69
641.061	16.69
641.183	4.69
641.305	3.69
641.427	11.69
641.549	23.69
641.671	28.69
641.793	-0.31
641.915	20.69
642.038	3.69
642.16	12.69
642.282	21.69
642.404	13.69
642.526	13.69
642.648	6.69
642.77	14.69
642.892	15.69
643.014	25.69
643.136	28.69
643.258	13.69
643.381	23.69
643.503	29.69
643.625	-1.31
643.747	-5.31
643.869	15.69
643.991	10.69
644.113	16.69
644.235	16.69
644.357	16.69
644.479	25.69
644.601	5.69
644.723	23.69
644.846	18.69
644.968	15.69
645.09	12.69
645.212	0.69
645.334	22.69
645.456	19.69
645.578	19.69
645.7	27.69
645.822	21.69
645.944	1.69
646.066	16.69
646.188	6.69
646.311	15.69
646.433	19.69
646.555	57.69
646.677	51.69
646.799	50.69
646.921	44.69
647.043	35.69
647.165	-0.31
647.287	9.69
647.409	23.69
647.531	45.69
647.654	-9.31
647.776	26.69
647.898	22.69
648.02	13.69
648.142	5.69
648.264	2.69
648.386	-7.31
648.508	2.69
648.63	-16.31
648.752	8.69
648.874	5.69
648.997	19.69
649.119	26.69
649.241	7.69
649.363	48.69
649.485	31.69
649.607	20.69
649.729	13.69
649.851	12.69
649.973	14.69
650.095	17.69
650.217	-10.31
650.34	11.69
650.462	17.69
650.584	12.69
650.706	27.69
650.828	27.69
650.95	-7.31
651.072	25.69
651.194	3.69
651.316	18.69
651.438	13.69
651.56	0.69
651.683	15.69
651.805	-0.31
651.927	12.69
652.049	19.69
652.171	12.69
652.293	7.69
652.415	-6.31
652.537	1.69
652.659	8.69
652.781	12.69
652.903	34.69
653.026	29.69
653.148	38.69
653.27	5.69
653.392	24.69
653.514	22.69
653.636	13.69
653.758	9.69
653.88	3.69
654.002	7.69
654.124	25.69
654.247	8.69
654.369	13.69
654.491	15.69
654.613	21.69
654.735	6.69
654.857	17.69
654.979	12.69
655.101	39.69
655.223	41.69
655.345	32.69
655.468	24.69
655.59	22.69
655.712	23.69
655.834	31.69
655.956	47.69
656.078	46.69
656.2	51.69
656.322	29.69
656.444	7.69
656.566	63.69
656.689	53.69
656.811	77.69
656.933	95.69
657.055	108.69
657.177	163.69
657.299	245.69
657.421	494.69
657.543	1911.69
657.665	12612.69
657.787	15187.69
657.91	15315.69
658.032	15666.69
658.154	4687.69
658.276	3786.69
658.398	1200.69
658.52	1036.69
658.642	515.69
658.764	611.69
658.886	278.69
659.009	418.69
659.131	235.69
659.253	318.69
659.375	161.69
659.497	253.69
659.619	148.69
659.741	196.69
659.863	111.69
659.985	178.69
660.108	95.69
660.23	177.69
660.352	85.69
660.474	139.69
660.596	89.69
660.718	151.69
660.84	62.69
660.962	116.69
661.084	74.69
661.207	103.69
661.329	68.69
661.451	84.69
661.573	57.69
661.695	109.69
661.817	47.69
661.939	110.69
662.061	63.69
662.184	69.69
662.306	31.69
662.428	88.69
662.55	52.69
662.672	76.69
662.794	41.69
662.916	68.69
663.038	42.69
663.161	86.69
663.283	53.69
663.405	69.69
663.527	31.69
663.649	69.69
663.771	28.69
663.893	57.69
664.015	38.69
664.138	51.69
664.26	35.69
664.382	64.69
664.504	29.69
664.626	47.69
664.748	26.69
664.87	27.69
664.992	36.69
665.115	57.69
665.237	34.69
665.359	35.69
665.481	29.69
665.603	47.69
665.725	24.69
665.847	30.69
665.97	17.69
666.092	38.69
666.214	37.69
666.336	37.69
666.458	20.69
666.58	35.69
666.702	11.69
666.825	40.69
666.947	8.69
667.069	48.69
667.191	32.69
667.313	38.69
667.435	21.69
667.557	27.69
667.68	-0.31
667.802	35.69
667.924	16.69
668.046	46.69
668.168	29.69
668.29	60.69
668.412	26.69
668.535	39.69
668.657	15.69
668.779	45.69
668.901	37.69
669.023	46.69
669.145	16.69
669.267	41.69
669.39	19.69
669.512	22.69
669.634	22.69
669.756	18.69
669.878	16.69
670	41.69
670.123	17.69
670.245	31.69
670.367	32.69
670.489	29.69
670.611	16.69
670.733	11.69
670.856	14.69
670.978	23.69
671.1	46.69
671.222	39.69
671.344	30.69
671.466	30.69
671.589	7.69
671.711	19.69
671.833	4.69
671.955	15.69
672.077	7.69
672.199	55.69
672.322	20.69
672.444	28.69
672.566	29.69
672.688	30.69
672.81	27.69
672.932	42.69
673.055	21.69
673.177	17.69
673.299	23.69
673.421	15.69
673.543	23.69
673.665	35.69
673.788	13.69
673.91	16.69
674.032	-1.31
674.154	21.69
674.276	19.69
674.399	18.69
674.521	14.69
674.643	31.69
674.765	8.69
674.887	16.69
675.009	11.69
675.132	17.69
675.254	14.69
675.376	15.69
675.498	27.69
675.62	45.69
675.743	17.69
675.865	26.69
675.987	8.69
676.109	28.69
676.231	4.69
676.354	53.69
676.476	11.69
676.598	31.69
676.72	24.69
676.842	19.69
676.965	5.69
677.087	3.69
677.209	9.69
677.331	37.69
677.453	8.69
677.576	15.69
677.698	16.69
677.82	23.69
677.942	-4.31
678.064	16.69
678.187	14.69
678.309	23.69
678.431	-10.31
678.553	29.69
678.675	33.69
678.798	31.69
678.92	9.69
679.042	15.69
679.164	10.69
679.286	24.69
679.409	14.69
679.531	-2.31
679.653	6.69
679.775	21.69
679.898	4.69
680.02	9.69
680.142	-11.31
680.264	19.69
680.386	-10.31
680.509	36.69
680.631	31.69
680.753	13.69
680.875	-7.31
680.998	23.69
681.12	20.69
681.242	29.69
681.364	15.69
681.486	8.69
681.609	11.69
681.731	5.69
681.853	-8.31
681.975	11.69
682.098	14.69
682.22	27.69
682.342	25.69
682.464	23.69
682.587	1.69
682.709	25.69
682.831	6.69
682.953	21.69
683.076	1.69
683.198	29.69
683.32	19.69
683.442	34.69
683.565	29.69
683.687	12.69
683.809	6.69
683.931	1.69
684.054	20.69
684.176	23.69
684.298	20.69
684.42	25.69
684.543	18.69
684.665	8.69
684.787	5.69
684.909	23.69
685.032	13.69
685.154	1.69
685.276	18.69
685.398	9.69
685.521	-10.31
685.643	31.69
685.765	14.69
685.887	21.69
686.01	18.69
686.132	13.69
686.254	20.69
686.377	19.69
686.499	17.69
686.621	31.69
686.743	23.69
686.866	26.69
686.988	38.69
687.11	23.69
687.232	9.69
687.355	5.69
687.477	1.69
687.599	24.69
687.722	8.69
687.844	20.69
687.966	13.69
688.088	33.69
688.211	26.69
688.333	20.69
688.455	20.69
688.578	27.69
688.7	24.69
688.822	20.69
688.944	7.69
689.067	51.69
689.189	27.69
689.311	15.69
689.434	9.69
689.556	7.69
689.678	12.69
689.801	4.69
689.923	13.69
690.045	25.69
690.167	33.69
690.29	31.69
690.412	20.69
690.534	20.69
690.657	14.69
690.779	15.69
690.901	25.69
691.024	24.69
691.146	16.69
691.268	12.69
691.391	3.69
691.513	37.69
691.635	30.69
691.758	24.69
691.88	27.69
692.002	9.69
692.125	10.69
692.247	7.69
692.369	9.69
692.492	12.69
692.614	3.69
692.736	12.69
692.859	13.69
692.981	-8.31
693.103	9.69
693.226	15.69
693.348	25.69
693.47	16.69
693.593	19.69
693.715	-5.31
693.837	11.69
693.96	4.69
694.082	-2.31
694.204	29.69
694.327	7.69
694.449	-6.31
694.571	1.69
694.694	27.69
694.816	19.69
694.938	4.69
695.061	10.69
695.183	16.69
695.305	13.69
695.428	21.69
695.55	-10.31
695.672	1.69
695.795	17.69
695.917	27.69
696.04	12.69
696.162	-17.31
696.284	12.69
696.407	16.69
696.529	27.69
696.651	48.69
696.774	10.69
696.896	36.69
697.019	-3.31
697.141	12.69
697.263	8.69
697.386	2.69
697.508	11.69
697.63	27.69
697.753	15.69
697.875	10.69
697.998	0.69
698.12	18.69
698.242	17.69
698.365	15.69
698.487	-7.31
698.61	33.69
698.732	4.69
698.854	26.69
698.977	9.69
699.099	16.69
699.221	-0.31
699.344	14.69
699.466	17.69
699.589	3.69
699.711	3.69
699.834	21.69
699.956	17.69
700.078	19.69
700.201	14.69
700.323	36.69
700.446	28.69
700.568	7.69
700.69	14.69
700.813	36.69
700.935	27.69
701.058	12.69
701.18	13.69
701.302	17.69
701.425	3.69
701.547	25.69
701.67	16.69
701.792	6.69
701.915	-3.31
702.037	2.69
702.159	24.69
702.282	15.69
702.404	7.69
702.527	29.69
702.649	30.69
702.772	8.69
702.894	5.69
703.017	16.69
703.139	12.69
703.261	27.69
703.384	23.69
703.506	7.69
703.629	-3.31
703.751	29.69
703.874	5.69
703.996	7.69
704.119	-17.31
704.241	7.69
704.364	5.69
704.486	9.69
704.608	19.69
704.731	3.69
704.853	10.69
704.976	1.69
705.098	30.69
705.221	8.69
705.343	4.69
705.466	22.69
705.588	17.69
705.711	19.69
705.833	13.69
705.956	23.69
706.078	26.69
706.201	16.69
706.323	14.69
706.446	7.69
